th1 (rad),w1 (rad/s),th2 (rad),w2 (rad/s)
1.228052096592733,-2.6091822169422287,2.962533736888184,-1.3912413425252526
1.2019602744233109,-2.7000348519217265,2.9486213234629313,-1.4906687662402653
1.1749599259040937,-2.7898021222399176,2.933714635800529,-1.5969458659181859
1.1470619046816946,-2.8782750489736233,2.917745177141347,-1.7101621911094085
1.1182791541919583,-2.9652102810235874,2.900643555230253,-1.8303733864548313
1.0886270513817224,-3.0503267128448814,2.8823398213657048,-1.9575967045939264
1.0581237842532736,-3.1333022047644428,2.8627638543197653,-2.0918063293248665
1.0267907622056291,-3.213770508095317,2.8418457910265165,-2.2329286068893417
0.994653057124676,-3.2913185145472332,2.819516504957623,-2.3808373108702785
0.9617398719792036,-3.365483966570474,2.79570813184892,-2.5353490954955635
0.9280850323134989,-3.4357537813357615,2.7703546408939643,-2.696219322246693
0.8937274945001413,-3.50156315490423,2.7433924476714973,-2.863138474440522
0.858711862951099,-3.56229562340533,2.714761062927092,-3.03572940249937
0.8230889067170457,-3.6172842631124964,2.6844037689020985,-3.2135456673245595
0.7869160640859207,-3.665814209357823,2.652268312228853,-3.396071268690242
0.7502579219923425,-3.707126663220939,2.6183075995419505,-3.5827220578181618
0.7131866553601331,-3.740424532653701,2.5824803789637687,-3.772849136032114
0.6757824100335962,-3.764879818845383,2.5447518876034474,-3.965744532222394
0.6381336118451424,-3.779642806893537,2.5050944422812234,-4.160649428289935
0.600337183776207,-3.783853050146947,2.463487947998324,-4.356765161352289
0.5624986532747376,-3.776652048394475,2.419920296384801,-4.5532671721420686
0.5247321327907928,-3.7571974108478745,2.37438762466338,-4.749321989279564
0.48716015868231405,-3.7246781666466897,2.3268944047705844,-4.9441072388231655
0.44991337701584716,-3.6783307416773745,2.2774533323823527,-5.136834549649555
0.4131300695990734,-3.6174549669936895,2.226084986885857,-5.326775092737683
0.3769555199291365,-3.5414293304831816,2.1728172359584805,-5.513287355134456
0.3415412266243047,-3.4497245423348497,2.117684362407136,-5.69584662052629
0.3070439812009562,-3.3419143715641333,2.0607258962018733,-5.874075525653042
0.27362483748531485,-3.217682641575591,2.001985140945343,-6.047775006598752
0.24144801106955893,-3.0768252623319934,1.9415073908793554,-6.21695496424248
0.21067975844623898,-2.9192462356766473,1.8793378412369306,-6.381864085416804
0.1814872960894725,-2.744946702115588,1.8155192003827625,-6.543018471833699
0.15403782906831662,-2.554006296461785,1.7500890156644255,-6.701229059040553
0.12849776610369876,-2.346556332643791,1.68307672507402,-6.857628244460554
0.10503220277726084,-2.122744627975213,1.6145004426294145,-7.013696658780817
0.08380475649750871,-1.8826920957316315,1.5443634760416063,-7.171291551913079
0.06497783554019239,-1.626441603201616,1.4726505605224756,-7.33267872149309
0.04871341950817623,-1.3539001006246094,1.3993237733075448,-7.500570104027966
0.035174418501930135,-1.0647759061358186,1.3243180722672652,-7.67816872779951
0.024526659440571946,-0.7585147948521662,1.24753638498927,-7.869221004068291
0.016941511492050282,-0.4342422533902584,1.1688441749485872,-8.078071911619901
0.012599088958147698,-0.0907270959864897,1.088063455832388,-8.30970864220111
0.0116918179982828,0.27360204035154595,1.004966369410377,-8.56975685414007
0.01442783840179826,0.6605223800377963,0.9192688008689762,-8.86434902850009
0.021033062202176222,1.071633086414501,0.8306253105839754,-9.199693789022476
0.031749393066321234,1.507461824224766,0.7386283726937506,-9.58099879194108
0.04682401130856889,1.9655777495416886,0.6428183847743398,-10.010086305645219
0.06647978880398578,2.436918166997542,0.5427175217178877,-10.480596766089196
0.0908489704739612,2.8994323223120175,0.4379115540569957,-10.969483384302253
0.11984329369708138,3.3094661035312933,0.3282167202139732,-11.425220394422688
0.1529379547323943,3.59684697866313,0.21396451626974633,-11.76063312123999
0.1889064245190256,3.6796804904987845,0.09635818505734642,-11.872011625357192
0.22570322942401344,3.5109882407079036,-0.02236193119622551,-11.700956599695564
0.26081311183109246,3.122897359469064,-0.13937149719318115,-11.292287736984807
0.2920420854257831,2.606427230126765,-0.2522943745630292,-10.765015592710801
0.31810635772705076,2.0484833378079075,-0.35994453049013725,-10.228067352189647
0.3385911911051298,1.4995684395224598,-0.4622252040120337,-9.739734089824884
0.3535868755003544,0.9797084908722384,-0.5596225449102825,-9.318002530585623
0.3633839604090768,0.4930555795000202,-0.6528025702161387,-8.96093436184619
0.36831451620407696,0.03753116380697041,-0.7424119138346006,-8.659456588277886
0.36868982784214666,-0.39061444062702516,-0.8290064797173795,-8.40308814866436
0.3647836834358764,-0.7949930621599741,-0.9130373612040231,-8.182018201093335
0.35683375281427665,-1.1784836924463276,-0.9948575432149565,-7.987660810671946
0.34504891588981335,-1.5431217800643968,-1.074734151321676,-7.812657504912177
0.32961769808916935,-1.8901653155222253,-1.1528607263707977,-7.650719615140429
0.3107160449339471,-2.2202162781605486,-1.229367922522202,-7.496455063710517
0.28851388215234164,-2.533352465731717,-1.3043324731593073,-7.345225887190919
0.26318035749502444,-2.829254679168166,-1.3777847320312164,-7.193045474040559
0.23488781070334278,-3.107325147679751,-1.449715186771622,-7.036511247737972
0.20381455922654526,-3.3667964063705655,-1.5200802992490017,-6.872764514946928
0.17014659516283961,-3.6068303210101087,-1.588807944398471,-6.699468647784094
0.13407829195273852,-3.826606565525123,-1.655802630876312,-6.514797501204951
0.09581222629748729,-4.025399415432418,-1.7209506058883617,-6.317427193011968
0.0555582321431631,-4.202641539755782,-1.7841248778184813,-6.10652581201436
0.013531816745605274,-4.35797363223777,-1.845190135938625,-5.881737142617574
-0.030047919576772428,-4.491279175367277,-1.9040075073648006,-5.643156005496403
-0.0749607113304452,-4.602704272616671,-1.9604390674197647,-5.39129421805579
-0.12098775405661191,-4.692663190356515,-2.0143520096003225,-5.12703738675175
-0.16791438596017705,-4.761830907284695,-2.06562238346784,-4.851593692392644
-0.215532695033024,-4.811124493399335,-2.1141383203917665,-4.566436492357804
-0.26364393996701735,-4.841675490015711,-2.1598026853153445,-4.2732429510060195
-0.31206069486717447,-4.854795631636294,-2.202535114825405,-3.9738310603084286
-0.3606086511835374,-4.851938260569695,-2.2422734254284893,-3.6700973789118647
-0.40912803378923435,-4.834657669767615,-2.278974399217608,-3.363957649939794
-0.4574746104869105,-4.804568403128581,-2.312613975717006,-3.057292195666873
-0.5055202945181964,-4.763306274238962,-2.3431868976736747,-2.751897657651152
-0.553153357260586,-4.7124925552211865,-2.370705874250186,-2.449446271630261
-0.6002782828127978,-4.653702452491373,-2.3952003369664885,-2.1514534523007467
-0.6468153073377115,-4.588438639250592,-2.416714871489496,-1.8592540316606467
-0.6926996937302174,-4.518110269774071,-2.4353074118061024,-1.5739870689756201
-0.7378807964279581,-4.44401757413397,-2.4510472824958587,-1.2965887579110156
-0.7823209721692979,-4.367341840649776,-2.464013170074969,-1.0277926244019866
-0.8259943905757956,-4.28914035207796,-2.474291096318989,-0.7681359599669422
-0.8688857940965752,-4.210345660926322,-2.4819724559186582,-0.5179712828993162
-0.9109892507058384,-4.131768473744444,-2.4871521687476514,-0.27748156649800304
-0.9523069354432828,-4.054103361601211,-2.4899269844126315,-0.04669801098355722
-0.992847969059295,-3.977936516207147,-2.490393964522467,0.17448075237791708
-1.0326273342213663,-3.9037548161966535,-2.4886491569986875,0.38626897106438013
-1.0716648823833328,-3.8319555419009745,-2.4847864672880435,0.5889743439963075
-1.1099844378023425,-3.7628561654402164,-2.4788967238480804,0.7829793966880287
-1.1476129994567446,-3.6967037335128383,-2.4710669298812,0.9687239917770814
-1.1845800367918728,-3.6336834425497653,-2.461379689963429,1.1466891140567674
-1.2209168712173706,-3.5739260722421555,-2.4499127988228615,1.3173818930545789
-1.2566561319397922,-3.517513988716326,-2.436738979892316,1.4813216684377588
-1.2918312718269556,-3.4644854500116846,-2.421925763207938,1.6390267616697969
-1.3264761263270723,-3.414836943416088,-2.40553549559124,1.7910014875930236
-1.3606244957612332,-3.3685232585042044,-2.3876254807153097,1.937722818880135
-1.3943097283462753,-3.3254549567800664,-2.3682482525265085,2.0796260049966384
-1.427564277914076,-3.285492849701549,-2.3474519924765422,2.217088353426485
-1.4604192064110915,-3.248439062187105,-2.3252811089422774,2.3504103260244236
-1.4929035970329625,-3.214024274761984,-2.301777005682033,2.4797931314834227
-1.5250438397805823,-3.1818908646990156,-2.276979074367199,2.6053121843451814
-1.5568627484275726,-3.151571999051562,-2.250925952523747,2.7268862777464884
-1.5883784684180882,-3.1224674049280585,-2.223657089746282,2.844243263915272
-1.6196031424673687,-3.0938177222700545,-2.1952146571071296,2.9568846823619643
-1.6505413196900693,-3.0646811895593316,-2.16564581028351,3.064054336530539
-1.6811881315856627,-3.033918959775525,-2.135005266918205,3.1647193425868982
-1.7115273211834179,-3.0001982936686895,-2.103358073492336,3.2575762399140555
-1.7415293041201048,-2.962025289178169,-2.070782311093195,3.3410980505261523
-1.7711495570118865,-2.9178188436102945,-2.0373713305879337,3.4136381511958476
-1.8003277454479893,-2.8660326629427626,-2.003234949075975,3.473599948211627
-1.828988072077417,-2.805320260352872,-1.9684989495938587,3.519664777420509
-1.8570412746809457,-2.734719820966886,-1.9333023018196536,3.5510453731977596
-1.8843884728906146,-2.6538176272503575,-1.8977918480876759,3.5677072072233478
-1.9109266491631183,-2.562841234827411,-1.8621147760154424,3.5704900662768577
-1.9365550615113925,-2.4626462287220594,-1.8264098753526739,3.561080502985579
-1.961181523798613,-2.3545923603157926,-1.790799070322818,3.541830847501381
-1.9847274474017709,-2.2403417992652184,-1.7553807618478043,3.5154719823600886
-2.007130865394423,-2.1216347521028416,-1.7202260420242035,3.48479793777626
-2.028347212915451,-2.0000956572163373,-1.685378062646441,3.452396636491584
-2.0483481694876144,-1.8771020216849221,-1.650854096281525,3.4204708138237314
-2.0671191897044636,-1.7537220982061634,-1.6166493881432877,3.390756617212301
-2.084656410686525,-1.6307089858811123,-1.5827418219711646,3.3645214084743826
-2.100963500545336,-1.508531252371748,-1.5490966078864208,3.3426121144354997
-2.1160488130690536,-1.3874212740954788,-1.5156704867420658,3.325527358580361
-2.129923025810008,-1.2674276232112052,-1.4824152131562622,3.3134940724912445
-2.14259730204212,-1.1484634618800134,-1.4492802724313498,3.306537349064468
-2.15408193666092,-1.0303473142025699,-1.416214898940705,3.3045385619538217
-2.1643854098029456,-0.9128354012857447,-1.3831695133211668,3.3072807439681973
-2.173513763815803,-0.7956462200905895,-1.3500967058814848,3.3144823036009274
-2.181470226016709,-0.6784786609812687,-1.3169518828454756,3.3258209973478063
-2.1882550126265214,-0.5610250711360282,-1.2836936728719974,3.340950207909782
-2.193865263337882,-0.44298054082330507,-1.2502841707928996,3.3595093740373434
-2.198295068746115,-0.3240494704686536,-1.216689077052526,3.3811300939179776
-2.2015355634508014,-0.20395024805102163,-1.1828777761133462,3.4054390927283853
-2.203575065931312,-0.08241866365777185,-1.1488233851860623,3.432058955136767
-2.2043992525678897,0.040789478131857154,-1.1145027956346947,3.460607290024476
-2.2039913577865713,0.16589621768580173,-1.0798967227344498,3.490694816174854
-2.202332395609713,0.2930995410667902,-1.0449897745727013,3.5219227264154567
-2.1994014001990454,0.4225715674204642,-1.0097705473085468,3.5538795944531265
-2.1951756845248407,0.5544567262597616,-0.9742317513640155,3.5861380248125196
-2.189631117262243,0.688869872967251,-0.9383703711158903,3.618251204670381
-2.1827424185325706,0.8258943270039742,-0.9021878590691865,3.649749491224205
-2.1744834752625306,0.965579847525584,-0.8656903641569444,3.680137155056475
-2.164827676787275,1.1079405874421384,-0.8288889926063797,3.7088893952382183
-2.1537482709128537,1.2529530907733877,-0.7918000986539975,3.7354497428351485
-2.1412187400051197,1.4005544202029245,-0.754445601225646,3.7592279736691485
-2.1272131958030904,1.550640522272985,-0.7168533214889545,3.77959865655028
-2.1117067905803606,1.703064956507709,-0.6790573349234518,3.795900467770064
-2.0946761410152837,1.857638131361783,-0.6410983302457511,3.8074364045289943
-2.0760997597016657,2.0141272034181315,-0.6030239662004612,3.813475027270445
-2.0559584876674846,2.1722568056285736,-0.5648892159277568,3.8132528517428312
-2.034235919611199,2.3317107743894634,-0.5267566874103284,3.8059779942153944
-2.0109188118673043,2.4921350426185604,-0.4886969074681745,3.7908351459851457
-1.9859974614411187,2.6531418555865796,-0.45078855600832307,3.7669919147505397
-1.9594660428852528,2.8143154471233,-0.4131186368608177,3.7336065196026307
-1.93132288841402,2.9752192854109487,-0.37578257166479134,3.689836762845326
-1.9015706955599103,3.13540495987941,-0.33888420403633807,3.634850125833142
-1.8702166459611163,3.29442273439625,-0.3025357027780067,3.567834748554768
-1.8372724186171538,3.451833738489034,-0.266857355292459,3.4880109557741332
-1.8027540812322635,3.607223710176742,-0.23197724573471767,3.3946428891660263
-1.7666818441304961,3.7602181445800897,-0.1980308168430574,3.2870496991062144
-1.7290796626846952,3.910498646369191,-0.16516031985199525,3.1646156466775897
-1.6899746762210033,4.057820236912074,-0.13351416338521935,3.0267983720063683
-1.6493964738518825,4.202029335314327,-0.10324617966515566,2.8731345058290914
-1.6073761804987392,4.343082123743783,-0.07451483460686474,2.703241743945226
-1.5639453592613013,4.481063029177798,-0.04748241716741248,2.51681647516685
-1.5191347289695234,4.616203113232575,-0.02231425241574398,2.3136260575169887
-1.4729726978371978,4.748898264717504,0.0008220081594259056,2.093494877840115
-1.4254837151900226,4.879727238444708,0.021756956937827057,1.8562834078332677
-1.3766864428055756,5.009469775270895,0.040319791016159734,1.6018595854764706
-1.3265917450528666,5.1391252591599805,0.05633838687092444,1.3300620096703581
-1.2752004924612668,5.269932587136351,0.06963900696762802,1.0406546566487247
-1.2225011665899033,5.403392087172732,0.08004555353411527,0.7332731638797624
-1.168467245718176,5.541290301172567,0.08737828517291289,0.4073633117529651
-1.1130543427064503,5.68572803117098,0.09145191829044254,0.06211345283743608
-1.0561970623947405,5.839150789831243,0.0920730528188169,-0.3036151081262404
-0.9978055544964282,6.004377841183546,0.0890369017375545,-0.6913511797170224
-0.9377617760845927,6.184619663908198,0.08212338994038428,-1.1030522254437298
-0.8759155794455107,6.38346057113847,0.07109286768594697,-1.5410815323535907
-0.812080973734126,6.604756916880184,0.05568205236241106,-2.008049643008949
-0.7460334045653242,6.852349899607547,0.035601555932321574,-2.50637283821967
-0.6775099055692487,7.129395776716676,0.010537827550124876,-3.0372659541387934
-0.606215947802082,7.436951920696136,-0.01983483199126306,-3.5986568386206015
-0.5318464285951207,7.771233619954074,-0.05582140037746908,-4.181201032491198
-0.4541340923955799,8.118862856631427,-0.09763341070238106,-4.761460923178236
-0.37294546382926563,8.450235208365202,-0.14524801993416342,-5.292489650320108
-0.2884431117456136,8.714617899779796,-0.1981729164373645,-5.697053390258868
-0.20129693274781563,8.847518694747508,-0.25514345033995317,-5.878581229944389
-0.11282174580034054,8.801474549359037,-0.3139292626393971,-5.765740239046202
-0.024807000306750177,8.58451633108071,-0.3715866650298591,-5.368150535609011
0.06103816300405693,8.259913243891566,-0.4252681703859492,-4.776822934410127
0.1436372954429726,7.9018783178008505,-0.4730363997300505,-4.101001050634228
0.2226560786209811,7.559915665257482,-0.5140464102363927,-3.416273567415508
0.2982552352735559,7.255522217698192,-0.5482091459105478,-2.7586485229935986
0.3708104574505378,6.9930566571401735,-0.5757956311404838,-2.139393242921445
0.44074102402193954,6.7691908202827475,-0.5971895635696983,-1.5583802043196409
0.508432932224767,6.578005113981909,-0.6127733656128947,-1.0114601845000042
0.5742129833645861,6.413197770380565,-0.6228879674578948,-0.4937699978320139
0.6383449610683918,6.268889045554468,-0.6278256674362149,-0.0010116823921669238
0.7010338515239365,6.139833856130506,-0.6278357842601366,0.47015667543000134
0.7624321900852415,6.02141448820968,-0.6231342175058366,0.9220888971142788
0.8226463349673383,5.909568729278343,-0.6139133285346938,1.3562510672849057
0.8817420222601218,5.800713576511305,-0.6003508178618447,1.7733627708984319
0.9397491580252348,5.691684757918514,-0.5826171901528604,2.1735445362437296
0.99666600560442,5.579696121000003,-0.5608817447904231,2.556459643594746
1.05246296681442,5.462316684360505,-0.5353171483544756,2.921446913193501
1.107086133658025,5.337460986066315,-0.5061026792225406,3.2676436538437033
1.1604607435186882,5.2033878932751305,-0.47342624268410355,3.5940982877860517
1.2124946224514395,5.058703284673209,-0.43748525980624303,3.8998718319120655
1.2630816552981716,4.902362587356227,-0.39848654148712237,4.1841270593377144
1.312105281171734,4.733669878631211,-0.3566452708937452,4.446204028276132
1.3594419799580462,4.552271071038461,-0.31218323061098385,4.6856807978404715
1.4049646906684308,4.358139535495123,-0.2653264226325791,4.902418518776311
1.448546086023382,4.151553343472989,-0.216302237444816,5.096590624229743
1.490061619458112,3.9330640902424197,-0.16533633120251856,5.268696478368993
1.529392260360536,3.703457965908756,-0.11264936641882864,5.419560501638121
1.5664268400196237,3.463710338954928,-0.05845376140244743,5.550318422274708
1.601063943409173,3.2149355789943255,-0.0029505771797003477,5.662392854308832
1.6332132991991162,2.9583341452124228,0.053673351363387974,5.757460829658511
1.6627966406512404,2.6951390859720195,0.11124795965997308,5.837416181622445
1.6897480315109605,2.426564028232378,0.16962212147619754,5.904329766294505
1.7140136717932843,2.153754496267516,0.2286654191391426,5.960410410076385
1.7355512167559595,1.8777440218252088,0.28826952323990646,6.007969195845317
1.7543286569742116,1.5994160456931819,0.3483492151983596,6.049389272588826
1.7703228174311434,1.3194721319314362,0.40884310792424783,6.087102825404086
1.7835175387504578,1.0384065996193546,0.4697141361782887,6.123576199830756
1.7939016047466514,0.7564874113034445,0.5309498981765963,6.161303435777588
1.801466478859686,0.47374314749149293,0.5925629325343722,6.2028075792809405
1.8062039103346008,0.18995628430074712,0.6545910083271816,6.2506479639170935
1.8081034731776082,-0.0953360049943835,0.7170974879663525,6.307429901633847
1.8071501131276644,-0.38283032088512664,0.780171786982691,6.375810372394796
1.803321809918813,-0.6734279984849868,0.8439298907066389,6.4584884491549435
1.7965875299339633,-0.9681755784797057,0.9085147751981884,6.558160843441146
1.7869057741491663,-1.2681514059535355,0.9740963836325998,6.677408789314237
1.774224260089631,-1.5742582419445232,1.0408704715257422,6.818459365352671
1.7584816776701857,-1.8868569094636978,1.109055065179269,6.98272947670886
1.7396131085755486,-2.2051450878277974,1.1788823599463576,7.170016457554219
1.7175616576972708,-2.5261649582526675,1.2505825245218998,7.377167796175677
1.6923000081147441,-2.843368943642061,1.3243542024836565,7.596119986674375
1.6638663186783236,-3.144915483402806,1.4003154023504003,7.811525190167251
1.6324171638442955,-3.4125021382197565,1.4784306542520729,7.999058800514111
1.598292142462098,-3.6225502622617056,1.558421242257214,8.12690047885687
1.562066639839481,-3.7519090535846487,1.6396902470457826,8.16339478800332
1.5245475493036345,-3.78765319851,1.7213241949258158,8.09034781370183
1.4866710173185345,-3.734960593430106,1.8022276730628342,7.913731886544381
1.4493214113842334,-3.61557281820068,1.881364991928278,7.661558790969232
1.4131656832022266,-3.457591596392652,1.9579805798379704,7.370044891065113
1.3785897672383,-3.285328740412734,2.0316810287486216,7.070018409261249
