th1 (rad),w1 (rad/s),th2 (rad),w2 (rad/s),a1 (rad/s^2),a2 (rad/s^2)
2.4689185086145904,-1.576390966162698,4.745957868977069,3.0029297409224442,-0.14078872980680193,7.812501820836221
2.4531545989529633,-1.577798853460766,4.775987166386293,3.0810547591308066,-0.052621894853119515,7.926196851729315
2.4373766104183554,-1.5783250724092972,4.806797713977601,3.1603167276481,0.015354507735134006,8.029329638418098
2.4215933596942625,-1.5781715273319459,4.838400881254082,3.240610024032281,0.05604473893184911,8.113031891976272
2.405811644420943,-1.5776110799426273,4.870806981494405,3.3217403429520433,0.060597238030010284,8.166151817769412
2.390035533621517,-1.5770051075623273,4.904024384923925,3.4034018611297374,0.018199918946541768,8.174982221797991
2.3742654825458938,-1.5768231083728619,4.938058403535223,3.485151683347717,-0.08402101755288345,8.123123296857498
2.358497251462165,-1.5776633185483908,4.9729099203687,3.566382916316292,-0.26090794402241946,7.991601500615359
2.3427206182766813,-1.580272397988615,5.0085737495318625,3.6462989313224456,-0.528862083291217,7.759409089284754
2.326917894296795,-1.5855610188215272,5.045036738845087,3.723893022215293,-0.9049709007401449,7.404662871518159
2.31106228410858,-1.5946107278289288,5.08227566906724,3.797939650930475,-1.405527359243549,6.906581977535448
2.2951161768302906,-1.6086660014213643,5.120255065576544,3.8670054707058292,-2.0438482296472245,6.248417441306195
2.279029516816077,-1.6291044837178366,5.158925120283603,3.929489645118891,-2.8274320565310838,5.421290793825232
2.2627384719788988,-1.6573788042831474,5.198220016734791,3.9837025530571433,-3.754728951769778,4.428590139810353
2.246164683936067,-1.6949260938008452,5.238057042265363,4.0279884544552464,-4.8121019047812,3.290158080671146
2.2292154229980587,-1.7430471128486573,5.278336926809915,4.0608900352619575,-5.971852306220566,2.0451056714693365
2.2117849518695722,-1.802765635910863,5.318945827162535,4.08134109197665,-7.1922980780031445,0.7519181104552755
2.193757295510464,-1.8746886166908945,5.359759238082302,4.088860273081203,-8.42065089617251,-0.5151747867028632
2.175010409343555,-1.9588951256526195,5.4006478408131136,4.083708525214175,-9.59876333014367,-1.673698922725195
2.155421458087029,-2.054882758954056,5.441484926065256,4.066971535986923,-10.670862318321051,-2.6431669169355394
2.134872630497488,-2.1615913821372668,5.482154641425125,4.040539866817568,-11.591548314540367,-3.355764031894166
2.1132567166761156,-2.27750686528267,5.522560040093301,4.006982226498626,-12.332068769990531,-3.7648201416970433
2.090481648023289,-2.4008275529825753,5.562629862358287,3.9693340250816553,-12.883374571755926,-3.849031107298825
2.066473372493463,-2.529661298700135,5.602323202609104,3.930843714008667,-13.255526229108257,-3.6117808746179474
2.041176759506462,-2.6622165609912174,5.641631639749191,3.894725905262488,-13.474126447624792,-3.076393047066452
2.0145545938965497,-2.7969578254674654,5.680578898801816,3.8639619747918235,-13.575143210975478,-2.2790749704098703
1.986585015641875,-2.93270925757722,5.719218518549734,3.8411712250877246,-13.59957433468398,-1.2614608803448313
1.9572579230661027,-3.06870500092406,5.757630230800611,3.8285566162842763,-13.589029833133827,-0.064185546301035
1.926570873056862,-3.204595299255398,5.795915796963454,3.827914760821266,-13.582759254454766,1.2778013190627622
1.894524920064308,-3.3404228917999457,5.834194944571667,3.8406927740118935,-13.616173484371435,2.7381118181207316
1.8611206911463085,-3.47658462664366,5.872601872311786,3.8680738921931006,-13.720620634535864,4.300325505004888
1.8263548448798719,-3.6137908329890185,5.911282611233717,3.9110771472431494,-13.924073456250357,5.95842653408058
1.7902169365499816,-3.7530315675515222,5.950393382706149,3.970661412583955,-14.252412810442198,7.716773551325935
1.7526866208744665,-3.8955556956559443,5.990099996831988,4.047829148097215,-14.731082296062484,9.59002253752414
1.713731063917907,-4.042866518616569,6.03057828831296,4.143729373472456,-15.386995518180603,11.603326588418321
1.6733023987317415,-4.196736473798375,6.072015582047685,4.259762639356639,-16.250674144286997,13.793059881852377
1.6313350339937578,-4.3592432152412455,6.114613208441251,4.3976932381751626,-17.358671605832335,16.208265761004228
1.5877426018413454,-4.532829931299569,6.158590140823003,4.559775895785205,-18.756388318084802,18.91300115775343
1.5424143025283497,-4.720393814480417,6.204187899780855,4.748905907362739,-20.501394548493824,21.989708095573903
1.4952103643835455,-4.925407759965355,6.251676958854483,4.968802988318479,-22.667298652674038,25.54360684070152
1.445956286783892,-5.1520807464920955,6.301364988737667,5.224239056725494,-25.347898578007726,29.70767720858882
1.394435479318971,-5.405559732272173,6.353607379304922,5.521315828811383,-28.66048847215503,34.64658390659519
1.3403798819962494,-5.692164616993724,6.408820537593035,5.867781667877335,-32.74488497174529,40.554678404436146
1.283458235826312,-6.019613466711177,6.467498354271808,6.273328451921696,-37.748801566927696,47.63490492632729
1.2232621011592002,-6.397101482380454,6.530231638791025,6.749677501184968,-43.775329293417336,56.02460749043212
1.1592910863353956,-6.834854775314628,6.597728413802875,7.3099235760892896,-50.73270419340284,65.58433572870553
1.0909425385822493,-7.342181817248656,6.670827649563767,7.965766933376345,-57.95089848568419,75.3595102033452
1.0175207204097627,-7.921690802105498,6.750485318897531,8.719362035409796,-63.32254246644151,82.37413056632789
0.9383038123887077,-8.554916226769913,6.837678939251629,9.543103341073076,-61.86312511844056,79.60759327778173
0.8527546501210086,-9.173547477954319,6.9331099726623595,10.339179273850894,-45.25416270587646,55.348386001727256
0.7610191753414655,-9.626089105013083,7.036501765400868,10.892663133868167,-8.440863678035294,2.4505483416239455
0.6647582842913347,-9.710497741793436,7.14542839673955,10.917168617284407,35.3699515625414,-60.62443311137918
0.5676533068734003,-9.356798226168022,7.254600082912394,10.310924286170614,60.90226478904356,-98.49333104916009
0.4740853246117201,-8.747775578277587,7.3577093257741,9.325990975679014,62.897989673835525,-103.75029404172395
0.3866075688289442,-8.11879568153923,7.4509692355308905,8.288488035261775,53.71080575417567,-93.56578222681367
0.3054196120135519,-7.581687623997474,7.533854115883508,7.352830212993638,42.64241194667026,-80.86835297753049
0.22960273577357715,-7.1552635045307715,7.607382418013445,6.544146683218333,32.86013277464947,-70.06849814905104
0.15805010072826942,-6.826662176784277,7.672823884845628,5.843461701727823,24.848641921354936,-61.855563697481166
0.08978347896042664,-6.578175757570728,7.731258501862906,5.224906064753012,18.358753848581156,-55.897350400016606
0.024001721384719357,-6.394588219084916,7.783507562510437,4.665932560752846,13.040967564435105,-51.71430287110488
-0.03994416080612981,-6.264178543440565,7.830166888117965,4.148789532041797,8.602163384343095,-48.89330793125834
-0.10258594624053546,-6.178156909597134,7.871654783438383,3.6598564527292137,4.826400278004301,-47.113395021577944
-0.16436751533650681,-6.129892906817091,7.908253347965675,3.1887225025134343,1.5639533182191663,-46.127391316805024
-0.22566644440467773,-6.114253373634899,7.94014057299081,2.727448589345384,-1.283298397837324,-45.738610878149636
-0.28680897814102674,-6.127086357613272,7.967415058884264,2.2700624805638876,-3.7739155289450337,-45.78167152988624
-0.34807984171715944,-6.164825512902722,7.990115683689902,1.8122457652650252,-5.936033649494329,-46.108685104823536
-0.40972809684618666,-6.2241858493976645,8.008238141342552,1.35115891421679,-7.774591704960075,-46.58042550511951
-0.4719699553401633,-6.301931766447265,8.02174973048472,0.8853546591655947,-9.277750219874873,-47.062006176137245
-0.534989273004636,-6.3947092686460145,8.030603277076375,0.4147345974042223,-10.42333459416075,-47.42273407031034
-0.5989363656910961,-6.498942614587622,8.034750623050417,-0.0594927432988811,-11.185734025190765,-47.539745653748355
-0.6639257918369723,-6.61079995483953,8.034155695617429,-0.5348901998363647,-11.543192181415423,-47.30468266563575
-0.7300337913853676,-6.726231876653684,8.028806793619065,-1.0079370264927223,-11.48491004681691,-46.63210952355159
-0.7972961101519045,-6.8410809771218535,8.018727423354138,-1.4742581217282382,-11.01697468119931,-45.46782353809279
-0.865706919923123,-6.951250723933846,8.003984842136855,-1.928936357109166,-10.16599482241119,-43.79495391101293
-0.9352194271624614,-7.052910672157958,7.984695478565763,-2.366885896219295,-8.979581782539437,-41.63602990299361
-1.005748533884041,-7.142706489983353,7.961026619603571,-2.783246195249231,-7.523437801132947,-39.05007007500963
-1.0771755987838745,-7.217940867994683,7.933194157651078,-3.1737468959993276,-5.8756068521888,-36.124976104017506
-1.1493550074638212,-7.276696936516571,7.901456688691085,-3.534996657039503,-4.119107376235028,-32.96668024048924
-1.222121976828987,-7.317888010278922,7.86610672212069,-3.864663459444395,-2.3344519951920257,-29.687177799048232
-1.2953008569317763,-7.341232530230842,7.827460087526246,-4.161535237434878,-0.5933897966086193,-26.393578423641085
-1.3687131822340848,-7.347166428196928,7.785844735151898,-4.425471021671289,1.045297265307061,-23.179732499787217
-1.442184846516054,-7.336713455543857,7.741590024935185,-4.657268346669161,2.537721502493445,-20.12113552356337
-1.5155519810714926,-7.311336240518923,7.6950173414684935,-4.858479701904795,3.8548199659672786,-17.273011958869237
-1.5886653434766818,-7.2727880408592505,7.646432544449445,-5.031209821493487,4.980851676016457,-14.670942721836559
-1.6613932238852742,-7.2229795240990855,7.596120446234511,-5.177919248711853,5.911088851472763,-12.333179765133242
-1.7336230191262652,-7.1638686355843575,7.544341253747392,-5.301251046363186,6.64924055414019,-10.263823286168098
-1.8052617054821087,-7.097376230042956,7.49132874328376,-5.403889279224867,7.2049891289454395,-8.456212143597792
-1.8762354677825384,-7.025326338753501,7.437289850491512,-5.4884514006608445,7.591857828584232,-6.896096562095067
-1.9464887311700734,-6.949407760467659,7.382405336484903,-5.557412366281795,7.825497943263843,-5.564359781694979
-2.01598280877475,-6.871152781035021,7.326831212822086,-5.613055964098745,7.922396515862805,-4.439203438244381
-2.0846943365851,-6.791928815876393,7.270700653181098,-5.657447998481189,7.898957178752842,-3.4978065902484445
-2.152613624743864,-6.712939244088864,7.214126173196286,-5.692426064383673,7.770886603024905,-2.7175196139794138
-2.2197430171847525,-6.6352303780586155,7.157201912552449,-5.719601260523467,7.552816904056447,-2.0766746542291905
-2.2860953209653387,-6.5597022090180515,7.100005899947215,-5.740368007065759,7.258101667331964,-1.5550958447711125
-2.3516923430555194,-6.487121192344731,7.042602219876557,-5.7559189655134695,6.89873435346478,-1.1343840776828775
-2.416563554978967,-6.418133848810084,6.985043030221423,-5.767262806290298,6.485349371104094,-0.7980386297048478
-2.4807448934670675,-6.353280355099042,6.92737040215852,-5.775243192587347,6.027276405480404,-0.531464918149429
-2.544277697018058,-6.293007591044239,6.869617970232646,-5.780557841768841,5.532627037966113,-0.32190582449392363
-2.6072077729285006,-6.237681320664578,6.811812391814958,-5.78377690001378,5.00839924174651,-0.15832409515412513
-2.669584586135146,-6.187597328247112,6.7539746228148205,-5.785360140965322,4.460590212411258,-0.03125541614648599
-2.7314605594176173,-6.142991426122999,6.696121021405167,-5.785672695126787,3.894311502274491,0.06735431979488513
-2.792890473678847,-6.104048311100255,6.638264294453899,-5.784999151928838,3.3139028843274314,0.14431857207392884
-2.8539309567898496,-6.07090928225698,6.580414302934611,-5.783555966208099,2.7230430454008623,0.20538086093364202
-2.9146400496124194,-6.043678851802971,6.52257874327253,-5.781502157598763,2.1248563151120163,0.25538330429967754
-2.975076838130449,-6.022430288651851,6.464763721696542,-5.778948324555766,1.5220153438256139,0.29843129922722345
-3.0353011410169675,-6.007210135213595,6.406974238450984,-5.775964011563493,0.9168400728268161,0.3380537734007414
-3.0953732423691034,-5.9980417344853265,6.349214598335349,-5.772583473829486,0.3113935829340417,0.37735915591701163
-3.1553536597139566,-5.994927798655986,6.291488763597054,-5.7688098822703155,-0.2924244724245221,0.41918766256119155
-3.2153029377005167,-5.997852043380232,6.233800664774351,-5.764618005644704,-0.8927861031809005,0.46626073629985165
-3.275281458134319,-6.006779904412041,6.1761544847179035,-5.759955398281705,-1.4878441513566456,0.5213285813345822
-3.3353492571784393,-6.021658345925608,6.118554930735087,-5.754742112468359,-2.0756417006529473,0.5873167105819649
-3.3955658406376954,-6.042414762932137,6.061007509610403,-5.748868945362539,-2.654021107445979,0.6674723055084312
-3.455989988267017,-6.068954974006597,6.003518820156778,-5.742194222307455,-3.2205321376223544,0.765510960730221
-3.5166795380070828,-6.101160295382821,5.946096877933703,-5.734539112700152,-3.772338841939107,0.8857640342098058
-3.577691140960911,-6.138883683802212,5.888751486806702,-5.725681472358054,-4.30612501834284,1.0333263108937845
-3.639079977798933,-6.1819449339856405,5.831494672083121,-5.715348209249116,-4.817998427660998,1.2142029588637668
-3.7008994271387894,-6.23012491826225,5.77434118999063,-5.703206179660478,-5.303394397550747,1.4354537385239146
-3.763200676321412,-6.283158862237758,5.717309128194025,-5.688851642275239,-5.756980132785393,1.7053310218273812
-3.8260322649437897,-6.340728663565612,5.660420611771273,-5.671798332056965,-6.172562030654498,2.033406272994963
-3.889439551579446,-6.4024542838721565,5.603702628450703,-5.651464269327016,-6.542999681870176,2.4306770972906966
-3.9534640944181674,-6.467884280690859,5.547187985757433,-5.627157498354109,-6.860132144190825,2.9096436292824803
-4.018142937225076,-6.536485602132767,5.490916410773892,-5.598061062061284,-7.114724649076397,3.4843387578512335
-4.083507793246404,-6.60763284862353,5.434935800153279,-5.563217674482772,-7.296447286430291,4.170291356960993
-4.149584121732639,-6.680597321487833,5.379303623408451,-5.521514760913162,-7.39390153096058,4.9843952844824875
-4.216390094947517,-6.75453633679744,5.32408847579932,-5.471670808068337,-7.394715772532179,5.944649587936258
-4.283935458315492,-6.828483494522762,5.269371767718637,-5.412224312188974,-7.285737173441581,7.0697276132746785
-4.35222029326072,-6.901340866257177,5.2152495245967465,-5.3415270360562275,-7.053353771778895,8.378325601605258
-4.421233701923292,-6.971874403974966,5.161834254236184,-5.257743780040175,-6.683986842152743,9.888236773549096
-4.490952445963042,-7.0387142723964935,5.109256816435782,-5.1588614123046845,-6.164797391143209,11.61509791725879
-4.561339588687007,-7.100362246307926,5.057668202312735,-5.042710433132097,-5.484649507774944,13.570766669755914
-4.632343211150086,-7.1552087413856755,5.007241097981414,-4.9070027664345375,-4.6353630246439135,15.761315117214853
-4.7038952985639435,-7.201562371632114,4.958171070317069,-4.749389615262389,-3.6132632869013466,18.18467618548304
-4.775910922280264,-7.237695004501128,4.910677174164444,-4.567542853407559,-2.4209910268588866,20.828060139595813
-4.848287872325275,-7.261904914769716,4.8650017456303685,-4.359262252011601,-1.0694660565842917,23.665372123302806
-4.920906921472972,-7.272599575335559,4.821409123110253,-4.122608530778573,0.42019484106996796,26.65500170568872
-4.993632917226328,-7.26839762692486,4.780183037802467,-3.8560585137216856,2.0151128026040213,29.738499752811283
-5.066316893495576,-7.24824649889882,4.74162245266525,-3.558673516193573,3.669838416263941,32.84076317642243
-5.138799358484564,-7.21154811473618,4.706035717503314,-3.2302658844293486,5.326749288252309,35.87235009657229
-5.2109148396319265,-7.158280621853657,4.67373305865902,-2.8715423834636256,6.918045943367042,38.73437544473392
-5.282497645850463,-7.089100162419987,4.645017634824384,-2.4841986290162863,8.36953507631616,41.3260428168364
-5.353388647474663,-7.005404811656826,4.620175648534222,-2.0709382008479222,9.606033057829302,43.55427319338982
-5.423442695591231,-6.9093444810785325,4.599466266525742,-1.635395468914024,10.557772892281658,45.344219695436244
-5.4925361404020165,-6.803766752155716,4.583112311836603,-1.1819532719596615,11.166786425571294,46.64893341741438
-5.560573807923574,-6.692098887900003,4.571292779117006,-0.7154639377855176,11.392029176064348,47.45631922008916
-5.627494796802574,-6.5781785961393595,4.564138139739151,-0.24090074558462599,11.212145984901472,47.7919447951877
-5.693276582763967,-6.4660571362903445,4.561729132283305,0.23701870236725103,10.625248163695371,47.71718328833639
-5.7579371541268705,-6.359804654653391,4.564099319306977,0.714190535250615,9.64574242377144,47.32329573481077
-5.821535200673404,-6.263347230415676,4.571241224659484,1.1874234925987228,8.298879523194158,46.723003530952525
-5.884168672977561,-6.180358435183734,4.58311545958547,1.6546535279082482,6.6140582915462325,46.04155538425794
-5.945972257329398,-6.114217852268272,4.599661994864553,2.1150690817508275,4.617933877037289,45.4091757794936
-6.007114435852081,-6.068038513497899,4.620812685682061,2.5691608395457637,2.328093058841661,44.956244882059956
-6.06779482098706,-6.044757582909482,4.646504294077519,3.0187232883663633,-0.25237341095640603,44.811874026965064
-6.128242396816154,-6.0472813170190465,4.676691526961182,3.4668420286360138,-3.1394846484088506,45.1059460067517
-6.188715209986345,-6.078676163503135,4.7113599472475425,3.9179014887035306,-6.372518011130998,45.97428647974706
-6.249501971621377,-6.142401343614445,4.750538962134578,4.377644353501001,-10.018054371242645,47.56633415853485
-6.310925985057521,-6.242581887326871,4.794315405669588,4.853307695086349,-14.173871149193555,50.05414416864307
-6.37335180393079,-6.384320598818807,4.842848482620451,5.35384913677278,-18.971320369257366,53.639979224177175
-6.437195009918978,-6.57403380251138,4.896386973988179,5.890248929014552,-24.57129247960974,58.55514780042409
-6.502935347944091,-6.819746727307478,4.955289463278325,6.475800407018793,-31.139611291739666,65.03017870318712
-6.571132815217166,-7.131142840224874,5.020047467348513,7.126102194050665,-38.76392805427188,73.18353333896661
-6.642444243619415,-7.518782120767593,5.09130848928902,7.857937527440331,-47.216022266265945,82.69499622942274
-6.71763206482709,-7.990942343430253,5.169887864563423,8.684887489734558,-55.34073095650388,91.95816302284197
-6.797541488261393,-8.544349652995292,5.256736739460768,9.604469119962978,-59.71300372716645,96.20971119598671
-6.882984984791346,-9.141479690266957,5.352781430660398,10.566566231922845,-52.71591730880148,84.84635299194716
-6.974399781694015,-9.668638863354971,5.458447092979626,11.415029761842316,-23.895974780495703,43.32518905112036
-7.071086170327565,-9.907598611159928,5.572597390598049,11.848281652353519,25.768365311933493,-26.880572116921865
-7.170162156439164,-9.649914958040593,5.691080207121584,11.5794759311843,68.99435923994464,-87.609571958552
-7.26666130601957,-8.959971365641147,5.806874966433427,10.70338021159878,82.62393855493197,-106.72294466609083
-7.356261019675981,-8.133731980091827,5.913908768549415,9.636150764937872,75.59615022205186,-96.90829073088337
-7.437598339476899,-7.377770477871309,6.010270276198794,8.667067857629037,63.25755162235697,-79.59442817131011
-7.511376044255613,-6.745194961647739,6.096940954775084,7.871123575915936,52.053160705127794,-63.73040297457334
-7.57882799387209,-6.224663354596461,6.175652190534243,7.233819546170203,43.231470419794796,-51.03515062467743
-7.641074627418055,-5.792348650398513,6.247990385995945,6.723468039923429,36.5419520456967,-41.15253623077369
-7.69899811392204,-5.426929129941547,6.315225066395179,6.311942677615692,31.500865650902302,-33.4062791235028
-7.753267405221456,-5.111920473432524,6.378344493171336,5.977879886380664,27.693181354221657,-27.216316979392623
-7.804386609955781,-4.834988659890307,6.438123292035143,5.705716716586737,24.81074622572885,-22.15104403496276
