th1 (rad),w1 (rad/s),th2 (rad),w2 (rad/s)
4.978901757046107,0.32696843905235745,0.08483253858774326,0.49931733188905664
4.9821714414366305,0.42518295323089667,0.08982571190663383,0.47221658770731006
4.986423270968939,0.5232519286694532,0.09454787778370692,0.44409381536711656
4.991655790255634,0.6211925477248788,0.09898881593737809,0.41466320297849624
4.997867715732883,0.7190228313638475,0.10313544796716305,0.38364059836718606
5.005057944046522,0.81676287420355,0.10697185395083492,0.3507433623428306
5.013225572788557,0.9144361389287576,0.11047928757426323,0.31569019488860367
5.022369934177845,1.0120708232465356,0.11363618952314927,0.27820091105022265
5.03249064241031,1.1097013124483104,0.11641819863365149,0.23799614130872887
5.043587655534793,1.2073697307183056,0.11879816004673878,0.19479692895996503
5.055661352841976,1.3051276045625821,0.12074612933633842,0.14832419458219206
5.068712628887601,1.403037652123051,0.12222937128216034,0.09829803517966382
5.082743005408831,1.5011757126437208,0.12321235163395698,0.04443682323230336
5.097754762535269,1.5996328308749914,0.12365671986628002,-0.013543931060301342
5.113751090844019,1.6985175115467233,0.123521280555677,-0.07593299215722252
5.130736265959486,1.797958158872717,0.12276195063410478,-0.14302512362012232
5.148715847548213,1.8981057147885383,0.12133169939790356,-0.21512315923036956
5.167696904696099,1.9991365063113695,0.11918046780559986,-0.2925404485681756
5.187688269759213,2.1012553054858243,0.11625506331991811,-0.375603691679391
5.208700822814071,2.204698592344017,0.1124990264031242,-0.46465615426830936
5.230747808737512,2.309737988187353,0.10785246486044112,-0.5600612158959566
5.253845188619385,2.4166837870060007,0.10225185270148154,-0.662206139943007
5.278012026489445,2.5258884470860568,0.09562979130205147,-0.7715058515468601
5.303270910960306,2.637749797258767,0.08791473278658288,-0.8884063463453747
5.3296484089328935,2.7527135384806716,0.07903066932312913,-1.0133870943382548
5.3571755443177,2.871274343624862,0.06889679837974658,-1.14696139623995
5.385888287753948,2.993974418121963,0.05742718441734708,-1.2896730123904812
5.415828031935168,3.12139769278326,0.04453045429344227,-1.4420863924819523
5.447042008863001,3.2541567467552444,0.030109590368622745,-1.6047663050292411
5.479583576330553,3.392867918309761,0.014061927318330333,-1.778240341408493
5.513512255513651,3.5381076158131384,-0.003720476095754599,-1.9629343205783407
5.548893331671782,3.690339341136103,-0.023349819301538007,-2.1590657063236316
5.585796725083143,3.8497962789849236,-0.04494047636477432,-2.3664736415108285
5.624294687872992,4.016298960258105,-0.0686052127798826,-2.5843568010520945
5.664457677475573,4.18898352520136,-0.09444878079040354,-2.810884907749375
5.706347512727587,4.365919109439897,-0.1225576298678973,-3.042654436259074
5.7500067038219855,4.5436151284315915,-0.15298417423048805,-3.273991150267186
5.795442855106302,4.716481990424186,-0.1857240857331599,-3.4961917073191033
5.842607675010544,4.8764357442218,-0.22068600280635092,-3.696977011324873
5.891372032452762,5.013020760888345,-0.2576557729195996,-3.860690142125056
5.941502240061645,5.114549809440907,-0.2962626743408502,-3.9699483204009804
5.992647738156054,5.170548394295788,-0.33596215754486,-4.009155536078536
6.044353222099012,5.174985647164136,-0.3760537129056453,-3.969139905475636
6.096103078570653,5.128726869319652,-0.4157451119604017,-3.850691803880644
6.14739034726385,5.039531895200526,-0.45425202999920816,-3.664614781420371
6.1977856662158555,4.919432776467071,-0.4908981778134119,-3.4280347994106677
6.246979993980526,4.781137201287118,-0.5251785258075186,-3.159288559462671
6.294791365993397,4.6353471392747485,-0.5567714114021453,-2.8740742997466535
6.341144837386145,4.4896940701413905,-0.5855121543996118,-2.583879493563756
6.386041778087559,4.348888772694873,-0.6113509493352494,-2.29613602038593
6.429530665814508,4.21539544530017,-0.6343123095391087,-2.0151346963420753
6.47168462026751,4.0901572020114,-0.6544636565025295,-1.7430292494516826
6.512586192287624,3.973176399540031,-0.6718939489970462,-1.4806469161818216
6.552317956283024,3.863918025323907,-0.6867004181588645,-1.2280557309088118
6.590957136536263,3.761568028245294,-0.6989809754679527,-0.9849298665638978
6.628572816818716,3.6651898625956245,-0.7088302741335917,-0.7507718577986728
6.665224715444672,3.573815231098874,-0.7163379927115784,-0.5250412627155627
6.700962867755661,3.486494382688951,-0.721588405338734,-0.30722495022988416
6.73582781158255,3.402322442144588,-0.7246606548410329,-0.09687204242561456
6.769851036003996,3.3204519960577175,-0.725629375265289,0.10639206988268723
6.803055555964574,3.240098089518622,-0.7245654545664622,0.3028638415960374
6.83545653685976,3.160539246637852,-0.7215368161505018,0.4927665340694365
6.867061929326138,3.081116578604839,-0.7166091508098075,0.6762588784821422
6.897873095112187,3.001232112329135,-0.7098465620249861,0.8534455804951054
6.927885416235479,2.9203469202817693,-0.701312106220035,1.0243885639516876
6.957088885438297,2.8379793086786096,-0.6910682205805182,1.1891182962499858
6.985468678525082,2.7537031358424056,-0.6791770376180184,1.347644796588084
7.013005709883506,2.6671462307765297,-0.6657005896521375,1.4999680779953182
7.039677172191272,2.577988830852873,-0.6507009088721843,1.64608786144511
7.065457060499801,2.4859619372811705,-0.6342400302577332,1.7860124531481834
7.090316679872613,2.390845485651959,-0.6163799057262515,1.9197667106999015
7.114225134729132,2.2924662388712562,-0.5971822386192525,2.047399049523337
7.137149797117845,2.190695326476185,-0.5767082481240191,2.1689874632121358
7.159056750382606,2.085445374487251,-0.5550183734918978,2.284644552569904
7.179911204127479,1.976667191433337,-0.5321719279661987,2.3945215794541386
7.199677876041813,1.8643459974022107,-0.5082267121716574,2.498811583137617
7.218321336015835,1.748497202745033,-0.4832385963402812,2.5977516184575733
7.235806308043285,1.6291617605121635,-0.4572610801557055,2.691624195924706
7.252097925648407,1.5064011311738197,-0.4303448381964584,2.780758023488571
7.267161936960145,1.3802919092614536,-0.4025372579615727,2.8655281670574606
7.280964856052759,1.250920169065764,-0.37388197629099806,2.9463557614216493
7.293474057743417,1.1183755905178636,-0.3444184186767816,3.0237074142200737
7.304657813648595,0.9827454272437622,-0.31418134453458085,3.0980944522901357
7.314485267921033,0.8441083772858682,-0.2832004000116795,3.170072161296777
7.322926351693892,0.7025284143946848,-0.25149967839871173,3.240239164805575
7.329951635837839,0.558048636054379,-0.21909728675065598,3.3092370762211307
7.335532122198383,0.41068518642773066,-0.18600491598844468,3.377750533495085
7.33963897406266,0.2604213225244928,-0.15222741065349382,3.4465076876995195
7.342243187287905,0.10720171661086131,-0.11776233377649863,3.5162811550625745
7.343315204454013,-0.04907286297349389,-0.08259952222587288,3.5878893458454346
7.342824475824278,-0.2085502617965825,-0.04672062876741854,3.6621979331327346
7.340738973206312,-0.3714306580608052,-0.010098649436091192,3.7401209893211225
7.3370246666257035,-0.5379686584387311,0.027302560457120033,3.8226209490681398
7.331644980041316,-0.7084727366672158,0.06552876994780144,3.910705978704389
7.324560252674644,-0.883300341581334,0.10463582973484534,4.005422427166448
7.31572724925883,-1.0628460029895526,0.1446900540065098,4.107838628659019
7.305098789228935,-1.2475182319799532,0.1857684402931,4.219014174793072
7.292623606909135,-1.4376987206250091,0.22795858204103073,4.339945549113206
7.278246619702885,-1.6336740532979792,0.2713580375321628,4.471474366679424
7.261909879169905,-1.8355257338384496,0.31607278119895704,4.614138198755067
7.243554621831521,-2.0429592173769087,0.36221416318650773,4.767936612740856
7.223125029657752,-2.2550486674541053,0.4098935293139163,4.931979146266501
7.200574542983211,-2.469876492252518,0.45921332077658134,5.103984584112047
7.175875778060686,-2.6840667215534033,0.5102531666177018,5.27962795413381
7.149035110845151,-2.8922688887293773,0.56304944615904,5.451811012060325
7.120112421957858,-3.0867671815561417,0.6175675562796432,5.610096046504739
7.089244750142297,-3.257563489642755,0.6736685167446906,5.740785949420336
7.056669115245869,-3.393409597401578,0.731076376238894,5.82831322147157
7.022735019271853,-3.4840841720527007,0.7893595084536097,5.858356332428845
6.987894177551326,-3.5234734675291146,0.8479430717778982,5.822082515062506
6.952659442876035,-3.512012615462506,0.9061638969285233,5.719525150795615
6.91753931672141,-3.4568649188391536,0.9633591484364794,5.559852887046119
6.8829706675330184,-3.3695692960330765,1.0189576773069406,5.358159931739456
6.849274974572688,-3.26262995519841,1.0725392766243351,5.130814376828242
6.816648675020704,-3.1468620926042425,1.1238474203926176,4.8918586413688265
6.785180054094662,-3.0302457936215768,1.172766006806306,4.651482287223774
6.754877596158446,-2.917970349491845,1.2192808296785438,4.416116344097499
6.725697892663527,-2.813026986707264,1.2634419931195189,4.189262606640559
6.697567622796455,-2.7168863349378154,1.3053346191859245,3.972424714842015
6.670398759447076,-2.6300559402999,1.3450588663343446,3.765866149504169
6.644098200044078,-2.5524755922262434,1.3827175278293862,3.569142304655923
6.618573444121815,-2.483774761090857,1.4184089508759454,3.381443132864705
6.593735696510906,-2.423430996182391,1.4522233822045925,3.2018012040729706
6.569501386549082,-2.3708630150821537,1.484241394245322,3.029211993134806
6.545792756398261,-2.325482825457093,1.5145335141766703,2.862699813708092
6.52253792814369,-2.286722985464112,1.5431605123137513,2.70135129973724
6.499670698289049,-2.254049168730811,1.5701740253111236,2.5443301212063405
6.477130206601741,-2.226964272392333,1.595617326523187,2.3908812370728074
6.454860563877817,-2.20500782577448,1.619526138893915,2.240329614474835
6.432810485620073,-2.1877529303101446,1.6419294350386635,2.0920762826986836
6.410932956316971,-2.174802036278611,1.6628501978656502,1.94559335164843
6.3891849359541855,-2.1657823079478318,1.6823061313821346,1.8004188880495022
6.367527112874707,-2.1603410002681485,1.7003103202626295,1.6561521087921964
6.3459237028720255,-2.158141077887401,1.7168718413505515,1.5124490978641905
6.324342292093151,-2.158857196432744,1.7319963323291934,1.3690191078038059
6.302753720128823,-2.1621721037218222,1.7456865234072314,1.2256214246171562
6.281131999091605,-2.1677734848518386,1.757942737653403,1.0820627305466526
6.259454264243087,-2.1753512578707115,1.7687633649588694,0.9381948765571915
6.23770075166438,-2.1845953186147327,1.7781453137244414,0.7939129669254439
6.215854798478232,-2.195193729836521,1.7860844433936958,0.6491536567028138
6.1939028611798665,-2.2068313482401334,1.792575979960724,0.503893566159467
6.171834547697466,-2.2191888818751986,1.7976149156223187,0.35814772300161746
6.149642658878713,-2.2319423686066666,1.801196392852335,0.21196795231023186
6.127323235192646,-2.244763063625153,1.8033160723754371,0.06544114526404268
6.104875604556395,-2.25731772007583,1.8039704838280775,-0.08131264959056733
6.0823024273556365,-2.2692692419811586,1.8031573573321718,-0.2281423548476004
6.059609734935825,-2.2802776830112337,1.8008759337836957,-0.37486824017166864
6.036806958105712,-2.290001558736551,1.797127251381979,-0.5212845583930923
6.013906942518347,-2.298099434276492,1.791914405798048,-0.667162440028237
5.990925948175582,-2.3042317442474367,1.7852427813977656,-0.8122530311189191
5.967883630733108,-2.308062798095381,1.7771202510865765,-0.9562908477277892
5.944803002752154,-2.309262921656073,1.7675573426092985,-1.0989973112990106
5.921710373535594,-2.3075106853669367,1.7565673694963084,-1.240084422866878
5.898635266681924,-2.30249517102765,1.7441665252676397,-1.3792585310270187
5.875610314971648,-2.2939182322406104,1.7303739399573694,-1.5162241486719688
5.852671132649242,-2.281496708333009,1.7152116984706498,-1.6506877764496684
5.829856165565912,-2.264964557171795,1.698704820706153,-1.7823616961731181
5.807206519994193,-2.244074878209417,1.6808812037444218,-1.9109677042080686
5.784765771212099,-2.2186018026591587,1.6617715267023412,-2.0362407622552796
5.762579753185507,-2.188342232226722,1.6414091190797884,-2.1579325499289848
5.740696330863241,-2.153117410746402,1.6198297935804986,-2.2758149091693545
5.719165156755777,-2.1127743139812276,1.5970716444888051,-2.3896831740308193
5.698037413615964,-2.0671868415709787,1.573174812748497,-2.499359380236976
5.677365545200254,-2.0162567917418888,1.5481812189461273,-2.604695346900033
5.657202977282835,-1.959914594298334,1.5221342654771268,-2.7055756181632384
5.6376038313398515,-1.8981197712319755,1.4950785092954944,-2.8019202458212575
5.618622633627532,-1.8308610878499576,1.4670593068372817,-2.893687386141304
5.600314022749032,-1.7581563516138647,1.4381224329758686,-2.980875676358398
5.5827324592328935,-1.6800518118951937,1.4083136762122845,-3.063526350026478
5.565931941113941,-1.5966211124994059,1.3776784127120199,-3.141725046972256
5.549965729988948,-1.5079637507842099,1.3462611622422973,-3.2156032742909906
5.534886092481106,-1.4142030028697152,1.3141051294993873,-3.2853394806352925
5.520744062452408,-1.3154832837715411,1.2812517346930343,-3.3511597175680787
5.507589229614693,-1.2119669237931276,1.2477401375173536,-3.413337879078296
5.495469560376762,-1.1038303572528616,1.2136067587265706,-3.4721955330748804
5.484431256804233,-0.9912597352680109,1.178884803395822,-3.5281013858818095
5.474518659451553,-0.8744459892614175,1.143603789537004,-3.5814704511779856
5.465774199558939,-0.7535793843518024,1.107789085025224,-3.6327630269628592
5.458238405715421,-0.6288436101150793,1.0714614547555956,-3.682483616460084
5.451949969614271,-0.5004094588329759,1.0346366185909948,-3.7311799600552273
5.446945875025941,-0.3684281370776865,0.9973248189904425,-3.7794423744240553
5.443261593655164,-0.23302424455267953,0.9595303952462019,-3.827903621470718
5.440931351209637,-0.09428843425399874,0.9212513590314947,-3.8772395536422164
5.4399884668670975,0.04773025949707871,0.8824789634950725,-3.9281708042007994
5.440465769462068,0.19303247291979223,0.8431972554530645,-3.9814658120061504
5.442396094191266,0.34167703188546183,0.803382597333003,-4.037945491072172
5.4458128645101205,0.4937900679046573,0.7630031424222813,-4.09848987559719
5.450750765189167,0.649574901379608,0.7220182436663094,-4.164047089264244
5.457246514202963,0.8093228944826687,0.680377772773667,-4.235644997139492
5.46533974314779,0.9734254862776834,0.6380213228022721,-4.314405885260519
5.475073998010567,1.1423875877525291,0.5948772639496669,-4.401564447974899
5.486497873888092,1.3168423911700644,0.5508616194699179,-4.498489189894588
5.499666297799792,1.497567357197264,0.505876727570972,-4.606706961283888
5.514641971371765,1.6855005384610378,0.4598096579581331,-4.727929543491335
5.531496976756376,1.881755210721224,0.41253036252321973,-4.86407961510626
5.550314528863588,2.08762852039035,0.36388956637215714,-5.0173103788893885
5.571190814067491,2.3045956251027664,0.31371646258326324,-5.190007370792774
5.594236770318519,2.5342730045239636,0.2618163888753355,-5.384750274052443
5.619579500363758,2.7783204950351625,0.20796888613481104,-5.60419305444564
5.6473627053141096,3.0382267358552304,0.15192695559035463,-5.8507861760012725
5.677744972672662,3.3148811690344955,0.0934190938303419,-6.126206567803704
5.710893784363007,3.607773514493794,0.03215702815230485,-6.430273366645352
5.7469715195079445,3.9135915714549507,-0.032145705514148665,-6.759027278333863
5.786107435222494,4.223985339232399,-0.0997359782974873,-7.101642033806309
5.828347288614818,4.522566407529481,-0.1707523986355504,-7.4362467293820025
5.873572952690113,4.78230151828161,-0.24511486592937043,-7.726246023477486
5.921395967872929,4.966655718254805,-0.3223773261641453,-7.921781950907112
5.971062525055477,5.039330703162437,-0.4015951456732164,-7.9730714215653204
6.021455832087102,4.982417068437346,-0.4813258598888696,-7.855387434338592
6.071280002771475,4.809843275926732,-0.5598797342322556,-7.587511769283593
6.119378435530742,4.560644662758915,-0.6357548519250915,-7.222314876380396
6.164984882158332,4.277862025616239,-0.7079780006888955,-6.817694813374599
6.207763502414494,3.993020398670203,-0.7761549488226415,-6.415462952426809
6.247693706401196,3.7234315971351664,-0.8403095783469096,-6.0379396447403035
6.284928022372548,3.4761909455104756,-0.9006889747943126,-5.693628606396646
6.319689931827653,3.252711730336919,-0.9576252608582791,-5.383490960636001
6.3522170491310215,3.0517621394431464,-1.011460170464639,-5.105087978479638
6.382734670525453,2.87111399202705,-1.0625110502494355,-4.854795689138496
6.4114458104457235,2.708334824603722,-1.1110590071408204,-4.628845833237428
6.438529158691761,2.5611284976821787,-1.1573474654731948,-4.423756703251335
6.464140443668583,2.4274571300517422,-1.201585032505708,-4.236473642904326
6.4884150149691004,2.305563897333847,-1.2439497689347514,-4.0643814014457265
6.511470653942439,2.193954632746912,-1.2845935829492086,-3.9052658147447428
6.533410200269908,2.0913651784626275,-1.323646241096656,-3.7572601273330566
6.554323852054535,1.9967264344828397,-1.3612188423699867,-3.618791116970609
6.574291116399363,1.9091319730485923,-1.3974067535396928,-3.4885308258392325
6.593382436129849,1.8278098375074028,-1.4322920617980852,-3.365355504833099
6.611660534504923,1.752098719528006,-1.4659456168464162,-3.24831160312782
6.629181521700203,1.681428139098185,-1.4984287328776944,-3.1365879763714
6.645995803091185,1.6153020737620565,-1.5297946126414084,-3.0294933243374027
6.662148823828805,1.5532854762424821,-1.5600895458847823,-2.92643791287089
6.67768167859123,1.4949931792276414,-1.5893539250134912,-2.826918752392032
6.692631610383507,1.440080765170947,-1.6176231125374114,-2.7305075373707512
6.707032418035216,1.3882370567861257,-1.6449281879111188,-2.6368407741927173
6.720914788603078,1.3391779524692637,-1.6712965956530461,-2.5456116308593955
6.73430656812777,1.2926413878773524,-1.6967527119616401,-2.456563130184576
6.747232982006543,1.2483832505658643,-1.721318343263486,-2.3694823805334604
6.759716814512202,1.2061741101242658,-1.7450131670688205,-2.2841955974910926
6.771778555613444,1.1657966531073942,-1.7678551230437314,-2.200563718897118
6.783436522144519,1.127043731689577,-1.7898607602327026,-2.1184784568042496
6.794706959461415,1.0897169487080316,-1.811045544800745,-2.0378586649661203
6.805604128948495,1.0536257108329738,-1.8314241314504063,-1.958646930789456
6.816140386056825,1.0185866871175975,-1.851010600758301,-1.8808063271920359
6.826326252928,0.9844236131635904,-1.8698186640302212,-1.804317283003124
6.836170489059636,0.9509673825231226,-1.8878618368602524,-1.7291745506372391
6.845680162884868,0.9180563675896605,-1.9051535823666248,-1.6553842667650227
6.854860726560765,0.8855369128412384,-1.921707425034275,-1.5829611154780203
6.863716095689178,0.8532639444915672,-1.9375370361890552,-1.5119256138492645
6.872248735134093,0.8211016428208756,-1.952656292327548,-1.44230154672975
6.880459751562301,0.7889241269701397,-1.9670793077948454,-1.3741135811049814
6.888348992832003,0.7566161068795976,-1.9808204436058952,-1.307385090530737
6.895915153900799,0.7240734632528756,-1.9938942945112026,-1.2421362174056594
6.903155888533328,0.6912037236992267,-2.0063156566852594,-1.1783821956105656
6.91006792577032,0.6579264112011252,-2.018099478641365,-1.1161319489660053
6.9166471898823305,0.6241732493550095,-2.029260798131025,-1.0553869727225118
6.922888922375881,0.5898882169987693,-2.0398146678582503,-0.9961404966127757
6.928787804545869,0.5550274524527776,-2.049776072824378,-0.938376919533046
6.934338079070397,0.5195590143050586,-2.0591598420197084,-0.8820714982639305
6.939533669213447,0.4834625111970955,-2.0679805570023477,-0.8271902662425766
6.944368294325418,0.4467286172494842,-2.0762524596647736,-0.7736901535644629
6.948835580497913,0.4093584925459537,-2.0839893612004183,-0.721519276276189
6.952929165423372,0.37136312950655836,-2.09120455396318,-0.6706173616307538
6.956642796718437,0.33276264614218465,-2.0979107275794875,-0.6209162762035421
