th1 (rad),w1 (rad/s),th2 (rad),w2 (rad/s),a1 (rad/s^2),a2 (rad/s^2)
3.370270741399989,1.940983686171419,5.4071897538694005,-1.1981637969047612,4.224870985189163,6.061442916225256
3.389680578261703,1.9832323960233105,5.395208115900353,-1.1375493677425086,4.217036198193777,5.811528935069887
3.409512902221936,2.025402758005248,5.383832622222927,-1.0794340783918097,4.221201115089979,5.557384357056012
3.4297669298019886,2.067614769156148,5.373038281439009,-1.0238602348212495,4.23745785174634,5.298234643380822
3.45044307749355,2.1099893476736113,5.362799679090797,-0.9708778883874414,4.2658742029035635,5.0331979344099285
3.4715429709702863,2.152648089702647,5.353090900206922,-0.9205459090433421,4.306511486478668,4.761300239166294
3.4930694518673127,2.1957132045674337,5.343885441116488,-0.8729329066516791,4.359440187918483,4.481486571312612
3.515026583912987,2.2393076064466184,5.3351561120499715,-0.828118040938553,4.424754035254664,4.19262854209828
3.5374196599774534,2.283555146799165,5.326874931640586,-0.7861917555175703,4.502583073030089,3.8935288109047197
3.560255211445445,2.328580977529466,5.31901301408541,-0.747256467408523,4.593106251052766,3.5829226902613143
3.5835410212207397,2.3745120400399937,5.311540449411325,-0.7114272405059099,4.696564002897793,3.259477105274335
3.6072861416211395,2.4214776800689717,5.304426177006266,-0.6788324694531666,4.813271259323255,2.921787017297868
3.631500918421829,2.4696103926622044,5.297637852311734,-0.6496145992801878,4.943631322847375,2.568369338114534
3.6561970223484512,2.5190467058906783,5.291141706318932,-0.6239309058990425,5.08815102075696,2.1976542838348263
3.681387489407358,2.5699282160982477,5.284902397259941,-0.6019543630606943,5.247457553384803,1.8079740478254098
3.7070867715683407,2.6224027916320956,5.278882853629335,-0.5838746225824402,5.422317460474503,1.3975486112250683
3.7333107994846615,2.676625966236841,5.273044107403511,-0.5698991364701895,5.613658137514804,0.9644684621909434
3.76007705914703,2.732762547611989,5.2673451160388085,-0.56025445184828,5.82259234073803,0.5066739686495481
3.7874046846231497,2.790988471019369,5.261742571520326,-0.5551877121617845,6.050446115373011,0.021931157292373583
3.8153145693333435,2.851492932173099,5.2561906943987085,-0.5549684005888608,6.298790552578776,-0.49219628405551413
3.8438294986550745,2.914480837698887,5.25064101039282,-0.5598903634294159,6.56947770318063,-1.0383788067412882
3.8729743070320635,2.980175614730693,5.245042106758525,-0.5702741514968288,6.864680813310104,-1.6195563229717982
3.9027760631793704,3.048822422863794,5.239339365243557,-0.5864697147265467,7.186938737309103,-2.23897621659787
3.9332642874080084,3.120691810236885,5.233474668096292,-0.6088594768925254,7.53920382798579,-2.900232267128909
3.9644712055103772,3.196083848516743,5.227386073327367,-0.6378617995638145,7.9248916437694295,-3.607301137039641
3.9964320439955445,3.2753327649544373,5.221007455331729,-0.6739348109342109,8.347929188710514,-4.364570488063895
4.029185371645089,3.3588120568415425,5.214268107222387,-0.7175805158148498,8.81279569934744,-5.1768485915657605
4.062773492213505,3.446940013835017,5.207092302064239,-0.7693490017305075,9.324545545152834,-6.049338516175864
4.097242892351855,3.5401854692865453,5.199398812046934,-0.8298423868922661,9.888795550054166,-6.987549081554856
4.13264474704472,3.639073424787087,5.191100388178011,-0.8997178777078146,10.511647279904802,-7.9970973493638935
4.169035481292591,3.744189897586135,5.182103209400933,-0.9796888512014535,11.199495929097262,-9.083329736266212
4.206477380268452,3.8561848568771078,5.172306320888918,-1.0705221485641156,11.958647338505836,-10.250645201429574
4.245039228837223,3.975771330262166,5.161601099403277,-1.1730286005784114,12.794617472298237,-11.501336142777618
4.284796942139844,4.103717504985148,5.149870813397492,-1.2880419620061876,13.710916383159633,-12.833659639408591
4.325834117189696,4.240826668816744,5.13699039377743,-1.4163785584002735,14.707012288529935,-14.238701415992896
4.368242383877863,4.387896791702044,5.122826608193427,-1.5587655725602025,15.775025688254695,-15.69539139370223
4.412121351794884,4.545647048584591,5.107238952467825,-1.715719486497225,16.894531890094903,-17.16279443944626
4.457577822280729,4.71459236748554,5.090081757602853,-1.8873474308916875,18.024722242740445,-18.568635587479232
4.504723745955585,4.894839589912944,5.071208283293936,-2.07303378676648,19.093296962482817,-19.793226121418726
4.553672141854714,5.085772559537773,5.050477945426271,-2.2709660479806675,19.98232811048596,-20.64924300080464
4.6045298674500925,5.285595840642633,5.027768284946465,-2.477458477988714,20.51388903827669,-20.86153381665526
4.657385825856519,5.4907347310254,5.002993700166577,-2.6860738161552664,20.443785756291167,-20.059099633813343
4.712293173166773,5.695172588588312,4.976132962005025,-2.8866648124934,19.480491179775086,-17.803961128815555
4.769244899052656,5.889977500386062,4.947266313880091,-3.0647044237815555,17.353329863202937,-13.691477849725446
4.828144674056516,6.063510799018092,4.9166192696422755,-3.20161920227881,13.942817286708237,-7.54058135777069
4.888779782046697,6.202938971885174,4.884603077619487,-3.277025015856517,9.435202930891668,0.380619766189384
4.950809171765549,6.297291001194091,4.851832827460922,-3.273218818194623,4.387235494910902,9.257700314935658
5.01378208177749,6.341163356143199,4.819100639278975,-3.1806418150452664,-0.4170440442244586,17.932274361602126
5.077193715338922,6.336992915700955,4.787294221128523,-3.0013190714292453,-4.280029865722236,25.353208297743564
5.1405636444959315,6.294192617043732,4.75728103041423,-2.74778698845181,-6.854540973705199,30.962711312626137
5.203505570666369,6.225647207306681,4.729803160529712,-2.4381598753255482,-8.179870131277784,34.758757153382
5.265762042739436,6.143848505993903,4.705421561776456,-2.090572303791728,-8.53254015375679,37.088963350774456
5.327200527799374,6.058523104456335,4.684515838738538,-1.7196826702839836,-8.25007403163244,38.399731896312005
5.387785758843938,5.976022364140011,4.667319012035699,-1.3356853513208635,-7.624641986282216,39.0809812431467
5.447545982485338,5.899775944277189,4.65396215852249,-0.9448755388893966,-6.869802324431756,39.41419630530531
5.50654374192811,5.831077921032871,4.644513403133597,-0.5507335758363434,-6.127144220567922,39.57832494779529
5.564854521138439,5.769806478827192,4.639006067375234,-0.1549503263583905,-5.485307008917097,39.67476193236808
5.6225525859267105,5.714953408738021,4.63745656411165,0.2417972929652903,-4.998135028996076,39.75236181057612
5.679702120014091,5.66497205844806,4.639874537041303,0.6393209110710515,-4.698068284693943,39.82659733073961
5.736351840598571,5.617991375601121,4.646267746152013,1.0375868843784475,-4.604841810872787,39.892706316242666
5.792531754354583,5.571942957492393,4.656643614995797,1.4365139475408741,-4.730657740717096,39.934317138865865
5.848251183929507,5.524636380085222,4.671008754471206,1.8358571189295327,-5.082985431249811,39.92909216918449
5.903497547730359,5.473806525772724,4.689367325660501,2.2351480406213775,-5.665859282674046,39.85254602769862
5.958235612988086,5.4171479329459835,4.711718806066715,2.6336735008983636,-6.480268775848152,39.6807999561706
6.012407092317546,5.352345245187502,4.738055541075699,3.03048150046007,-7.524037413642478,39.392730932062655
6.065930544769421,5.277104871051077,4.7683603560803,3.4244088097806964,-8.79146096951717,38.971765650064704
6.1187015934799325,5.189190261355906,4.802604444178106,3.814126466281343,-10.272899098867992,38.407432662860735
6.170593496093492,5.086461270367226,4.84074570884092,4.198200792909951,-11.954467900906655,37.69669960758757
6.221458108797164,4.96691659135816,4.882727716770019,4.575167788985826,-13.817949574341052,36.845071875719206
6.271127274710746,4.828737095614749,4.9284793946598775,4.943618507743018,-15.84100886114703,35.867405301261726
6.319414645666893,4.670327007003279,4.977915579737307,5.302292560755635,-17.997778263763927,34.788382975629254
6.366117915736926,4.49034922436564,5.030938505344864,5.650176390511928,-20.259841707330377,33.64262124925514
6.4110214079805825,4.287750807292336,5.087440269249983,5.98660260300448,-22.597608359353774,32.474398430377036
6.453898916053506,4.061774723698798,5.147306295280028,6.31134658730825,-24.982025403696532,31.33703638104503
6.494516663290494,3.811954469661833,5.210419761153111,6.6247169511187005,-27.386532212306395,30.292002299756522
6.532636207987112,3.538089147538769,5.276666930664298,6.9276369741162656,-29.789109203389966,29.407823571582167
6.5680170994625,3.2401980555048695,5.345943300405461,7.221715209832087,-32.17421929668651,28.758904315142253
6.600419080017549,2.9184558625380044,5.418160452503781,7.50930425298351,-34.53436515114628,28.424268561604514
6.629603638642928,2.5731122110265416,5.493253495033617,7.793546938599555,-36.870858572469565,28.486080634319535
6.655334760753194,2.204403625301846,5.571188964419613,8.07840774494275,-39.193149648146,29.02741339478486
6.677378797006212,1.812472128820386,5.651973041869041,8.368681878890598,-41.51555333497837,30.127966870552388
6.695503518294416,1.3973165954706022,5.735659860657947,8.669961547596122,-43.84917722080086,31.854931345268845
6.709476684249122,0.9588248232625936,5.822359476133908,8.98851086104881,-46.184827666415124,34.243293165828895
6.719064932481747,0.4969765465984423,5.912244584744396,9.3309437927071,-48.45892983910095,37.25455815178493
6.724034697947732,0.012387248207432755,6.005554022671467,9.703489374224949,-50.48837896913618,40.69405838081881
6.724158570429807,-0.4924965414839291,6.102588916413717,10.110429958033137,-51.85315530136305,44.056303837687345
6.719233605014967,-1.0110280944975596,6.203693215994049,10.550992996410011,-51.70877232475766,46.27013999312052
6.709123324069991,-1.5281158177451362,6.309203145958149,11.013694396341217,-48.566732822776345,45.3886605321696
6.69384216589254,-2.0137831459728996,6.419340089921561,11.467581001662912,-40.28880371701436,38.54947135608153
6.673704334432811,-2.4166711831430434,6.53401589993819,11.853075715223728,-24.936004536306708,23.073840513242406
6.649537622601381,-2.6660312285061103,6.6525466570904275,12.083814120356152,-3.02219095575308,-0.5372053637314415
6.622877310316319,-2.696253138063641,6.773384798293989,12.078442066718837,20.521924976375736,-25.993815761905022
6.595914778935683,-2.4910338882998837,6.894169218961178,11.818503909099787,38.782231998774506,-44.51545842787732
6.5710044400526835,-2.1032115683121386,7.012354258052175,11.373349324821014,48.46049297845308,-52.235604268779376
6.549972324369562,-1.6186066385276079,7.1260877513003855,10.85099328213322,51.13347336393669,-51.623467096867586
6.533786257984286,-1.1072719048882411,7.234597684121717,10.334758611164546,49.947173391232596,-46.945703301531736
6.522713538935403,-0.6078001709759151,7.337945270233363,9.865301578149229,47.20827121769138,-41.163456813344965
6.516635537225644,-0.13571745879900127,7.436598286014855,9.45366701001578,44.094950518562484,-35.68826785985239
6.5152783626376545,0.3052320463866236,7.531134956115014,9.096784331417256,41.08452222748728,-31.01998842269005
6.518330683101521,0.7160772686614965,7.622102799429186,8.786584447190355,38.31890866662269,-27.247938564853065
6.525491455788136,1.0992663553277233,7.70996864390109,8.514105061541825,35.80164945326211,-24.307276968507686
6.536484119341413,1.4572828498603445,7.795109694516508,8.271032291856748,33.48801649632266,-22.08906989445536
6.551056947840016,1.7921630148235712,7.877820017435075,8.050141592912194,31.3229157337874,-20.482092046162702
6.568978577988252,2.1053921721614453,7.958321433364198,7.845320672450567,29.25568171501316,-19.386067522171643
6.590032499709867,2.397948989311577,8.036774640088703,7.651459997228851,27.245125038310096,-18.7139099202808
6.614011989602983,2.670400239694678,8.113289240060992,7.464320898026043,25.260608278475036,-18.390247219626946
6.64071599199993,2.9230063224794285,8.187932449041252,7.280418425829773,23.281564657241585,-18.349112544324665
6.669946055224725,3.1558219690518445,8.26073663329955,7.096927300386526,21.296435982651957,-18.53185664535426
6.701504274915243,3.368786328878364,8.331705906303414,6.911608733932984,19.301407859383584,-18.885597101258682
6.735192138204027,3.5618004074722,8.400821993642744,6.722752762920397,17.29908214143224,-19.362226069132593
6.77081014227875,3.734791228886522,8.468049521271947,6.529130502229071,15.297141229564449,-19.9178887458175
6.808158054567615,3.8877626411821664,8.533340826294237,6.329951614770896,13.30703544748526,-20.51281061819881
6.847035680979436,4.020832995657019,8.596640342441946,6.124823508588908,11.342723383577912,-21.11134960030542
6.887244010936007,4.1342602294927975,8.657888577527835,5.913710012585854,9.419498230911202,-21.68216175336399
6.928586613230935,4.22845521180191,8.717025677653695,5.6968883950522144,7.552933683152363,-22.198388955514144
6.970871165348954,4.303984548633434,8.773994561604217,5.474904505497073,5.757978835799388,-22.637799705288675
7.0139110108352885,4.361564336991427,8.828743606659188,5.248526508444186,4.048223329350688,-22.982837509409816
7.057526654205203,4.402046570284934,8.88122887174363,5.018698133350088,2.435343308370929,-23.220552900619996
7.101547119908052,4.426400003368643,8.931415853077132,4.786492604343888,0.9287275665257246,-23.342413485677547
7.1458111199417385,4.435687279033901,8.97928077912057,4.553068469487112,-0.4647268674717432,-23.344000615190172
7.190167992732078,4.431040010359183,9.02481146381544,4.31962846333521,-1.7406683886219512,-23.224611035963118
7.234478392835669,4.413633326472963,9.068007748448792,4.087382352975578,-2.897217681617846,-22.986787527861978
7.278614726100399,4.384661149656785,9.108881571978548,3.8575144776969585,-3.934794384090799,-22.635804700107077
7.322461337596966,4.345313205815877,9.147456716755517,3.6311564306958877,-4.855870468360477,-22.179135644048984
7.365914469655125,4.2967545011322725,9.183768281062475,3.409365074255398,-5.664675817679312,-21.62592281941713
7.408882014666448,4.240107742955479,9.217861931805029,3.1931058460612265,-6.3668788012678235,-20.98647308624057
7.451283092096003,4.176438954942801,9.249792990265641,2.9832411151988207,-6.969261248829192,-20.271792733355813
7.493047481645431,4.106746342454509,9.27962540141763,2.7805231878652625,-7.47940349099234,-19.49317410290823
7.534114945069976,4.031952307544586,9.307430633296281,2.58559144683618,-7.905391370876804,-18.661841261564255
7.574434468145422,3.9528983938358175,9.333286547764644,2.3989730342205373,-8.255553562315484,-17.788658334017892
7.61396345208378,3.8703428582126627,9.357276278106848,2.2210864508803585,-8.538234302956651,-16.883900743631944
7.652666880665907,3.784960515183096,9.379487142615652,2.052247443444039,-8.76160386297564,-15.957086801193158
7.690516485817739,3.6973444765533396,9.400009617050092,1.8926765754321075,-8.933506776796257,-15.016864903727942
7.727489930583272,3.608009408785377,9.418936382804413,1.7425079263948282,-9.061346083896295,-14.070950065497215
7.763570024671126,3.5173959479464143,9.43636146206836,1.601798425739856,-9.152000542029167,-13.12610257580545
7.79874398415059,3.4258759425261225,9.452379446325759,1.4705373999818017,-9.211770952825912,-12.188141200815524
7.833002743575851,3.3337582329978632,9.467084820325578,1.3486559879736464,-9.24635131718754,-11.261983430672325
7.8663403259058295,3.2412947198259876,9.480571380205314,1.236036153666923,-9.260820445446463,-10.351705715552413
7.89875327310409,3.148686515371523,9.492931741741984,1.132519096511399,-9.259649809419352,-9.46061732799467
7.930240138257805,3.0560900172773295,9.504256932707097,1.0379129232314521,-9.246723766286637,-8.591342333659036
7.960801038430578,2.963622779614463,9.514636061939411,0.9519994998948618,-9.225368740519245,-7.74590506170099
7.9904372662267225,2.871369092209271,9.52415605693836,0.8745404492778519,-9.1983884626704,-6.925815370083823
8.019150957148815,2.779385207582567,9.532901461431138,0.8052822955770137,-9.168102887241911,-6.1321508501288235
8.046944809224641,2.687704178710148,9.540954284386908,0.7439607870757254,-9.136388912292558,-5.365633876105144
8.073821851011742,2.5963402895872227,9.548393892257666,0.690304448314674,-9.104721478130983,-4.626702062825002
8.099785253907614,2.505293074805913,9.555296936740813,0.6440374276864239,-9.074214017798075,-3.9155712424068243
8.124838184655673,2.414550934627932,9.561737311017678,0.6048817152623557,-9.045657562053474,-3.232290514788392
8.148983694001952,2.3240943590073972,9.567786128170301,0.5725588101144717,-9.019558065855527,-2.5767892750453107
8.172224637592025,2.2338987783488418,9.573511716271446,0.5467909173640186,-8.99617172549084,-1.9489163868779091
8.194563625375514,2.1439370610939332,9.578979625445086,0.5273017534952396,-8.97553820182537,-1.3484718693935105
8.216002995986454,2.0541816790756795,9.584252642980038,0.5138170348013045,-8.957511763412557,-0.7752316064997274
8.236544812777211,1.964606561441554,9.589390813328052,0.5060647187363072,-8.941790421921857,-0.2289656862032211
8.256190878391626,1.8751886572223355,9.594451460515415,0.503775061874275,-8.927943160172255,0.29054895981987877
8.27494276496385,1.785909225620613,9.599489211134157,0.5066805514724738,-8.915435358262686,0.7835209107005654
8.292801857220056,1.6967548720379861,9.604556016648882,0.5145157605794795,-8.903652513506723,1.2501408864530748
8.309769405940436,1.6077183469029188,9.609701174254676,0.5270171694440102,-8.891922331791122,1.690581941323857
8.325846589409466,1.5187991235850076,9.614971345949115,0.5439229888572488,-8.879535247137621,2.1050025304706352
8.341034580645315,1.4300037711136313,9.620410575837688,0.5649730141619551,-8.86576340691622,2.49355179656724
8.355334618356451,1.341346137044469,9.626060305979308,0.5899085321276275,-8.849878145221448,2.8563764715513864
8.368748079726895,1.2528473555922546,9.631959391300585,0.6184722968431414,-8.831165957884295,3.1936288470528975
8.381276553282818,1.1645356960134117,9.638144114269016,0.6504085853136704,-8.808942989663105,3.5054753321643273
8.392921910242952,1.0764462661167806,9.644648200122154,0.6854633386353137,-8.782568046450473,3.7921051857345542
8.40368637290412,0.9886205856522758,9.651502833508507,0.7233843904926592,-8.75145415115723,4.053739078525023
8.413572578760643,0.9011060441407035,9.658736677413433,0.7639217812779094,-8.71507866915579,4.290637204589695
8.42258363920205,0.8139552574491455,9.666375895226212,0.8068281533238064,-8.672992035614882,4.503106717736159
8.430723191776542,0.7272253370929967,9.67444417675945,0.851859220501168,-8.624825120926186,4.691508315326562
8.437995445147472,0.6409770858837349,9.68296276896446,0.8987743036544337,-8.570295270589051,4.85626182660369
8.44440521600631,0.5552741331778444,9.691950512001004,0.9473369219204706,-8.509211052171445,4.997850686224396
8.449957957338087,0.4701820226561299,9.701423881220208,0.9973154287827145,-8.441475735075743,5.116825187271274
8.454659777564649,0.3857672653053725,9.711397035508035,1.0484836806554272,-8.367089520477235,5.213804414528066
8.458517450217702,0.30209637010060014,9.72188187231459,1.1006217248007077,-8.286150531301303,5.2894767620303185
8.461538413918708,0.2192348647875871,9.732888089562596,1.1535164924210108,-8.198854568093635,5.344598943052146
8.463730762566584,0.13724631910665075,9.744423254486806,1.2069624818515323,-8.105493638624903,5.379993409789527
8.46510322575765,0.05619138272040171,9.756492879305322,1.2607624159494275,-8.006453279014655,5.396544117283981
8.465665139584853,-0.023873150069744845,9.769100503464816,1.3147278571222674,-7.902208703101688,5.395190593518861
8.465426408084156,-0.10289523710076172,9.78224778203604,1.368679763057456,-7.79331984462056,5.376920315385821
8.464397455713149,-0.18082843554696731,9.795934579666614,1.4224489662113142,-7.680425392126976,5.342759436872586
8.46258917135768,-0.2576326894682371,9.810159069328728,1.4758765605800401,-7.564235957086387,5.293761968263683
8.460012844462996,-0.333275049039101,9.824917834934528,1.528814180262677,-7.4455265577821,5.230997559038537
