th1 (rad),w1 (rad/s),th2 (rad),w2 (rad/s),a1 (rad/s^2),a2 (rad/s^2)
2.331566336733069,-1.810921632209023,5.2246297006674975,-1.4400665010802602,-5.835390194590413,2.079383910022943
2.3134571204109786,-1.869275534154927,5.210229035656695,-1.4192726619800309,-6.062363652181383,1.8819180473311343
2.294764365069429,-1.9298991706767408,5.196036309036895,-1.4004534815067196,-6.294928082037234,1.6754780072432571
2.2754653733626617,-1.9928484514971132,5.182031774221828,-1.383698701434287,-6.532391809254463,1.4613247709065014
2.2555368888476908,-2.058172369589658,5.168194787207486,-1.369085453725222,-6.773941897612327,1.2409485425018696
2.2349551651517943,-2.125911788565781,5.1545039326702335,-1.3566759683002032,-7.018617696369459,1.0161103640873097
2.2136960472661364,-2.1960979655294754,5.140937172987232,-1.3465148646593301,-7.265282326097644,0.7888869286804007
2.191735067610842,-2.268750788790452,5.127472024340639,-1.3386259953725261,-7.512592357364485,0.5617181557591571
2.1690475597229373,-2.343876712364097,5.114085764386914,-1.3330088138149345,-7.758966089825013,0.33745682280336337
2.145608792599296,-2.421466373262347,5.100755676248765,-1.3296342455869008,-8.002551033808166,0.1194192038179055
2.121394128866673,-2.5014918836004285,5.0874593337928955,-1.3284400535487217,-8.241191436191333,-0.08856475676764694
2.0963792100306686,-2.583903797962342,5.074174933257408,-1.3293257011163981,-8.47239698081384,-0.2821037145525492
2.0705401720510452,-2.6686277677704804,5.060881676246244,-1.3321467382619236,-8.693314133074903,-0.456202215718949
2.0438538943733406,-2.7555609091012294,5.047560208863625,-1.3367087604191132,-8.900701988809894,-0.6052262645405787
2.0162982852823284,-2.844567928989328,5.034193121259434,-1.342761023064519,-9.090914926223064,-0.7228811808020243
1.987852605992435,-2.9354770782515587,5.020765511028789,-1.3499898348725392,-9.259894839703916,-0.8022065711069107
1.9584978352099194,-3.028076026648598,5.007265612680063,-1.3580119005836082,-9.403176243326211,-0.8355940705900686
1.9282170749434333,-3.12210778908186,4.993685493674227,-1.3663678412895088,-9.51590804957869,-0.8148343146519672
1.8969959970526147,-3.2172668695776467,4.980021815261332,-1.3745161844360285,-9.592896324505556,-0.7312003002298556
1.8648233283568383,-3.3131958328227022,4.966276653416972,-1.3818281874383271,-9.628672747941701,-0.575574789638492
1.8316913700286113,-3.409482560302119,4.952458371542589,-1.3875839353347121,-9.617593799860533,-0.33862955674366724
1.7975965444255901,-3.505658498300724,4.938582532189241,-1.3909702309021488,-9.553975755294857,-0.011063888957698272
1.7625399594425828,-3.6011982558536726,4.92467282988022,-1.3910808697917258,-9.432270267792765,0.4160914004077189
1.726527976884046,-3.6955209585316005,4.910762021182302,-1.3869199557876486,-9.247284476676837,0.9511004228624301
1.68957276729873,-3.787993803298369,4.896892821624426,-1.3774089515590242,-8.994447959760805,1.6010787444120465
1.6516928292657462,-3.8779382828959768,4.883118732108835,-1.3613981641149038,-8.670126203289156,2.3714850335711204
1.6129134464367865,-3.9646395449288683,4.869504750467686,-1.3376833137791926,-8.27197629505371,3.265560397807576
1.5732670509874978,-4.047359307879406,4.856127917329895,-1.305027709801117,-7.799335033214263,4.2837377928361935
1.5327934579087037,-4.125352658211549,4.843077640231884,-1.262190331872755,-7.2536225010436475,5.423055846878017
1.4915399313265882,-4.197888883221985,4.830455736913156,-1.2079597734039749,-6.638735603499083,6.6766248657729355
1.4495610424943683,-4.264276239256976,4.818376139179116,-1.1411935247462455,-5.961396789071211,8.033206219054087
1.4069182801017985,-4.323890207147688,4.806964203931654,-1.0608614625557047,-5.231414528123845,9.476977331518814
1.3636793780303216,-4.3762043524289265,4.7963555893060965,-0.9660916892405166,-4.461806146551866,10.987559729320415
1.3199173345060322,-4.420822413894445,4.786694672413692,-0.8562160919473124,-3.6687329773930073,12.540382990636685
1.2757091103670877,-4.457509743668375,4.778132511494219,-0.7308122620409456,-2.8712053077386677,14.107439191111771
1.231134012930404,-4.486221796745761,4.77082438887381,-0.5897378701298279,-2.0905324333024007,15.65844818741372
1.1862717949629464,-4.507127121078786,4.764927010172512,-0.4331533882556907,-1.3495217367271188,17.16240464899523
1.1412005237521585,-4.520622338446057,4.760595476289955,-0.2615293417657384,-0.6714677622541402,18.589418432193447
1.095994300367698,-4.527337016068599,4.757980182872298,-0.07563515744380392,-0.0790121749133132,19.912700863862824
1.050720930207012,-4.528127137817732,4.75722383129786,0.12349185119482434,0.40701006157992037,21.11050443034439
1.0054396588288346,-4.524057037201933,4.758458749809808,0.3345968954982682,0.7686031815172737,22.16780608671237
0.9601990884568152,-4.516371005386761,4.7618047187647905,0.5562749563653919,0.9913887995763864,23.077544344980183
0.9150353784029476,-4.506457117390997,4.767367468328445,0.7870503998151938,1.065023127460769,23.841278342818377
0.8699708072290376,-4.495806886116389,4.775237972326597,1.0254631832433776,0.9831929375596989,24.469223797698536
0.8250127383678737,-4.485974956740792,4.785492604159031,1.270155421220363,0.7431862765199773,24.979718295726073
0.7801529888004658,-4.478543093975592,4.798194158371235,1.5199526041776237,0.34508703139697505,25.39825583391755
0.7353675578607098,-4.475092223661622,4.813393684413011,1.7739351625167992,-0.2093196910646761,25.756290535341062
0.6906166356240936,-4.477185420572268,4.831133036038179,2.03149806787021,-0.9178292131524295,26.09003332059758
0.6458447814183709,-4.486363712703793,4.851448016716881,2.292398401076186,-1.7791923999867512,26.43945485606049
0.600981144291333,-4.50415563670366,4.874372000727643,2.5567929496367907,-2.794518587687124,26.847673551167574
0.5559395879242963,-4.5321008225805315,4.8999399302240105,2.8252696851484664,-3.968680084967942,27.360862863131995
0.510618579698491,-4.571787623430211,4.928192627075495,3.098878313779786,-5.311734261877766,28.028770538937493
0.4649007034641889,-4.624904966048989,4.959181410213293,3.379166019169161,-6.8404161848133,28.905910835476917
0.418651653803699,-4.693309127897122,4.992973070404984,3.66822512752393,-8.579777686819645,30.05346670304084
0.3717185625247278,-4.779106904765319,5.029655321680224,3.9687597945543387,-10.565043503699206,31.54190425545249
0.3239274934770746,-4.884757339802311,5.069342919625767,4.284178837108864,-12.843690014382933,33.45420889103115
0.2750799200790515,-5.013194239946141,5.112184707996856,4.618720926019176,-15.477550758844965,35.88938908601746
0.22494797767959013,-5.16796974753459,5.158371917257048,4.97761481687935,-18.54423100001646,38.96519839814857
0.17326828020424423,-5.353412057534754,5.208148065425841,5.367266800860835,-22.13583173595224,42.81728303847814
0.11973415962889669,-5.5747703748942765,5.261820733434449,5.795439631245617,-26.34990643439915,47.58772582268884
0.06398645587995393,-5.838269439238268,5.319775129746906,6.271316889472505,-31.260323555525176,53.385903468256316
0.005603761487571239,-6.15087267479352,5.382488298641631,6.805175924155068,-36.83918823701433,60.18155903110463
-0.05590496526036397,-6.519264557163663,5.450540057883182,7.406991514466115,-42.76632422474028,67.54153203516557
-0.1210976108320006,-6.946927799411066,5.524609973027843,8.082406834817771,-48.00589106441397,74.04162297570097
-0.19056688882611128,-7.426986710055205,5.605434041376021,8.82282306457478,-50.015680218549804,76.16424732179489
-0.26483675592666334,-7.927143512240703,5.6936622720217684,9.58446553779273,-43.87275118239683,67.07544544070281
-0.34410819104907037,-8.365871024064672,5.789506927399696,10.255219992199757,-23.4435995147622,38.25486678288268
-0.42776690128971706,-8.600307019212295,5.892059127321693,10.637768660028584,11.235371924675976,-10.201313744112387
-0.51376997148184,-8.487953299965534,5.9984368139219795,10.53575552258746,45.72418834584748,-58.133378339274465
-0.5986495044814953,-8.03071141650706,6.103794369147854,9.954421739194714,63.279520333134116,-82.30408010322175
-0.678956618646566,-7.397916213175719,6.203338586539801,9.131380938162497,63.862221321213134,-82.82036725221883
-0.7529357807783231,-6.759293999963588,6.2946523959214264,8.30317726564031,56.8101760574533,-72.73870196598264
-0.820528720777959,-6.191192239389055,6.377684168577829,7.575790245980484,48.467860671337526,-60.85914753713815
-0.8824406431718496,-5.70651363267568,6.453442071037634,6.967198770609102,41.11184258330826,-50.31089373088443
-0.9395057794986064,-5.295395206842597,6.523114058743725,6.464089833300258,35.17039053800563,-41.66549602648265
-0.9924597315670324,-4.943691301462541,6.5877549570767275,6.0474348730354315,30.503899148055833,-34.715802290442596
-1.0418966445816578,-4.638652309981983,6.648229305807082,5.700276850131005,26.864147822991853,-29.109566405556283
-1.0882831676814775,-4.370010831752064,6.705232074308392,5.409181186075442,24.025150634230727,-24.52828242744104
-1.131983275998998,-4.129759325409757,6.759323886169146,5.163898361801032,21.808529000936588,-20.721043860991912
-1.1732808692530956,-3.911674035400391,6.810962869787157,4.956687923191113,20.07966262605899,-17.498754591859925
-1.2123976096070994,-3.710877409139801,6.860529749019068,4.781700377272514,18.738026561857286,-14.720800944752735
-1.2495063836984974,-3.523497143521228,6.908346752791793,4.634492367824987,17.708141078801944,-12.282907258456923
-1.2847413551337097,-3.3464157327332087,6.954691676470043,4.511663295240418,16.932420292040366,-10.10786974447919
-1.3182055124610417,-3.177091529812805,6.9998083094224475,4.410584597795626,16.365791243888843,-8.138950405175041
-1.3499764277591697,-3.0134336173739165,7.043914155400404,4.329195093743876,15.971671142505512,-6.335332784797039
-1.3801107639329089,-2.853716905948861,7.087206106337843,4.265841765895906,15.718922977994717,-4.669076120297593
-1.4086479329923975,-2.696527676168914,7.129864523996802,4.21915100469293,15.579511879842638,-3.123115334330986
-1.4356132097540866,-2.5407325573704873,7.172056034043731,4.18791985134962,15.52668800652976,-1.6899474046029037
-1.4610205353277914,-2.3854656773051897,7.213935232557227,4.171020377303591,15.533612111553655,-0.37070178993427993
-1.4848751921008434,-2.2301295561896533,7.255645436330263,4.167313359404249,15.572416301202312,0.8256810337638633
-1.50717648766274,-2.07440539317763,7.297318569924306,4.175570169741888,15.613753789716238,1.8834294849824575
-1.5279205415945163,-1.9182678552804677,7.339074271621724,4.194404464591712,15.626931582445135,2.781333996073952
-1.547103220147321,-1.7619985394560165,7.3810183162676415,4.222217804552452,15.580726900204398,3.4947697349647173
-1.5647232055418812,-1.6061912704539725,7.423240494313166,4.257165501902099,15.444946095211035,3.9984747420243445
-1.580785118246421,-1.4517418095018622,7.465812149332187,4.297150249322343,15.192681200715448,4.270047912344614
-1.5953025363414397,-1.2998149974947077,7.508783651825411,4.339850728445788,14.803055794981097,4.293901652598513
-1.6083006863163867,-1.1517844395448968,7.552182159109869,4.382789744971774,14.264056977266458,4.065145166082866
-1.6198185307118356,-1.0091438697722324,7.596010056559586,4.423441196632602,13.574884887291814,3.592667103329481
-1.6299099694095578,-0.8733950208993142,7.640244468525912,4.459367867665897,12.747197428005151,2.900636354803093
-1.638643919618551,-0.7459230466192627,7.684838147202571,4.488374231213927,11.804755214393893,2.0278314431657765
-1.6461031500847436,-0.6278754944753238,7.72972188951471,4.508652545645585,10.781291536693477,1.02464621920948
-1.6523819050294968,-0.520062579108389,7.774808414971166,4.51889900783768,9.71686738846544,-0.051809314790234276
-1.6575825308205807,-0.42289390522373466,7.819997405049543,4.518380914689778,8.653373198939606,-1.143589730828765
-1.6618114698728181,-0.3363601732343386,7.865181214196441,4.50694501738149,7.630051593484218,-2.1976136681233567
-1.6651750716051614,-0.2600596572994964,7.910250664370255,4.484968880700256,6.679859198464296,-3.1701361561642893
-1.6677756681781564,-0.19326106531485346,7.955100353177258,4.453267519138613,5.8271974390213845,-4.029356597316582
-1.669708278831305,-0.13498909092463962,7.999633028368644,4.412973953165447,5.087151174213271,-4.756047716694301
-1.6710581697405513,-0.08411757918250691,8.043762767900299,4.365413475998504,4.466027088434778,-5.342534515063011
-1.6718993455323763,-0.039457308298159126,8.087416902660284,4.311988130847874,3.962777561207527,-5.790599079238868
-1.6722939186153578,0.00017046731391614361,8.130536783968763,4.254082140055486,3.570849387797121,-6.1089226170465345
-1.6722922139422187,0.035878961191887354,8.173077605369318,4.19299291388502,3.280069515688894,-6.310561513014617
-1.6719334243303,0.06867965634877629,8.21500753450817,4.129887298754874,3.078308813551584,-6.410775271764507
-1.671246627766812,0.09946274448429213,8.256306407495718,4.065779546037229,2.9527957485330174,-6.425350808842325
-1.6702520003219692,0.1289907019696223,8.29696420295609,4.001526037948805,2.8910536125471618,-6.369437522915092
-1.668962093302273,0.15790123809509393,8.336979463335577,3.9378316627196543,2.8814983721810155,-6.256830025714541
-1.6673830809213221,0.1867162218169041,8.376357779962774,3.875263362462509,2.9137639159667628,-6.099602124126777
-1.6655159187031532,0.21585386097657172,8.4151104135874,3.814267341221241,2.978827574827275,-5.907992221649658
-1.6633573800933874,0.24564213672484447,8.453253086999611,3.7551874190047445,3.069001472488875,-5.6904530640537665
-1.660900958726139,0.2763321514497332,8.490804961189658,3.698282888364207,3.1778422522643495,-5.453797693921944
-1.6581376372116416,0.30811057397237673,8.527787790073301,3.6437449114249874,3.3000178669920808,-5.203392567314349
-1.655056531471918,0.34111075264229757,8.56422523918755,3.5917109857518437,3.4311578975907846,-4.943365092007332
-1.651645423945495,0.37542233161820543,8.600142349045068,3.54227733483177,3.567704200399036,-4.676805436571119
-1.647891200629313,0.4110993736221958,8.635565122393386,3.495509280466059,3.706771606818837,-4.405951479554738
-1.643780206893091,0.44816708969038416,8.670520215198046,3.4514497656705116,3.846023536185942,-4.132351827763384
-1.6392985359961871,0.4866273250522436,8.70503471285475,3.4101262473928777,3.983564237590919,-3.8570056488871587
-1.6344322627456647,0.5264629674281528,8.73913597532868,3.371556190904006,4.117847475280395,-3.5804802879432485
-1.6291676330713831,0.5676414421809568,8.772851537237718,3.3357513880245735,4.2476004242147685,-3.30300879188062
-1.6234912186495736,0.6101174464231045,8.806209051117964,3.3027213001057674,4.371761050477611,-3.0245699404075594
-1.6173900441853426,0.6538350569278806,8.839236264119021,3.272475600701692,4.489427103200192,-2.7449534458824933
-1.6108516936160637,0.6987293279598825,8.871961020126038,3.245026066242867,4.599814895683735,-2.463812823109087
-1.6038644003364648,0.7447274769167198,8.904411280788468,3.220387938011776,4.702226208868531,-2.1807081576742258
-1.5964171255672976,0.7917497390054051,8.936615160168586,3.1985808564350338,4.796021851054349,-1.8951406901867143
-1.5884996281772437,0.8397099575159486,8.968600968732936,3.1796294495331665,4.880600618693639,-1.6065808242756758
-1.5801025286020842,0.888515963702885,9.000397263228267,3.1635636412904096,4.955382604737321,-1.3144908799438164
-1.5712173689650553,0.9380697897502582,9.032032899641171,3.1504187324909716,5.019795983889001,-1.0183436603210743
-1.5618366710675526,0.9882677495891482,9.06353708696608,3.140235295887761,5.073266564672813,-0.7176376814643961
-1.551953993571661,1.0390004152358763,9.094939439924959,3.1330589190731173,5.115209536315923,-0.41190973014223764
-1.5415639894193023,1.0901525105990355,9.12627002911569,3.128939821771695,5.145022955751243,-0.10074526014379659
-1.530662464313312,1.1416027401565478,9.157559427333407,3.127932369170257,5.162082619011162,0.21621299058295848
-1.5192464369117464,1.1932235663466595,9.18883875102511,3.1300944990760864,5.165738044555471,0.5392578859659874
-1.5073142012482799,1.2448809467922142,9.22013969601587,3.135487077935746,5.155309366166014,0.8686120933643651
-1.4948653917803578,1.2964340404538743,9.251494566795229,3.1441731988693897,5.130084992145127,1.2044234869135
-1.481901051375819,1.3477348903753257,9.282936298783923,3.156217433738525,5.089319937484333,1.5467617014686037
-1.4684237024720659,1.398628089750169,9.314498473121308,3.171685050753211,5.032234777824225,1.8956158396517262
-1.4544374215745641,1.4489504375284112,9.34621532362884,3.1906412091497285,4.958015209402916,2.250893381428154
-1.43994791719928,1.4985305896224403,9.378121735720338,3.21315014296401,4.865812228407282,2.612420387401009
-1.4249626113030556,1.547188711906513,9.410253237149979,3.23927434683802,4.7547429664675,2.979943124826458
-1.4094907241839905,1.594736141571188,9.442645980618359,3.269073778086285,4.623892236425666,3.353131280040076
-1.3935433627682785,1.6409750639354448,9.475336718399221,3.3026050908866855,4.472314853638925,3.7315829530151188
-1.3771336121289242,1.685698212471834,9.508362769308087,3.3399209204168367,4.299038802383638,4.114831659278588
-1.3602766300042057,1.7286886004956705,9.541761978512255,3.3810692370096227,4.103069313655938,4.502355591214774
-1.342989743999249,1.76971929363223,9.575572670882352,3.4260927929217706,3.8833939089265836,4.893589414426586
-1.3252925510629268,1.8085532327214957,9.60983359881157,3.4750286870660365,3.638988443255407,5.287938894593644
-1.3072070187357119,1.8449431171540498,9.644583885682229,3.5279080760119728,3.36882414968533,5.684798665244058
-1.2887575875641715,1.8786313586509031,9.679862966442348,3.5847560626644133,3.071875644255522,6.083573455972145
-1.2699712739776625,1.9093501150934584,9.715710527068993,3.6455917972241347,2.74712979684698,6.4837031027181515
-1.250877772826728,1.9368214130619281,9.752166445041233,3.7104288282513163,2.393595307466883,6.884691655574116
-1.2315095586961087,1.960757366136597,9.789270733323747,3.7792757448070575,2.0103127513331795,7.2861408839930775
-1.2119019850347428,1.9808604936499288,9.827063490771817,3.8521371536469884,1.5963647711955222,7.687788453062906
-1.1920933800982434,1.996824141361884,9.865584862308287,3.9290150381776177,1.1508860052361267,8.089551006376599
-1.1721251386846245,2.008333001414245,9.904875012690063,4.0099105482413835,0.6730722492860353,8.4915723393418
-1.152041808670482,2.0150637239071054,9.944974118172476,4.094826271634801,0.16218827155312843,8.894276778956712
-1.131891171431411,2.016685606622637,9.985922380888825,4.1837690394243685,-0.382426360771609,9.298427797583317
-1.1117243153651848,2.012861343014921,10.027760071283069,4.2767533174002015,-0.9613541024592529,9.705191770677002
-1.0915957019350355,2.0032478019903284,10.070527604457071,4.373805235106971,-1.5750995104561551,10.116206626402535
-1.0715632239151323,1.9874968068857668,10.114265656808142,4.474967301370997,-2.224093042432938,10.533654901033367
-1.0516882558462746,1.9652558764614374,10.159015329821852,4.5803038503813305,-2.9086987187701205,10.960340359860826
-1.0320356970816602,1.936168889273736,10.204818368325665,4.689907253979939,-3.6292252338852395,11.399766786731496
-1.012674008188923,1.8998766369348836,10.251717440865464,4.803904921847254,-4.385939171551612,11.856216647996208
-0.9936752418195741,1.8560172452193675,10.299756490083936,4.922467088327216,-5.17907748101802,12.334825869301824
-0.9751150693673805,1.8042264704091873,10.348981160967208,5.045815347020234,-6.008854004198641,12.841648549825578
-0.9570728046632886,1.7441379303672009,10.39943931443741,5.1742318325184895,-6.875451135351489,13.383701464643462
-0.9396314253596166,1.675383419013686,10.451181632762596,5.308068847164924,-7.778981896740862,13.968971677689442
-0.9228775911694798,1.5975936000462774,10.504262321234245,5.447758563941819,-8.719398647425502,14.606359903514333
-0.906901655169017,1.5103996135720223,10.558739906873663,5.593822162976962,-9.696310451189863,15.30551485488062
-0.8917976590332968,1.4134365090601237,10.614678128503433,5.746877311525768,-10.70864892109914,16.076485648052884
