th1 (rad),w1 (rad/s),th2 (rad),w2 (rad/s)
2.552420584553426,-1.4195915574734301,3.0073666143406546,1.2770536837761688
2.5382246689786916,-1.4883296684862728,3.020137151178416,1.3168301476022595
2.523341372293829,-1.5571132085684076,3.0333054526544387,1.35563999907398
2.5077702402081448,-1.6258043993639086,3.0468618526451787,1.3931640520875788
2.4915121962145057,-1.6942736273440966,3.0607934931660545,1.4290836689939672
2.4745694599410646,-1.762403945336537,3.075084329855994,1.4630862484435239
2.456945420487699,-1.830095272942398,3.0897151923404294,1.4948702398893459
2.4386444677582753,-1.897268091911435,3.104663894739323,1.5241493885512067
2.419671786839161,-1.963866471544584,3.119905388624835,1.5506559676737899
2.4000331221237152,-2.0298603131978386,3.135411948301573,1.5741428292557185
2.3797345189917367,-2.0952467651592763,3.1511533765941304,1.5943841906079073
2.358782051340144,-2.1600508218779177,3.1670972185002095,1.6111751613995955
2.3371815431213645,-2.224325177544366,3.1832089701142054,1.6243300942230614
2.314938291345921,-2.288149447810223,3.199452271056436,1.6336799034115481
2.2920567968678185,-2.3516289017787835,3.2157890700905516,1.6390685374278509
2.2685405078500307,-2.414892858582828,3.23217975546483,1.6403488086593416
2.2443915792642026,-2.4780929003096226,3.2485832435514235,1.6373777830059426
2.2196106502611066,-2.541401038644287,3.2649570213814827,1.630011914456111
2.1941966398746637,-2.6050079499962657,3.281257140526044,1.6181020821977985
2.168146560374701,-2.6691213666723477,3.2974381613480217,1.6014886550812084
2.1414553467079775,-2.73396468297328,3.3134530478988338,1.579996675188532
2.1141156998782447,-2.7997758072219416,3.329253014650719,1.5534312226012432
2.0861179418060254,-2.866806265085749,3.344787326876731,1.5215729997849627
2.057449879155168,-2.9353205367099413,3.360003056874581,1.4841741579041303
2.0280966737880686,-3.005595590031429,3.3748447984536223,1.4409543796000859
1.9980407178877542,-3.077920554610291,3.389254342249623,1.3915972335472309
1.9672615123416513,-3.152596463517053,3.4031703145850956,1.3357468253852647
1.9357355477064808,-3.229935974238175,3.416527782838948,1.273004787256019
1.903436187964099,-3.310262962209806,3.4292578307115082,1.2029276740125152
1.870333558342001,-3.3939118615930797,3.4412871074516334,1.1250248681216124
1.8363944397260703,-3.4812266066449347,3.4525373561328494,1.0387571372389977
1.801582173659621,-3.572559003279864,3.4629249275052394,0.9435360381109462
1.7658565836268223,-3.668266334467501,3.4723602878863487,0.8387244171306771
1.7291739202821472,-3.7687079760293782,3.4807475320576553,0.7236383200180023
1.6914868405218535,-3.8742407732622755,3.487983915257835,0.5975506878647516
1.6527444327892307,-3.9852129070266464,3.4939594221364825,0.4596972794477818
1.6128923037189642,-4.101955965547399,3.49855639493096,0.3092853129091759
1.5718727440634903,-4.224774942155474,3.501649248060052,0.14550535301430312
1.5296249946419356,-4.353935908558522,3.503104301590195,-0.03245303118446621
1.4860856355563503,-4.489651178766534,3.5027797712783504,-0.2253813675724782
1.441189123768685,-4.6320618922768535,3.5005259576026257,-0.4340277985352553
1.3948685048459164,-4.7812181175678194,3.4961856796172732,-0.6590678967059402
1.3470563236702382,-4.937056815818894,3.4895950006502137,-0.9010710005088873
1.2976857555120493,-5.099378309904488,3.4805842906451248,-1.1604627560562644
1.2466919724130046,-5.267822262309274,3.468979663084562,-1.43748513427529
1.194013749789912,-5.441844547174828,3.454604811741809,-1.7321558570197033
1.1395953043181637,-5.62069675445248,3.437283253171612,-2.0442298433475
1.083388336773639,-5.803410315523541,3.416840954738137,-2.3731658686809083
1.0253542336184036,-5.988787303279074,3.393109296051328,-2.7181019745237136
0.9654663605856129,-6.175399750832278,3.3659282763060907,-3.0778431215496482
0.9037123630772901,-6.361598792192556,3.3351498450905943,-3.450864012550429
0.8400963751553645,-6.545534048068708,3.30064120496509,-3.8353288580877285
0.7746410346746774,-6.725182528062471,3.2622879163842127,-4.229128159538726
0.7073892093940527,-6.898385046767341,3.2199966347888256,-4.629930518136895
0.6384053589263793,-7.062886971716769,3.1736973296074567,-5.035245346297546
0.5677764892092116,-7.216379276583352,3.1233448761444813,-5.442490536173772
0.49561269644337813,-7.356535572097191,3.0689199707827437,-5.8490580002496895
0.42204734072240624,-7.481041151532383,3.0104293907802466,-6.252369812118943
0.3472369292070824,-7.587611120440543,2.947905692659057,-6.64991854912444
0.271360818002677,-7.673996269990033,2.8814065071678128,-7.039287294610086
0.19462085530277665,-7.7379773104723135,2.811013634221712,-7.418147370152586
0.11724108219805351,-7.777350191984125,2.736832160520186,-7.7842349360807175
0.03946758027821226,-7.789907307363668,2.658989811159379,-8.135310822070865
-0.03843149279542442,-7.773421234196944,2.57763670293867,-8.469111075545472
-0.11616570513739387,-7.725639169517283,2.492945592183215,-8.783298529792063
-0.1934220968325667,-7.644297132000412,2.4051126068852944,-9.075427960048113
-0.26986506815257083,-7.52716302567223,2.3143583272848134,-9.342938766207077
-0.3451366984092931,-7.372116304376232,2.2209289396227425,-9.583189061558448
-0.4188578614530554,-7.177268682563519,2.125097049007158,-9.793542843831577
-0.4906305482786906,-6.94112462950979,2.0271616205688425,-9.971516834538765
-0.5600417945737886,-6.6627722002919185,1.927446452223455,-10.114985163270642
-0.6266695165767078,-6.342084861677774,1.8262966005907484,-10.222428718070013
-0.6900903651934855,-5.979905265548802,1.7240723134100482,-10.29320333420546
-0.7498894178489736,-5.578175376975803,1.6211402800679935,-10.32779012433828
-0.8056711716187316,-5.139977307574862,1.5178623788246106,-10.327986111464611
-0.8570709446944802,-4.669457969150137,1.4145825177099645,-10.296997385395025
-0.9037655243859816,-4.1716280535271295,1.3116125438560142,-10.239411488227404
-0.9454818049212529,-3.6520483202171765,1.2092184289737402,-10.161048330023075
-0.9820022881234246,-3.1164375350385938,1.1076079456735095,-10.068713968975512
-1.0131666634738106,-2.5702500357502016,1.0069208059837544,-9.969901985531454
-1.0388691638313126,-2.0182725574171205,0.90722178612844,-9.872497378236163
-1.0590518894054837,-1.464279532783292,0.8084968123460783,-9.784536175274653
-1.0736946847333166,-0.910767428313585,0.7106514505933318,-9.714062805802362
-1.0828023590164524,-0.35876760501034377,0.6135108225353082,-9.669111923805293
-1.0863900350665558,0.19228088968358203,0.5168197032972552,-9.657827208233558
-1.0844672261697201,0.7446287268565914,0.42024143121491964,-9.688719925791375
-1.0770209389011542,1.302316925808647,0.32335423195700586,-9.771064158627478
-1.0639977696430678,1.8713047800590923,0.22564359037073106,-9.915417003936753
-1.0452847218424768,2.459617909786814,0.1264894203313635,-10.134222335720779
-1.0206885427446086,3.077424122649656,0.025147196974155725,-10.44235843636932
-0.9899143015181121,3.7367185828024825,-0.07927638738953748,-10.85719978795311
-0.9525471156900873,4.449707999668009,-0.18784838526906858,-11.396967457155215
-0.9080500356934073,5.22350850212229,-0.3018180598406207,-12.074112447721491
-0.8558149506721844,6.0455935108532115,-0.4225591843178356,-12.876034726808278
-0.7953590155636523,6.850548774436595,-0.5513195315859184,-13.719869474226796
-0.7268535278192864,7.469426916379392,-0.6885182263281864,-14.38247098740431
-0.6521592586554924,7.637849400871455,-0.8323429362022294,-14.50988407365183
-0.5757807646467779,7.218805546429403,-0.9774417769387478,-13.920606733136703
-0.5035927091824838,6.426703448649608,-1.1166478442701149,-12.906569565716696
-0.4393256746959877,5.577556299638881,-1.2457135399272818,-11.886349132887426
-0.3835501116995989,4.81745324893169,-1.364577031256156,-11.04286370529585
-0.335375579210282,4.166400183223744,-1.4750056683091146,-10.391971048629356
-0.29371157737804454,3.60581026889999,-1.5789253787954083,-9.902430780649278
-0.25765347468904465,3.1128097967933126,-1.677949686601901,-9.540795062628797
-0.22652537672111153,2.6683097639233964,-1.773357637228189,-9.28091152467173
-0.19984227908187757,2.2576461496778064,-1.8661667524749062,-9.103896627484442
-0.17726581758509952,1.8697117429885979,-1.9572057187497505,-8.996405621878866
-0.15856870015521354,1.4960543860173,-2.047169774968539,-8.949014456849888
-0.14360815629504053,1.1302245449821757,-2.136659919537038,-8.954979657293457
-0.13230591084521878,0.7673771529042137,-2.2262097161099725,-9.009304922608806
-0.12463213931617664,0.40408694820678237,-2.3163027653360606,-9.108000230130608
-0.12059126983410882,0.03834231783719838,-2.4073827676373667,-9.24743781451325
-0.12020784665573685,-0.3303070798965136,-2.4998571457824994,-9.423736509845092
-0.12351091745470198,-0.7004721617959715,-2.59409451088095,-9.632134747821867
-0.1305156390726617,-1.0685521501432316,-2.690415858359169,-9.866348045737729
-0.14120116057409401,-1.4283366109034306,-2.789079338816546,-10.1179562298796
-0.15548452668312832,-1.7707018558108125,-2.890258901115342,-10.375932253202727
-0.17319154524123645,-2.0835837015990077,-2.9940182236473696,-10.626499478856823
-0.19402738225722652,-2.352452116340389,-3.100283218435938,-10.853556279107597
-0.2175519034206304,-2.5614865116458936,-3.2088187812270137,-11.03987791841517
-0.24316676853708935,-2.695496135094678,-3.3192175604111656,-11.169133337736776
-0.2701217298880361,-2.7423376947104376,-3.4309088937885335,-11.228431508247095
-0.2975451068351405,-2.6952512817839334,-3.5431932088710045,-11.210756288521061
-0.32449761965297985,-2.554371689342369,-3.655300771756215,-11.116491467858541
-0.35004133654640357,-2.326853980760547,-3.7664656864348003,-10.953464554941275
-0.37330987635400903,-2.025546305792045,-3.876000331984213,-10.735487589939297
-0.3935653394119295,-1.666677249099973,-3.983355207883606,-10.479932020382762
-0.41023211190292924,-1.2672970270093666,-4.088154528087434,-10.20512628805989
-0.4229050821730229,-0.8431257964048925,-4.190205790968032,-9.928237865454639
-0.43133634013707184,-0.4071547061752539,-4.289488169622579,-9.663965171297189
-0.4354078871988244,0.03097515410404017,-4.386127821335551,-9.424039765107663
-0.435098135657784,0.4649933218223063,-4.480368218986627,-9.217347866216702
-0.43044820243956095,0.8916627183785821,-4.572541697648794,-9.050429378855613
-0.4215315752557751,1.3103003308653653,-4.66304599143735,-8.928150597070015
-0.40842857194712145,1.7223077212547881,-4.75232749740805,-8.85441805182952
-0.39120549473457356,2.1308003096467143,-4.840871677926345,-8.832870108702569
-0.3698974916381064,2.5403788388658235,-4.929200379013371,-8.86753549500204
-0.34449370324944817,2.957060296763217,-5.0178757339633915,-8.963482392154914
-0.314923100281816,3.388373263136211,-5.1075105578849405,-9.127500661888224
-0.2810393676504539,3.843613599376911,-5.198785564503822,-9.3688619089458
-0.2426032316566848,4.33423031280912,-5.2924741835932805,-9.700170698629353
-0.1992609285285936,4.874218686998265,-5.389475890579574,-10.138195034007328
-0.15051874165861093,5.4801020050360645,-5.490857840919647,-10.704161969649391
-0.09571772160825029,6.169205338884001,-5.597899460616141,-11.421801404181608
-0.034025668219410284,6.952487569874127,-5.712117474657957,-12.308051057164679
0.03549920747933099,7.812352933942883,-5.835197985229604,-13.343178577272937
0.11362273681875981,8.647900919466748,-5.968629771002333,-14.395769529249964
0.20010174601342728,9.193526096272224,-6.1125874662948325,-15.109998637368822
0.29203700697614954,9.07902367171208,-6.2636874526685205,-14.987250301371287
0.3828272436932703,8.265098109880896,-6.413559955682233,-13.983397349207156
0.4654782247920793,7.188174621733948,-6.553393929174304,-12.697075773781139
0.5373599710094188,6.190943219037293,-6.680364686912116,-11.584844360940602
0.5992694031997917,5.349684682136544,-6.796213130521521,-10.738789472689119
0.6527662500211572,4.640447588002139,-6.903601025248412,-10.120146285291492
0.6991707259011786,4.026409924077545,-7.004802488101327,-9.677240075453252
0.739434825141954,3.477406015472099,-7.101574888855859,-9.370155489140808
0.774208885296675,2.971113743910264,-7.195276443747267,-9.171130208716626
0.8039200227357777,2.4911822875025083,-7.286987745834433,-9.06125693730272
0.8288318456108028,2.025504690111795,-7.37760031520746,-9.027567714470122
0.8490868925119207,1.5650723802928055,-7.467875992352162,-9.060914904879834
0.8647376163148488,1.1033372760056728,-7.5584851414009595,-9.154432523686323
0.8757709890749056,0.6359634780974723,-7.650029466637823,-9.30233738433868
0.8821306238558803,0.1608795653168671,-7.74305284048121,-9.498900225816389
0.8837394195090489,-0.32143913019027,-7.838041842739374,-9.737491913271743
0.8805250282071462,-0.8075388168012632,-7.935416761872092,-10.009685823228157
0.8724496400391335,-1.2905284723415138,-8.035513620104373,-10.30448430654102
0.8595443553157184,-1.7597841838236468,-8.138558463169783,-10.607835073606616
0.841946513477482,-2.2010759439757805,-8.24463681390585,-10.902688943932388
0.8199357540377241,-2.5973937658079524,-8.353663703345173,-11.169866680356458
0.7939618163796446,-2.9306429480789653,-8.465362370148737,-11.389872520707634
0.7646553868988549,-3.1841018098955223,-8.579261095355813,-11.545476634210011
0.7328143687998997,-3.3451513093805954,-8.694715861697913,-11.624475910662731
0.6993628557060938,-3.4074991902274245,-8.81096062080454,-11.621773775968453
0.6652878638038195,-3.3721700437557742,-8.927178358564225,-11.540047212570371
0.6315661633662618,-3.246968154453777,-9.042578830689928,-11.388803855530371
0.599096481821724,-3.0447022814597156,-9.156466869245232,-11.182262691514618
0.5686494590071269,-2.7808418923199247,-9.268289496160378,-10.936835038383698
0.5408410400839276,-2.471287735433514,-9.377657846544215,-10.668908405959293
0.5161281627295925,-2.1306890179446847,-9.484346930603808,-10.393312095488778
0.49482127255014563,-1.7714366024796253,-9.588280051558696,-10.122516574998619
0.4771069065253494,-1.4032500639506567,-9.689505217308682,-9.866423842016612
0.4630744058858428,-1.033186182069842,-9.788169455728848,-9.632546873830714
0.4527425440651444,-0.66589247142569,-9.884494924467155,-9.426398378551271
0.44608361935088753,-0.3039660108644323,-9.978758908252669,-9.25196051000696
0.4430439592422432,0.05167654513692771,-10.071278513352738,-9.112158391454663
0.44356072469361246,0.4014727916615323,-10.162400097267284,-9.009300061270212
0.4475754526102278,0.7469594474868939,-10.252493097879986,-8.945472513395583
0.45504504708509674,1.0905984117875989,-10.341947823013943,-8.922900312825764
0.4659510312029727,1.4356852121512291,-10.4311768261422,-8.944282914579507
0.480307883324485,1.7863372141679559,-10.520619655287996,-9.013131612125825
0.49817125546616453,2.1475568407758363,-10.610750971409255,-9.134127571408891
0.5196468238739229,2.5253598950988962,-10.702092247123344,-9.31351593041587
0.5449004228249119,2.926941586381284,-10.795227406427504,-9.559527337027992
0.5741698386887247,3.360801159836207,-10.890822679797784,-9.882749406721038
0.6077778502870868,3.836605962039544,-10.989650173864995,-10.296183107241122
0.6461439099074822,4.364214467217883,-11.092612004937406,-10.81422963567762
0.689786054579661,4.9503927765119435,-11.200754301294182,-11.44863890716469
0.7392899823447805,5.589818855999821,-11.31524069036583,-12.196754312658578
0.7951881709047787,6.243978606163541,-11.437208233492415,-13.013153166219093
0.857627956966414,6.803462374147427,-11.567339765154605,-13.75812150905253
0.9256625807078883,7.063011129107351,-11.70492098024513,-14.162725978893798
0.9962926919989619,6.820950975114234,-11.84654824003407,-13.963514535882187
1.0645022017501042,6.11665177179658,-11.986183385392891,-13.223571323841544
1.1256687194680701,5.2190430559060985,-12.118419098631307,-12.308716835695362
1.1778591500271312,4.338420156257285,-12.24150626698826,-11.494362707914831
1.221243351589704,3.5415920831239918,-12.356449894067408,-10.859767889499798
1.256659272420944,2.8262021303041154,-12.465047572962407,-10.394197950985617
1.2849212937239851,2.1727866633146227,-12.568989552472264,-10.067305658736542
1.3066491603571313,1.561979031442065,-12.669662609059628,-9.851009645754772
1.322268950671552,0.9782046528312119,-12.768172705517175,-9.723323490826806
1.332050997199864,0.4097143768300753,-12.865405940425443,-9.667569238167939
1.3361481409681648,-0.15206582861825657,-12.962081632807124,-9.670872189836034
1.3346274826819822,-0.7131240470618708,-13.058790354705485,-9.722843868371958
1.3274962422113634,-1.2772634521797954,-13.156018793389205,-9.814578355106171
1.3147236076895654,-1.84634232207386,-13.254164576940266,-9.93792073116128
1.2962601844688268,-2.4204115945393454,-13.353543784251878,-10.084955546311049
1.2720560685234334,-2.997810898892311,-13.454393339714988,-10.2476840648611
1.2420779595345104,-3.57528017366114,-13.5568701803636,-10.417878739017306
1.206325157797899,-4.148136733086781,-13.661048967753773,-10.587112865408532
1.1648437904670312,-4.710554434713806,-13.766920096407858,-10.746959781583852
1.1177382461198933,-5.255959913868525,-13.874389694223696,-10.889339318917473
1.065178646981208,-5.777531185836322,-13.983283087412872,-11.006963354420504
1.0074033351228446,-6.2687514694640285,-14.093352720957077,-11.093805566804791
0.9447158204282043,-6.723945294215233,-14.204290776625124,-11.1455044420664
0.877476367486052,-7.138715137284096,-14.315745821045788,-11.15961353195426
0.8060892161132109,-7.510210902876156,-14.42734195636533,-11.13564234852985
0.7309871070844494,-7.8371987544096315,-14.53869837985063,-11.074878107031633
0.652615119540353,-8.119938836934905,-14.649447160920946,-10.980027521899334
0.571415731171004,-8.359918521137287,-14.75924743613994,-10.8547526098559
0.4878165459596311,-8.559507826618429,-14.867794962238499,-10.703185364116177
0.4022214676934468,-8.721603673010458,-14.974826815879661,-10.529494069404736
0.3150054309633422,-8.849314386561312,-15.080121756573709,-10.337547838869542
0.22651228709772908,-8.94571403578815,-15.183497234962404,-10.130696912531354
0.1370551467398476,-9.013675516322511,-15.284804204087719,-9.911662848565037
0.046918391576622476,-9.055776396902779,-15.383920832573368,-9.682518621019124
-0.04363937239240531,-9.074263454594416,-15.48074601878356,-9.444733367174285
-0.13438200693834945,-9.071059389067589,-15.575193352455303,-9.199257520311107
-0.22509260082902532,-9.047796397300159,-15.667185927658414,-8.94662837439056
-0.31557056480202694,-9.00586423139867,-15.75665221140232,-8.687081449162612
-0.40562920711601363,-8.946463724239376,-15.843523025893946,-8.420657961964052
-0.4950938443584074,-8.870659801464889,-15.927729605513587,-8.147302641917685
-0.5838004423730563,-8.779430392082693,-16.009202631932762,-7.8669489199978075
-0.6715947462938832,-8.67370935690901,-16.08787212113274,-7.5795903280664065
-0.7583318398629733,-8.554422658549347,-16.163668024413404,-7.285337968510095
-0.8438760664484667,-8.422517629311747,-16.236521404098504,-6.984464405982846
-0.9281012427415841,-8.278985488682867,-16.30636604815833,-6.677434485776538
-1.010891097628413,-8.124877340238084,-16.373140393016097,-6.364923562645265
-1.0921398710307937,-7.961313841631985,-16.43678962864255,-6.047823557250023
-1.1717530094471136,-7.789488675521238,-16.49726786421505,-5.727237241690202
-1.2496478962023259,-7.610665921165034,-16.554540236631954,-5.404461258334931
-1.3257545554139762,-7.426171483473816,-16.608584849215305,-5.080958632943148
-1.4000162702487144,-7.237378902097977,-16.659394435544737,-4.758321953130609
-1.4723900592696941,-7.045690133798376,-16.70697765507604,-4.438228906705689
-1.5428469606076778,-6.852512244188065,-16.751359944143097,-4.122392434811559
-1.6113720830495584,-6.659231302898802,-16.792583868491214,-3.8125082500802763
-1.6779643960785464,-6.4671850782820215,-16.830708950992015,-3.51020279171569
-1.7426362468613665,-6.277636304499167,-16.865810978909174,-3.2169847474118667
-1.8054126099063583,-6.091748294558223,-16.897980826383293,-2.9342030178525125
-1.8663300928519406,-5.910564479059163,-16.92732285656182,-2.663013441640505
