th1 (rad),w1 (rad/s),th2 (rad),w2 (rad/s)
3.3454870167777426,0.8779135298538454,2.760150424106857,1.5699165695604953
3.354266152076281,0.9184650979254687,2.775849589802462,1.5038924928896553
3.3634508030555357,0.9604180369703965,2.7908885147313587,1.4383268520951642
3.3730549834252397,1.0037247113114312,2.8052717832523104,1.3732555842133105
3.383092230538354,1.0483423451295482,2.8190043390944437,1.3087148519696412
3.3935756539896498,1.094232422269059,2.8320914876141403,1.244741890790591
3.4045179782123403,1.1413599938128673,2.8445389065220463,1.1813760041017036
3.415931578150469,1.189692912576557,2.856352666563063,1.1186596819689207
3.4278285072762347,1.2392010162109082,2.8675392633827523,1.056639814309954
3.440220517438344,1.2898552827819507,2.878105661525852,0.9953689665385358
3.453119070266163,1.34162698453782,2.8880593511912376,0.9349066825841487
3.4665353401115415,1.394486867059154,2.897408418017079,0.875320777783694
3.480480208782133,1.4484043820640746,2.906161625794916,0.8166885822664584
3.4949642526027738,1.503347002687312,2.9143285116175806,0.7590980943203552
3.509997722629647,1.5592796499136934,2.921919492560784,0.7026490030754942
3.525590519128784,1.6161642578193716,2.928945982591539,0.6474535409622287
3.541752161706978,1.6739595031436398,2.935420518001161,0.5936371291076592
3.5584917567384142,1.732620721277257,2.941356889292238,0.5413387834178077
3.5758179639511867,1.792100025857288,2.946770277126416,0.4907112557680371
3.5937389642097597,1.8523466427410975,2.951677389684096,0.4419208935747949
3.6122624306371707,1.913307461258895,2.956096598619844,0.39514721194306124
3.6313955052497597,1.974927796537888,2.9600480707392745,0.35058218524180024
3.6511447832151385,2.03715234674515,2.9635538925916927,0.3084292787705762
3.67151630668259,2.0999263188658612,2.9666381853793986,0.26890225532312423
3.6925155698712486,2.163196686800697,2.96932720793263,0.23222380491886357
3.714147536739256,2.226913536878559,2.971649445981819,0.1986240576506403
3.7364166721080414,2.291031449070365,2.973635686558325,0.16833904839142377
3.759326986598745,2.3555108578793704,2.9753190770422395,0.14160920706693111
3.7828820951775386,2.420319335499283,2.9767351691129087,0.11867794866288812
3.8070852885325315,2.4854327415314628,2.9779219485995374,0.09979043279794417
3.8319396159478463,2.5508361881904555,2.978919852927517,0.08519255368868517
3.857447977829751,2.616524777055826,2.979771778464404,0.07513020821916276
3.883613225600309,2.6825040723461417,2.9805230805465954,0.06984887352139972
3.9104382663237707,2.7487902855238397,2.9812215692818094,0.06959350713781812
3.937926169179009,2.815410155844699,2.9819175043531874,0.07460876373235564
3.966080270737456,2.882400520340217,2.982663591990511,0.08513950365082892
3.994904275940858,2.9498075739000362,2.9835149870270192,0.10143155142080904
4.024402351679859,3.017685825048223,2.9845293025412274,0.12373264725963
4.054579209930341,3.0860967553728207,2.9857666290138236,0.15229352222645465
4.085440177484069,3.1551071903168024,2.987289564236088,0.18736901788207494
4.116991249387238,3.224787386345056,2.9891632544149087,0.22921916399887785
4.149239123250688,3.2952088347302104,2.9914554460548977,0.27811012258241546
4.18219121159799,3.3664417758540397,2.994236547280722,0.33431490271010983
4.215855629356531,3.438552410598099,2.997579696307823,0.3981137479426401
4.250241153462512,3.5115997877503404,3.0015608337872495,0.46979409588972354
4.2853571513400155,3.585632339069496,3.0062587747461467,0.5496500076535956
4.32121347473071,3.660684027436021,3.011755274822683,0.6379809633019838
4.35782031500507,3.7367700691160475,3.0181350844557024,0.7350899184877858
4.395188015696231,3.813882189353459,3.0254859836405803,0.8412805173943608
4.433326837589766,3.8919833721225454,3.033898788814524,0.9568533592278874
4.472246671310991,3.971002070826133,3.043467322406803,1.0821012207117544
4.511956692019252,4.050825857986112,3.0542883346139207,1.2173031469798197
4.552464950599114,4.131294509567596,3.0664613660837188,1.3627173396976078
4.59377789569479,4.212192544528057,3.0800885394806947,1.5185727961349327
4.63589982114007,4.293241273432297,3.095274267442044,1.6850596883155506
4.678832233874393,4.374090452267209,3.1121248643251995,1.8623185192332408
4.722573138397065,4.454309689313232,3.130748049517532,2.0504281550924595
4.767116235290198,4.53337981391487,3.1512523310684566,2.249392909667631
4.8124500334293465,4.610684485299067,3.173746260165133,2.459128949349857
4.858556878282338,4.685502395270228,3.1983375496586315,2.679450394220633
4.9054119022350395,4.757000497494481,3.225132053600838,2.9100556090005982
4.952981907209985,4.824228773603356,3.254232609690844,3.1505143036596124
5.001224194946018,4.886117116417454,3.28573775272744,3.400256190664992
5.050085366110193,4.941474965594805,3.31974031463409,3.6585620662672422
5.099500115766141,4.988994361856829,3.3563259352967623,3.924558287198018
5.149390059384709,5.027257082238564,3.3955715181687425,4.197215690664854
5.1996626302070945,5.054746469103566,3.437543675075391,4.4753540426214675
5.25021009489813,5.069864457860072,3.4822972155016054,4.757653084541679
5.300908739476731,5.070954130287807,3.5298737463470222,5.042671169924368
5.3516182807796095,5.056327861011805,3.580300458046266,5.328872326804337
5.402181559389728,5.024300775525324,3.6335891813143095,5.614662341774009
5.452424567144981,4.973228796205507,3.6897358047320497,5.898434128415129
5.502156855107036,4.901550023985414,3.748720146016201,6.1786222197487835
5.55117235534689,4.807827607328532,3.8105063682136886,6.453765723475006
5.599250631420175,4.690791624478485,3.875044025448439,6.722578531408744
5.64615854766496,4.549376907850178,3.9422698107625265,6.984025035131472
5.691652316743462,4.38275324837955,4.012110061113841,7.237399149389699
5.735479849227257,4.1903441218834745,4.0844840526077375,7.482404187739167
5.777383290446092,3.971830065427975,4.159308094485129,7.719231188238558
5.817101591100371,3.727133163389417,4.236500406367515,7.9486337586222975
5.854372922734266,3.4563798032542192,4.315986743953738,8.17199846900165
5.888936720766808,3.159839904985254,4.397706728643755,8.391411257421511
5.920535119816661,2.837842161658204,4.481620841217969,8.609722098098661
5.948913541433242,2.4906664410121837,4.567718062198956,8.830611991294973
5.9738202058433645,2.1184165713628573,4.656024182111906,9.05866751954005
5.995004371556993,1.7208799621568245,4.7466108573073065,9.299467492841702
6.012213171178561,1.2973867185710601,4.839605532235724,9.559680915497673
6.025187038364272,0.8466943892522357,4.9352023413907,9.84715989430504
6.033653982256794,0.36695480761838367,5.033673940333751,10.17097244477352
6.037323530332978,-0.1441125589398609,5.135383664781486,10.541230361540107
6.03588240474358,-0.6885672862665735,5.2407959683968866,10.968366466227243
6.028996731880914,-1.2665284671128645,5.350479633059159,11.4610870117953
6.016331447209786,-1.8722100186747184,5.4650905031771115,12.021397616835806
5.9976093470230385,-2.485694668638364,5.58530447934547,12.633892930864878
5.972752400336655,-3.0584953414287006,5.711643408654119,13.246426383300411
5.942167446922368,-3.496923251138868,5.844107672487123,13.747153124219947
5.907198214410979,-3.6681260368444106,5.981579203729322,13.971165722179245
5.870516954042535,-3.4712504649115954,6.121290860951115,13.793946973499256
5.835804449393419,-2.9395524431538407,6.2592303306861075,13.264775071296997
5.806408924961881,-2.22260196133773,6.391878081399078,12.577983708099493
5.784182905348503,-1.459753447172591,6.517657918480073,11.904256706260234
5.7695853708767775,-0.720889982234562,6.636700485542676,11.318356482764617
5.762376471054432,-0.026819044886143395,6.749884050370322,10.83138277608588
5.76210828060557,0.6221206906340571,6.858197878131181,10.429864841263589
5.768329487511911,1.231274293670101,6.962496526543816,10.094695130898232
5.7806422304486125,1.8061270327282657,7.063443477852799,9.80760414677912
5.798703500775895,2.350664300201508,7.161519519320589,9.55272215158992
5.822210143777911,2.867126663579113,7.257046740836489,9.316587112865944
5.8508814104137015,3.356213320672041,7.350212611965149,9.08779803132541
5.884443543620422,3.817409253092069,7.441090592278403,8.856687100949722
5.922617636151342,4.2493330054295715,7.529657463287901,8.615099818236828
5.965110966205637,4.650074718763221,7.6158084614702695,8.35628029642582
6.01161171339327,5.017514213639764,7.699371264434528,8.074832311859163
6.061786855529668,5.349611853234562,7.780119587553119,7.766721599934776
6.115282974062014,5.64466358051868,7.857786803552467,7.429287484242709
6.1717296098672,5.901510636540822,7.932079678394894,7.0612376094886065
6.230744716232609,6.1196954849166945,8.00269205448978,6.66260679148724
6.2919416710817755,6.299558388800055,8.069318122404653,6.234668891470004
6.3549372549697765,6.442273246037468,8.131664811319352,5.779798358489905
6.419359987430151,6.549825823442193,8.189462794904252,5.301284956300369
6.484858245664573,6.62494168561262,8.242475644467255,4.803110709184844
6.5511076625207,6.6709743848829675,8.290506751559104,4.2897020215300525
6.61781740636953,6.691766621528947,8.333403771774405,3.765672179567479
6.684735072584819,6.691498026883619,8.371060493570079,3.2355700342914298
6.751650052853655,6.674532985141973,8.403416193912994,2.7036496253207454
6.818395382705075,6.64528056623689,8.430452690166202,2.17367294643448
6.884848188367444,6.608076340753012,8.452189419630548,1.6487542551780463
6.950928951774975,6.567092840016728,8.468676962182329,1.1312498015245678
7.016599880175142,6.526282052124555,8.479989460197574,0.6226923025501536
7.081862700696387,6.48934996308791,8.486216383223075,0.1237657151099365
7.146756200327267,6.459760002999479,8.487454040374175,-0.3656863882798668
7.211353800357261,6.440759318763782,8.483797176491375,-0.8466255762568102
7.275761393544899,6.435418623199948,8.475330920728807,-1.3207602916659718
7.340115579776898,6.44667189462597,8.462123317812146,-1.7904614449996366
7.404582298723158,6.477334395031474,8.44421870336215,-2.2586355462968557
7.469355642673473,6.530062797463929,8.421632347899182,-2.728515392339416
7.534656270648112,6.607193831705998,8.394347193975788,-3.2032867391384245
7.6007282089651715,6.710349307534695,8.362314326584404,-3.685398623543587
7.667831702040519,6.839617726645345,8.325460340348968,-4.175294537304543
7.7362278793069725,6.992025722013345,8.283707394975922,-4.669166054502323
7.806148136527106,7.15898271811905,8.237015734430898,-5.1552925669187175
7.877737963708297,7.32272656141696,8.185462808761711,-5.609023947942565
7.950965229322467,7.45320430895479,8.129372569282285,-5.9884548062629674
8.025497272412014,7.50981000804458,8.069488021219655,-6.2370501196259465
8.10059537249246,7.454318469762553,8.007117520023396,-6.302146922595168
8.175138557190087,7.2735406397648426,7.9440960507974445,-6.167144413019778
8.247873963587734,6.992296392105324,7.8824246066672465,-5.86982862301604
8.317796927508788,6.659039704592152,7.823726320437086,-5.48181387485161
8.384387324554709,6.3188532048936485,7.768908181688571,-5.069985850363379
8.447575856603645,5.999374899934816,7.718208323184937,-4.6762546917331225
8.507569605602994,5.712250268105394,7.671445776267606,-4.319420440747282
8.564692108284047,5.459605414191294,7.628251571860133,-4.00430375423972
8.61928816242596,5.239209559498035,7.588208534317736,-3.729114137169153
8.67168025802094,5.047344771205488,7.550917392946044,-3.489600217546428
8.722153705732994,4.880129022242898,7.51602139077058,-3.281004487318538
8.770954995955423,4.734034375398596,7.483211345897394,-3.098862107484873
8.818295339709408,4.606036961028719,7.452222724822545,-2.9392618531439694
8.864355709319696,4.493614824170262,7.422830106291105,-2.798878165586965
8.9092918575614,4.394691734056221,7.394841324635236,-2.674916525560347
8.953238774901962,4.307568677705416,7.368092159379632,-2.565033968502296
8.996314461679017,4.230859300386826,7.342441819694609,-2.4672598303890307
9.038623054682885,4.163434526520897,7.317769221390718,-2.3799256310950327
9.080257399948094,4.104377062259139,7.293969965079768,-2.301606174241749
9.121301170570685,4.052944796268591,7.27095390333735,-2.2310712811772775
9.161830618533372,4.008541635068718,7.248643190525577,-2.1672467271497773
9.201916034884059,3.970694304777242,7.226970723254079,-2.109182854950509
9.241622977931831,3.9390338050204523,7.205878894704575,-2.0560295407730806
9.281013315982035,3.9132803795038877,7.185318599296844,-2.007016480875357
9.320146119777073,3.8932310189809853,7.16524843448809,-1.9614380771768236
9.359078429966884,3.8787486192390217,7.145634053716321,-1.9186424982512413
9.397865916159274,3.869751978079298,7.126447628733809,-1.8780247725846362
9.436563435940068,3.8662058379702895,7.107667381007962,-1.8390240313441193
9.475225494319771,3.8681101782753027,7.089277140694521,-1.8011252516093537
9.513906596102524,3.8754879535895883,7.071265888178427,-1.7638660400957993
9.55266147563842,3.8883704943729374,7.053627227777469,-1.7268491064295097
9.591545180582148,3.906779878246498,7.036358736713174,-1.689761045992277
9.630612979364614,3.9307078056933458,7.019461126253251,-1.6523978027701607
9.669920057421548,3.96009094408164,7.002937148225549,-1.6146966117814596
9.709520966862364,3.9947834070673194,6.986790182107735,-1.5767732308046178
9.749468800933037,4.034528047523551,6.971022449799689,-1.5389618113291719
9.789814081408274,4.078929516444517,6.955632831686397,-1.5018528938610305
9.83060337657272,4.127433397776105,6.940614302747786,-1.4663230071230924
9.87187771055048,4.179316814575902,6.925951072676555,-1.4335477299141504
9.913670878696239,4.233696202732482,6.911615595377413,-1.4049896039046998
9.956007840723563,4.289556916651461,6.897565699338366,-1.3823537960389798
9.998903409890078,4.345806622335266,6.883742161377977,-1.3675084444346457
10.042361476113431,4.401350197197965,6.87006707693363,-1.362373000879972
10.086374978085411,4.455178922970002,6.85644334692483,-1.3687854058923556
10.130926767315112,4.506462533784459,6.842755492865907,-1.3883655071470438
10.175991392652955,4.554630680727986,6.828871837794436,-1.422395449199868
10.221537699460235,4.599431554463755,6.814647883302437,-1.4717362927201147
10.267532015004873,4.640959659474398,6.799930520375236,-1.5367939186562825
10.313941611599617,4.679650851431035,6.784562581188673,-1.6175380764923608
10.360738120113927,4.716248930616638,6.76838720042375,-1.713568968469433
10.407900609420093,4.7517526771042276,6.751251510739056,-1.8242186075760862
10.455418136191135,4.787354307324135,6.733009324663295,-1.9486708590379014
10.503291679264375,4.824379937528959,6.7135226160729164,-2.0860846844969356
10.551535478639664,4.864240469680986,6.692661769227947,-2.2357086550934264
10.600177883336475,4.908398369424436,6.670304682677013,-2.396979792704799
10.649261867030718,4.958352991684774,6.646334884749965,-2.56960485514746
10.698845396947567,5.015645027200527,6.6206388361984905,-2.753626390690242
10.749001847219573,5.081879549307463,6.593102572291588,-2.9494788982034508
10.799820642712648,5.15876702994888,6.563607783309553,-3.1580423427548103
10.851408313012136,5.248182426673104,6.532027359882005,-3.3807014629335423
10.903890137278868,5.352243851073395,6.49822034525267,-3.6194202328221294
10.957412575789602,5.47341428124225,6.462026142924449,-3.8768419444134197
11.012146718602025,5.6146321733603495,6.423257723480315,-4.156426956377401
11.068293040335629,5.779479478315323,6.381693453916541,-4.462642214464146
11.126087835118781,5.972397891288142,6.3370670317719,-4.80121846789796
11.185811814031663,6.198964295103868,6.28905484709292,-5.179490073446629
11.247801456982701,6.466228861051615,6.237259946358454,-5.606820701240288
11.312463745593217,6.783088959652375,6.181191739346051,-6.095074751799219
11.38029463518974,7.160577522848283,6.120240991828059,-6.65896073325681
11.451900410418222,7.611675173338945,6.053651384495491,-7.3156939951153745
11.528017162151611,8.149527566650956,5.9804944445443375,-8.082403850693693
11.609512437818122,8.78111868259431,5.899670406037401,-8.967139494168963
11.697323624644065,9.489610206431,5.8099990110957105,-9.943935542590697
11.792219726708375,10.19490353441419,5.710559655669804,-10.897269433719561
11.894168762052516,10.701148036699141,5.601586961332608,-11.54821088225033
12.001180242419506,10.738164475421241,5.486104852510105,-11.512722056114486
12.10856188717372,10.238776615654166,5.370977631948961,-10.691601390875915
12.21094965333026,9.485677730431586,5.264061618040201,-9.477285788638362
12.305806430634576,8.769848551787154,5.169288760153817,-8.275654673258533
12.393504916152446,8.19298429438559,5.086532213421232,-7.228932827557544
12.475434759096302,7.754551466137637,5.014242885145657,-6.3363642494518935
12.552980273757678,7.42998710255171,4.950879242651138,-5.563026287969187
12.627280144783194,7.195681020776719,4.895248979771446,-4.874777537255278
12.699236954990962,7.033459466009552,4.846501204398893,-4.244744586847319
12.769571549651058,6.930018881868234,4.80405375853042,-3.6528005734940034
12.83887173846974,6.875596811030734,4.76752575279548,-3.084001983338611
12.907627706580048,6.862813650066259,4.736685732962094,-2.527293262454604
12.97625584308071,6.885796330871218,4.711412800337548,-1.9746377734595315
13.045113806389422,6.939531873615762,4.691666422602953,-1.4204934332673207
13.11450912512558,7.01939143259336,4.67746148827028,-0.8615235887930007
13.184703039451513,7.120787892106813,4.66884625238235,-0.2964450425678826
13.255910918372582,7.238952053144714,4.6658818019566715,0.27407222404617226
13.328300438904028,7.3688266819215,4.668622524197133,0.8475284050537312
13.401988705723243,7.505081838859916,4.67709780824767,1.419801238907369
13.477039524111841,7.642248347456074,4.691295820636744,1.9854759595972928
13.553462007586402,7.7749507634833,4.711150580232717,2.5383039042652786
13.631211515221235,7.898201887536433,4.736533619275369,3.0717577459100758
13.7101935340966,8.007705519414005,4.76725119673447,3.579617758342831
13.79027058929074,8.100110319972963,4.803047374317899,4.05650625165269
13.87127169249047,8.17316873529456,4.843612436834426,4.498293517181613
13.953003379843416,8.225777998093672,4.888595372006242,4.9023263972458935
14.035261159824353,8.257907220760686,4.937618635978701,5.267469458780911
14.11784023203196,8.270436564912004,4.9902933305665105,5.593984960277814
14.200544597681079,8.264945742917305,5.046233180169288,5.883300925385379
14.283194055110252,8.243489074915992,5.105066189423142,6.137723252370921
14.365628945859413,8.208386323782081,5.166443421946851,6.360140909477795
14.447712809097235,8.162047268596284,5.230044831041629,6.553759076137241
14.529333281783197,8.106837342631144,5.295582421803001,6.72187957029259
14.61040165520951,8.04498376958789,5.362801217505927,6.867734948404237
14.690851492905388,7.97851696280853,5.43147856698997,6.994373826097718
14.770636662533473,7.909239991756678,5.501422305250947,7.10459011551267
14.84972906245104,7.838718792621093,5.572468206406073,7.200887068366469
14.92811625037725,7.768286676240207,5.644477077089738,7.285467146049978
15.005799117139652,7.699057956057258,5.717331748550238,7.360239883007233
15.082789696700225,7.63194680820451,5.790934147380311,7.426841425716572
15.15910916478227,7.56768859867711,5.865202561637476,7.486660937998002
15.234786050769042,7.506861804388502,5.9400691710174565,7.5408703786275435
15.309854668812926,7.449909318799402,6.015477874803732,7.590455216073005
15.38435376200092,7.397158402471965,6.091382426964462,7.636244451485301
15.45832534602564,7.348838856846924,6.167744871479315,7.6789389095561
15.53181373459411,7.305099206121843,6.244534260574876,7.719137171606416
15.604864726655329,7.266020801011201,6.32172563229094,7.757358808877804
15.67752493466544,7.23162983544476,6.399299220379718,7.794064762765017
15.749841233019888,7.201907311963159,6.477239868007368,7.829674841399496
15.82186030613952,7.176797016966507,6.555536616421363,7.864582380121275
15.893628276309185,7.156211581821493,6.634182440222576,7.8991661623769085
15.9651903921274,7.140036715519112,6.713174101846345,7.933799727942063
