th1 (rad),w1 (rad/s),th2 (rad),w2 (rad/s),a1 (rad/s^2),a2 (rad/s^2)
0.09404673342063394,2.6244520727236242,1.4639527432783332,2.555078591637659,4.0035282857926,-17.29221962664583
0.12029125414787017,2.6644873555815503,1.4895035291947099,2.3821563953712004,3.345106926199169,-17.393131326364195
0.1469361277036857,2.697938424843542,1.513325093148422,2.2082250821075586,2.7250859573208217,-17.464312992077303
0.17391551195212113,2.72518928441675,1.5354073439694975,2.0335819521867857,2.1453150647627552,-17.504191514676272
0.20116740479628864,2.7466424350643774,1.5557431634913654,1.858540037040023,1.6072192795648648,-17.51208564946352
0.22863382914693242,2.762714627860026,1.5743285638617657,1.6834191805453877,1.1117829002945108,-17.488127580551474
0.25626097542553267,2.773832456862971,1.5911627556672197,1.508537904739873,0.659549004362168,-17.433174886299884
0.2839992999941624,2.7804279469065927,1.6062481347146185,1.334206155876874,0.25063228986180236,-17.348715356044227
0.31180357946322834,2.7829342698052106,1.6195901962733872,1.1607190023164318,-0.11525728702248304,-17.236767246429373
0.33963292216128044,2.781781696934986,1.6311973862965514,0.988351329852138,-0.43878277000991495,-17.099777509562266
0.3674507391306303,2.7773938692348867,1.6410808995950728,0.8173535547565154,-0.7209430955377196,-16.940520295405566
0.39522467782297915,2.7701844382795096,1.649254435142638,0.6479483518024597,-0.9630333197270206,-16.76199765357867
0.42292652220577426,2.7605541050822393,1.6557339186606626,0.48032837526667294,-1.166604773979782,-16.567343863834378
0.45053206325659667,2.7488880573424415,1.6605372024133294,0.31465493662832916,-1.3334276009081658,-16.359734238416497
0.4780209438300211,2.7355537813333597,1.6636837517796126,0.15105759424416418,-1.4654579696673007,-16.142298588911203
0.5053764816433547,2.7208992016366866,1.6651943277220542,-0.010365391644947847,-1.5648121348149258,-15.918038856087453
0.5325854736597215,2.7052510802885372,1.6650906738056048,-0.16954578020582237,-1.6337494107323838,-15.68974967919654
0.5596379844626069,2.6889135861812132,1.6633952160035466,-0.32644327699778775,-1.6746661052026577,-15.459939942164436
0.5865271203244191,2.672166925129187,1.6601307832335688,-0.4810426764194321,-1.6901025047271738,-15.230752586895878
0.6132487895757109,2.655265900081915,1.6553203564693744,-0.6333502022883909,-1.6827651334167615,-15.003879240745862
0.6398014485765301,2.6384382487477476,1.6489868544464905,-0.7833889946958495,-1.6555667024575795,-14.780465491269258
0.6661858310640075,2.6218825817231717,1.641152964499532,-0.9311936496085421,-1.611686386487444,-14.561002010262342
0.6924046568812392,2.605765717858297,1.6318410280034465,-1.0768036697111656,-1.5546532213336828,-14.345196287165958
0.7184623140598222,2.59021918564496,1.6210729913063349,-1.220255632582825,-1.4884553603995798,-14.131819674483733
0.7443645059162718,2.5753346320409642,1.6088704349805065,-1.3615738293276625,-1.4176773952404058,-13.91852511166303
0.7701178522366814,2.5611578580885603,1.5952546966872299,-1.5007590804442927,-1.3476665253863784,-13.70163282696054
0.795729430817567,2.5476811928346965,1.580247105882787,-1.637775408713898,-1.2847254246727362,-13.475885362294362
0.8212062427459139,2.534833938587969,1.563869351795648,-1.7725342623368416,-1.2363242982028424,-13.234180639463078
0.8465545821317936,2.5224706956059406,1.5461440091722796,-1.9048760687314723,-1.2113156760879527,-12.967304093162658
0.871779289087853,2.510357538845061,1.527095248484965,-2.0345491096630988,-1.2201215994097305,-12.66369997788927
0.8968828644763036,2.4981563228509636,1.506749757388334,-2.1611861094419913,-1.2748428927375441,-12.309349352032164
0.9218644277048132,2.485407893923588,1.4851378962939141,-2.284279602962313,-1.38921417309951,-11.887857955310434
0.9467185066440491,2.471515752192593,1.462295100264291,-2.4031581825154174,-1.5782988856039584,-11.380897384083681
0.971433664165975,2.4557327633365533,1.4382635184391368,-2.5169671563562543,-1.8577940678292655,-10.769176437675918
0.9959909917993405,2.4371548226582607,1.4130938468755743,-2.6246589207330135,-2.242810991695224,-10.034123763196014
1.020362540025923,2.4147267127413086,1.3868472576682442,-2.7250001583649737,-2.7460409059340605,-9.160402612300958
1.044509807153336,2.387266303681968,1.3595972560845946,-2.8166041844879834,-3.3753349581096064,-8.139212123396513
1.0683824701901559,2.353512954100872,1.3314312142397147,-2.8979963057219487,-4.1309424499663,-6.972032074669319
1.0919175997311645,2.312203529601209,1.3024512511824953,-2.9677166264686416,-5.0029387886503365,-5.674072501160767
1.1150396350271765,2.2621741417147057,1.2727740849178089,-3.0244573514802493,-5.9696374401995635,-4.2763308009629615
1.1376613764443235,2.20247776731271,1.2425295114030064,-3.067220659489879,-6.997848490547324,-2.8250738658127976
1.1596861541174506,2.1324992824072364,1.2118573048081076,-3.095471398148007,-8.045547400243459,-1.377989399919524
1.181011146941523,2.0520438084048016,1.1809025908266275,-3.109251292147202,-9.06681979364011,0.0027721985081703196
1.201531585025571,1.9613756104684006,1.1498100779051554,-3.1092235701621203,-10.018082010302164,1.2592427203854737
1.221145341130255,1.861194790365379,1.1187178422035342,-3.0966311429582656,-10.863980450314262,2.3457319286916047
1.2397572890339088,1.7525549858622362,1.0877515307739516,-3.0731738236713495,-11.581418593396481,3.2342284746649814
1.2572828388925312,1.6367407999282715,1.057019792537238,-3.0408315389247,-12.160861338264267,3.9159600040940803
1.273650246891814,1.5151321865456289,1.026611477147991,-3.001671938883759,-12.605039048682256,4.3993318410937805
1.2888015687572703,1.3890817960588062,0.9965947577591535,-2.957678620472821,-12.925921203447604,4.705498233807553
1.3026923867178584,1.2598225840243302,0.9670179715544253,-2.9106236381347457,-13.141075894710013,4.863144908597058
1.3152906125581016,1.1284118250772301,0.9379117351730778,-2.861992189048775,-13.270329565499695,4.903759981167772
1.326574730808874,0.9957085294222332,0.90929181328259,-2.8129545892370973,-13.333233314055331,4.858086887025044
1.3365318161030963,0.8623761962816798,0.8811622673902191,-2.764373720366847,-13.347458361201802,4.75391175070797
1.3451555780659132,0.7289016126696618,0.8535185301865507,-2.7168346028597674,-13.327998499733095,4.614996725491981
1.3524445941926098,0.5956216276723308,0.826350184157953,-2.6706846356048475,-13.28695786910311,4.460836063846018
1.358400810469333,0.46275204898129974,0.7996433378019046,-2.6260762749663873,-13.233701734160281,4.3069155470132
1.363028330959146,0.33041503163969693,0.7733825750522407,-2.5830071194962554,-13.17519398804799,4.165224236146965
1.3663324812755429,0.19866309175921704,0.7475525038572781,-2.541354877134786,-13.116401543660718,4.0448491610655655
1.368319112193135,0.06749907632260985,0.7221389550859303,-2.50090638552413,-13.060694399772556,3.9525531779050143
1.3689941029563613,-0.06310786767511573,0.697129891230689,-2.46138085374508,-13.010205303463543,3.8932861884115897
1.36836302427961,-0.19320992070975115,0.6725160826932383,-2.422447991860964,-12.966135357964419,3.8706116094290475
1.3664309250725126,-0.3228712742893953,0.6482916027746286,-2.3837418757666735,-12.929004703113591,3.8870479161917273
1.3632022123296186,-0.4521613213205312,0.6244541840169618,-2.344871396604756,-12.898853727369916,3.9443338856471204
1.3586805991164133,-0.5811498585942304,0.6010054700509143,-2.305428057748285,-12.875402698825216,4.043629479343669
1.352869100530471,-0.7099038855824826,0.5779511894734315,-2.264991762954848,-12.858177982528447,4.185664627846734
1.3457700616746462,-0.8384856654077671,0.555301271843883,-2.2231351166763806,-12.846612243020802,4.370847067776957
1.3373852050205686,-0.9669517878379752,0.5330699206771192,-2.179426645998611,-12.840124850690087,4.599338732368295
1.327715687142189,-1.095353036344876,0.5112756542171332,-2.133433258674928,-12.838187455856886,4.87110847479096
1.3167621567787402,-1.223734910903445,0.4899413216303839,-2.0847221739270183,-12.840378523493088,5.185967323115034
1.3045248076697058,-1.352138696138376,0.4690940998911137,-2.032862500695868,-12.84642959099208,5.543591095553851
1.291003420708322,-1.4806029920482966,0.448765474884155,-1.9774265897403296,-12.856265124378892,5.943534036625954
1.2761973907878392,-1.6091656432920856,0.42899120898675175,-1.91799124937407,-12.870037080320339,6.385236122106698
1.2601057343549185,-1.7378660140952888,0.40981129649301107,-1.854138888153003,-12.888154593765792,6.868025755954138
1.2427270742139656,-1.8667475600329468,0.39126990761148106,-1.7854586305934617,-12.911308556477966,7.391118665883671
1.224059598613636,-1.9958606455977266,0.37341532130554644,-1.711547443934625,-12.940490173184365,7.953612803308231
1.2041009921576586,-2.1252655473295703,0.3562998468662002,-1.6320113159015426,-12.977001809113444,8.55447785745453
1.182848336684363,-2.255035565420705,0.33997973370718476,-1.5464665373269972,-13.022457483732328,9.19253646467832
1.160297981030156,-2.385260140258028,0.3245150683339148,-1.454541172680214,-13.078769097088795,9.86643215295196
1.1364453796275755,-2.516047831228916,0.3099696566071127,-1.3558768511506945,-13.14811272722468,10.574576268449723
1.1112849013152863,-2.6475289585011628,0.29641088809560573,-1.2501310884661971,-13.232866874496207,11.315062262116001
1.0848096117302748,-2.779857627246125,0.28390957721094373,-1.136980465845037,-13.335511029480315,12.085530333542698
1.0570110354578135,-2.913212737540928,0.27253977255249334,-1.0161251625096102,-13.458467976494209,12.882957965926636
1.0278789080824042,-3.04779741730587,0.2623785209273972,-0.8872955828503438,-13.603866270387494,13.70334162721882
0.9974009339093455,-3.183836080009745,0.25350556509889377,-0.7502621665781556,-13.773189712107722,14.541221060876863
0.965562573109248,-3.321567977130822,0.24600294343311221,-0.604849955969387,-13.9667678170646,15.38897946153909
0.9323468933379397,-3.461235655301468,0.23995444387341835,-0.4509601613539961,-14.18304503639387,16.235830379405876
0.8977345367849251,-3.6030661056654067,0.23544484225987838,-0.2886018575599373,-14.417547880117676,17.06637719164866
0.861703875728271,-3.7472415844665834,0.23255882368427902,-0.11793808564345068,-14.661452029456491,17.85860944544545
0.8242314598836051,-3.893856104761148,0.2313794428278445,0.06064800881100382,-14.899646095348396,18.58119724815369
0.7852928988359936,-4.042852565714632,0.23198592291595455,0.2464599812925407,-15.108216792959848,19.189992042982965
0.7448643731788473,-4.193934733644231,0.23445052272887995,0.4383599017223704,-15.251384202316856,19.623800355428493
0.702925025842405,-4.3464485756674,0.23883412174610366,0.6345979052766553,-15.278167178570289,19.799868690155012
0.659460540085731,-4.499230247453102,0.2451801007988702,0.8325965921782054,-15.119558425226467,19.610244662134203
0.6144682376112,-4.650425831705367,0.25350606672065223,1.0286990387995474,-14.687826531282372,18.921385994732457
0.5679639792941463,-4.79730409701819,0.2637930571086477,1.217912898746872,-13.880684190143135,17.580988679058443
0.5199909383239645,-4.936110938919621,0.2759721860961164,1.3937227855374563,-12.593979814735361,15.4372873810584
0.47062982893476824,-5.062050737066975,0.28990941395149095,1.5480956593480404,-10.745992965003122,12.375186120223587
0.4200093215640985,-5.169510666717006,0.30539037054497137,1.6718475205502763,-8.31232681726422,8.367619145150949
0.3683142148969284,-5.252633934889648,0.32210884575047416,1.7555237120017857,-5.361704374445534,3.5279790859655895
0.3157878755480319,-5.306250978634103,0.339664082870492,1.7908035028614415,-2.073189328162809,-1.864673131839962
0.26272536576169087,-5.326982871915731,0.3575721178991064,1.772156771543042,1.2854355049144808,-7.39707605130432
0.20945553704253356,-5.314128516866586,0.37529368561453685,1.6981860110299987,4.4209417309039365,-12.614262412007989
0.1563142518738677,-5.269919099557547,0.39227554572483686,1.5720433869099188,7.093970609696986,-17.136346448319475
0.10361506087829223,-5.1989793934605775,0.4079959795939361,1.4006799224267241,9.17469930831783,-20.742092530060326
0.05162526694368645,-5.1072324003773995,0.4220027788182033,1.193258997126121,10.651480770972745,-23.384670588472353
0.0005529429399124541,-5.000717592667672,0.43393536878946454,0.9594122912413974,11.60015091350763,-25.149667566278225
-0.04945423298676427,-4.884716083532596,0.4435294917018785,0.707915615578615,12.139403140219482,-26.19148732387291
-0.09830139382209023,-4.763322052130401,0.45060864785766463,0.44600074233988596,12.393652096443548,-26.67926334465704
-0.14593461434339425,-4.639385531165965,0.4550686552810635,0.17920810889331557,12.47143168948259,-26.764505140866955
-0.1923284696550539,-4.514671214271139,0.45686073636999663,-0.088436942515354,12.457365658652598,-26.56822387737854
-0.2374751817977653,-4.390097557684613,0.4559763669448431,-0.3541191812891394,12.412382858084381,-26.180181663627984
-0.2813761573746114,-4.265973729103769,0.4524351751319517,-0.6159209979254192,12.377553321358096,-25.66369372887626
-0.3240358946656491,-4.142198195890188,0.4462759651526975,-0.8725579352141819,12.378745630368751,-25.061910333685024
-0.365457876624551,-4.018410739586501,0.4375503858005557,-1.1231770385510322,12.430811945128449,-24.403627911746604
-0.405641984020416,-3.8941026201352162,0.4263186154150454,-1.3672133176684982,12.540896382026778,-23.707959925772798
-0.44458301022176816,-3.7686936563149485,0.4126464822383604,-1.604292916926226,12.710879627042006,-22.987816612577216
-0.48226994678491764,-3.6415848600445284,0.39660355306909817,-1.8341710830519982,12.93912041695543,-22.252376219182494
-0.518685795385363,-3.5121936558749742,0.37826184223857817,-2.056694845243823,13.22167578518574,-21.508778759585155
-0.5538077319441127,-3.379976898023117,0.35769489378613994,-2.271782632839675,13.553155356049425,-20.763248819934372
-0.5876075009243439,-3.2444453444626227,0.3349770674577432,-2.4794151210390187,13.927327100063389,-20.02180974527907
-0.6200519543689701,-3.105172073461989,0.310182916247353,-2.6796332184918095,14.337557176890261,-19.29070913011793
-0.65110367510359,-2.9617965016930863,0.2833865840624349,-2.872540309792989,14.777138862367336,-18.57664144010177
-0.6807216401205208,-2.814025113069413,0.254661180964505,-3.0583067241940065,15.239545037432764,-17.88682818204956
-0.708861891251215,-2.6616296626950855,0.22407811372256495,-3.237175006014502,15.718623948383431,-17.22899759656012
-0.7354781878781659,-2.504443423211251,0.19170636366241994,-3.4094649819801033,16.208747368694347,-16.611292255474854
-0.7605226221102784,-2.3423559495243076,0.1576117138426189,-3.575577904534852,16.70491249751701,-16.04212227108039
-0.7839461816055215,-2.1753068245491374,0.12185593479727039,-3.735999127245656,17.202792712964804,-15.529972423959235
-0.8056992498510129,-2.0032788974194893,0.08449594352481382,-3.891298851485248,17.698726584187124,-15.083161972070743
-0.8257320388252078,-1.826291631577618,0.04558295500996134,-4.042130471205955,18.189628295624214,-14.709544887045892
-0.843994955140984,-1.644395348621376,0.005161650297901783,-4.189225920076415,18.672794762817222,-14.416124407526103
-0.8604389086271977,-1.4576674009932038,-0.036730608902862366,-4.3333871641516755,19.145574048627857,-14.208537612199608
-0.8750155826371298,-1.2662116605069251,-0.08006448054437912,-4.475472540273672,19.60484502988891,-14.09034162918621
-0.887677699242199,-1.070163210208036,-0.12481920594711585,-4.616375956565534,20.046238717307638,-14.062001840089744
-0.8983793313442794,-0.8697008230349597,-0.1709829655127712,-4.756995974966431,20.463007431049974,-14.11944412386499
-0.907076339574629,-0.6650707487244599,-0.21855292526243553,-4.898190416205081,20.84442249741977,-14.251991945296762
-0.9137270470618736,-0.45662652375026225,-0.26753482942448636,-5.040710335658049,21.1735647187259,-14.43947863335741
-0.9182933122993762,-0.24489087656300326,-0.31794193278106686,-5.185105121991623,21.42438988502786,-14.648339503514206
-0.9207422210650062,-0.03064697771272465,-0.3697929840009831,-5.331588517026765,21.55805701162076,-14.826619848959263
-0.9210486908421335,0.18493359240348298,-0.42310886917125073,-5.479854715516358,21.51879708097115,-14.898217744232158
-0.9191993549180987,0.4001215632131945,-0.4779074163264143,-5.628836892958679,21.230224694468042,-14.757525030894001
-0.9151981392859667,0.612423810157875,-0.5341957852560011,-5.776412143267619,20.59411526678969,-14.2671672229703
-0.909073901184388,0.8183649628257719,-0.5919599066886773,-5.919083815497322,19.495273968778818,-13.263774882647876
-0.9008902515561303,1.01331770251356,-0.6511507448436504,-6.051721564323801,17.817571370046526,-11.578791779472159
-0.8907570745309947,1.1914934162140254,-0.7116679604868884,-6.167509482118522,15.475594716319947,-9.080613520996637
-0.8788421403688544,1.3462493633772248,-0.7733430553080737,-6.258315617328488,12.460454269491022,-5.736419175065947
-0.8653796467350822,1.470853906072135,-0.8359262114813586,-6.315679809079148,8.885291736163346,-1.6743537853013561
-0.8506711076743608,1.5597068234337685,-0.89908300957215,-6.332423346932162,5.001907183212001,2.792692501000622
-0.8350740394400231,1.6097258952658886,-0.9624072430414716,-6.304496421922155,1.1613777373027165,7.218665811845792
-0.8189767804873642,1.6213396726389158,-1.025452207260693,-6.2323097638036975,-2.2784699343768864,11.147495241328754
-0.8027633837609751,1.598554973295147,-1.08777530489873,-6.12083481139041,-5.0546517764984795,14.248070492250728
-0.7867778340280236,1.548008455530162,-1.148983653012634,-5.978354106467903,-7.055008567724335,16.387385660311708
-0.771297749472722,1.4774583698529187,-1.208767194077313,-5.814480249864786,-8.30847291583065,17.61557623724776
-0.7565231657741929,1.3943736406946121,-1.266911996575961,-5.638324487492309,-8.933045055477374,18.095359281728868
-0.7425794293672467,1.3050431901398385,-1.323295241450884,-5.45737089467502,-9.078689874068033,18.026172238667748
-0.7295289974658483,1.2142562913991581,-1.3778689503976342,-5.277109172288343,-8.88782511431806,17.592903319233884
-0.7173864345518567,1.1253780402559777,-1.4306400421205177,-5.101180139096004,-8.476884677985995,16.943089416933972
-0.7061326541492969,1.0406091934761177,-1.4816518435114776,-4.931749244926665,-7.932616081014508,16.183533324748723
-0.6957265622145358,0.9612830326659726,-1.5309693359607444,-4.769913911679177,-7.3156751688275845,15.386186643064756
-0.686113731887876,0.8881262809776967,-1.5786684750775362,-4.61605204524853,-6.66649772060499,14.59661793176868
-0.6772324690780991,0.8214613037716468,-1.6248289955300215,-4.470085865930844,-6.010954945047346,13.841856782694245
-0.6690178560403827,0.7613517543211734,-1.66952985418933,-4.331667298103901,-5.364908314560165,13.136557065564244
-0.661404338497171,0.7077026711755717,-1.712846527170369,-4.200301727448259,-4.737562892059154,12.487439584760933
-0.6543273117854153,0.6603270422549802,-1.7548495444448515,-4.0754273316006495,-4.133810917113818,11.896332062381134
-0.6477240413628654,0.618988933083842,-1.795603817760858,-3.956464010976838,-3.555816940924281,11.362178132723889
-0.641534152032027,0.5834307636745991,-1.8351684578706264,-3.842842229649599,-3.00406636632246,10.882330675013772
-0.635699844395281,0.5533901000113746,-1.8735968801671223,-3.734018922899461,-2.4780474631253893,10.453365398634372
-0.6301659433951673,0.5286096253801207,-1.910937069396117,-3.6294852689131174,-1.9766884514385095,10.071580140660318
-0.6248798471413661,0.5088427408657356,-1.947231922085248,-3.528769467506514,-1.4986332717983928,9.733291678783468
-0.6197914197327088,0.4938564081477516,-1.9825196167603132,-3.4314365507186793,-1.0424122445318278,9.435003890435276
-0.6148528556512313,0.48343228570243335,-2.0168339822675,-3.3370865118143267,-0.6065448728317326,9.173495284146187
-0.6100185327942069,0.477366836974116,-2.0502048473856433,-3.2453515589728648,-0.1895992724193894,8.945856807833835
-0.6052448644244658,0.47547084424992214,-2.082658362975372,-3.1558929908945266,0.20977577297446195,8.74949964419654
