th1 (rad),w1 (rad/s),th2 (rad),w2 (rad/s)
5.005853628078154,1.2925229674915641,0.2632060429220091,1.2963299450640409
5.01877885775307,1.395417110228761,0.2761693423726495,1.2510210817998744
5.032733028855358,1.4974191382292976,0.28867955319064825,1.201754125736815
5.04770722023765,1.598498096916284,0.3006970944480164,1.1482433522913131
5.0636922012068135,1.6986327266486985,0.3121795279709295,1.0902143823716126
5.0806785284733005,1.7978140342375375,0.32308167179464564,1.0274044938080609
5.098656668815676,1.8960479734630158,0.33335571673272624,0.9595626795106326
5.117617148550306,1.9933582313569411,0.3429513435278326,0.8864493842285236
5.137550730863876,2.089789118152669,0.3518158373701178,0.8078358475866793
5.158448622045403,2.185408561241212,0.3598941958459846,0.7235029774393157
5.180302707657815,2.2803112073693064,0.36712922562037775,0.6332396746867917
5.203105819731508,2.3746216427689286,0.37346162236724567,0.5368405287532744
5.2268520361591975,2.4684977478909365,0.3788300276547784,0.43410280219406855
5.2515370136381065,2.5621342116954047,0.3831710556767191,0.32482262382772265
5.277158355755061,2.65576623945948,0.38641928191499636,0.20879031312129342
5.303716018149656,2.7496734966903293,0.3885071850462093,0.08578476564451952
5.331212753116559,2.844184337991339,0.3893650327026545,-0.044433157336794246
5.359654596496473,2.9396803702179617,0.38892070112928656,-0.18212826836768342
5.389051400198652,3.036601388241411,0.38709941844560974,-0.32759971408734284
5.4194174140810665,3.1354506895403,0.3838234213047363,-0.48119057574050167
5.45077192097647,3.2368007047203307,0.37901151554733126,-0.6432982047226564
5.4831399280236734,3.3412987483779983,0.37257853350010467,-0.8143848741505942
5.516552915507454,3.4496724542723713,0.36443468475859875,-0.9949879627629338
5.551049640050177,3.5627340369916274,0.3544848051309694,-1.1857282688097757
5.586676980420093,3.6813817972067064,0.34262752244287165,-1.3873140078186363
5.623490798392161,3.806596058486826,0.3287543823646853,-1.6005362977444333
5.661556758977029,3.939424665504859,0.312749019387241,-1.8262490228755144
5.700951005632078,4.080949775543211,0.29448652915848583,-2.065321180244213
5.74176050338751,4.232222179685656,0.2738333173560437,-2.318542093386789
5.7840827251843665,4.394140800418701,0.25064789642217583,-2.586447847280584
5.828024133188554,4.567242391325689,0.22478341794936998,-2.86901967771096
5.873696557101811,4.751350110802341,0.19609322117226038,-3.165182335075283
5.921210058209834,4.945014498688393,0.16444139782150757,-3.472009727811197
5.970660203196718,5.144684108717266,0.1297213005433956,-3.7835514992711468
6.02210704428389,5.343610645600446,0.09188578555068412,-4.089291238194894
6.075543150739895,5.530709979127242,0.05099287316873518,-4.372554709555904
6.130850250531167,5.690053443288576,0.007267326073176143,-4.609827711110962
6.187750784964053,5.802238848589354,-0.03883095103793348,-4.7727543893212045
6.245773173449947,5.848870418820596,-0.08655849493114552,-4.834552769867482
6.304261877638153,5.81954248698508,-0.13490402262982035,-4.779982254319698
6.362457302508004,5.717388722221667,-0.18270384517301733,-4.61327602428578
6.41963118973022,5.55844094102016,-0.22883660541587514,-4.357286125160452
6.475215599140421,5.364818636982437,-0.27240946666747967,-4.043842162577781
6.528863785510246,5.157019993464335,-0.3128478882932575,-3.7027702274561456
6.580433985444889,4.949792377812248,-0.349875590567819,-3.3559361361902935
6.629931909223011,4.751803073059936,-0.3834349519297219,-3.0166717539824517
6.67744993995361,4.567129416619927,-0.4136016694695464,-2.6918101728695647
6.72312123411981,4.396964346145095,-0.44051977119824204,-2.3840622785225314
6.767090877581261,4.240906752506723,-0.46436039398346735,-2.09383133474857
6.809499945106328,4.097778544987112,-0.48529870733095304,-1.8203714134038382
6.850477730556199,3.966091808823869,-0.5035024214649915,-1.5624559845002197
6.890138648644438,3.8442966464175212,-0.5191269813099937,-1.3187368723968018
6.928581615108613,3.7309028755257416,-0.5323143500339617,-1.0879232794346696
6.965890643863871,3.624533074828109,-0.5431935828283083,-0.8688614382689294
7.002135974612152,3.523939998656011,-0.5518821972109976,-0.6605615001073495
7.037375374598712,3.428006547894522,-0.5584878122120711,-0.46219757651372634
7.071655440077657,3.3357380041535016,-0.5631097879772083,-0.2730949747471962
7.1050128201191916,3.2462515388006827,-0.5658407377246804,-0.09271206172566976
7.137475335507198,3.158765460389872,-0.5667678583419371,0.07937940935072643
7.169062990111097,3.072589304964371,-0.5659740642484299,0.24351360817952722
7.199788883160741,2.9871151643382703,-0.5635389281666346,0.39994868982366133
7.229660034804123,2.901810290141724,-0.559539441268398,0.5488832523189078
7.25867813770554,2.8162108434954307,-0.554050608745209,0.6904710911115357
7.286840246140494,2.729916593151142,-0.5471458978340936,0.8248342730702832
7.314139412072006,2.642586350744804,-0.5388975551033908,0.9520746033885409
7.340565275579454,2.55393394438253,-0.5293768090695053,1.0722835754925708
7.366104615023279,2.4637245569628803,-0.5186539733145796,1.1855508964166863
7.390741860592908,2.371771285735958,-0.5067984643504128,1.291971677742505
7.414459573450268,2.277931810417821,-0.4938787475729877,1.391652379638585
7.437238891554446,2.1821050864360334,-0.47996222377660186,1.484715594481348
7.459059942418806,2.084228006356784,-0.46511506783178835,1.5713037572470976
7.479902222482374,1.9842719956192643,-0.44940203025931735,1.6515818719257414
7.499744942438567,1.8822395281248632,-0.43288621154005996,1.725739345967881
7.518567337719816,1.778160562972167,-0.41562881808038116,1.7939910275808222
7.536348943349537,1.6720889158196093,-0.39768890780457294,1.856577542987603
7.553069832507734,1.5640985872220377,-0.3791231323746969,1.9137650321618709
7.568710818379954,1.4542800761159078,-0.35998548205307823,1.9658443818131073
7.5832536191411135,1.3427367097473324,-0.34032703823494714,2.013130053423016
7.596680986238587,1.2295810220905121,-0.32019573770071696,2.055958601938132
7.608976796459492,1.1149312115337906,-0.2996361516813356,2.0946869774019334
7.62012610857483,0.9989077056486764,-0.2786892819073163,2.129690697515242
7.6301151856313165,0.8816298565183579,-0.2573923749321639,2.16136197403642
7.6389314841965,0.763212784680464,-0.2357787551917997,2.190107870284044
7.6465636120433045,0.6437643835059507,-0.21387767648895925,2.216348561005506
7.6530012558783636,0.5233824890416268,-0.19171419087890418,2.2405157597473426
7.65823508076878,0.4021522132161084,-0.16930903328143077,2.2630513728216104
7.662256602900941,0.2801434310563349,-0.14667851955321465,2.284406433204347
7.665058037211504,0.15740840537662124,-0.12383445522117117,2.30504036239404
7.666632121265271,0.03397952546818196,-0.10078405159723078,2.3254206035182303
7.666971916519953,-0.09013287017779352,-0.07752984556204848,2.346022664848292
7.666070587818175,-0.21494262292047897,-0.054069618913565556,2.3673306092955246
7.66392116158897,-0.3404898755036453,-0.03039631282061031,2.389838022173555
7.660516262833934,-0.4668432303409311,-0.00649793259887476,2.4140494860192305
7.655847830530524,-0.5941019903905997,0.017642562261317545,2.4404825866645803
7.649906810626618,-0.7223985270203355,0.042047388127963346,2.4696704675292924
7.642682825356415,-0.8519008131588843,0.06674409280325627,2.502164936784721
7.6341638172248265,-0.9828151465830031,0.09176574217110348,2.5385401106616006
7.624335665758997,-1.1153890630812304,0.11715114327771949,2.579396539422848
7.613181775128185,-1.2499143955553422,0.14294510867194796,2.6253657003924955
7.600682631172631,-1.3867303618308564,0.16919876567587291,2.677114639088212
7.586815327554323,-1.5262264435173805,0.19596991206675504,2.735350369947644
7.571553063119149,-1.6688446229758842,0.2233234157662315,2.80082337301785
7.55486461688939,-1.8150802318200059,0.25133164949641,2.8743290807022057
7.53671381457119,-1.9654801648844158,0.28007494030343205,2.956705543778238
7.517059012922346,-2.1206364252756247,0.3096419957412144,3.04882435298975
7.495852648669589,-2.281171736637669,0.3401302392711119,3.1515701564841736
7.4730409313032125,-2.4477120744608336,0.37164594083595365,3.26580145251071
7.448563810558604,-2.6208381593534913,0.40430395536106073,3.3922813698623226
7.422355428965069,-2.801003959005826,0.43822676905968394,3.5315615033355976
7.394345389375011,-2.9884050257160473,0.47354238409303995,3.683794492894882
7.364461339117851,-3.1827738259854996,0.5103803290219888,3.8484430060227717
7.332633600857996,-3.383076000089858,0.5488647590822165,4.023848182412144
7.298802840857097,-3.5870882589230604,0.589103240906338,4.206630037635898
7.262931958267867,-3.7908710351427266,0.631169541282697,4.390937858022782
7.22502324791644,-3.98823186951833,0.6750789198629248,4.567685281438567
7.185140929221256,-4.1704295103783116,0.7207557726773105,4.724121901630175
7.143436634117473,-4.326560468799282,0.7679969916936122,4.844364325513189
7.10017102942948,-4.445123654662711,0.8164406349487441,4.9115878563844575
7.055719792882853,-4.516849853550963,0.8655565135125887,4.912007882040828
7.010551294347343,-4.53788613764099,0.9146765923329969,4.839379584114955
6.965172432970934,-4.511540256779329,0.9630703881741465,4.6974961126876025
6.92005703040314,-4.447278419198245,1.0100453493010224,4.498841948580462
6.875584246211158,-4.357550934636049,1.055033768786827,4.260191889677601
6.832008736864798,-4.2544047944061525,1.097635687683603,3.997890665927402
6.789464688920736,-4.147413332069065,1.137614594342877,3.724955647884399
6.747990555600046,-4.043133741293729,1.174864150821721,3.4503042670144075
6.707559218187108,-3.945500693707505,1.209367193491865,3.1792862489813696
6.668104211250033,-3.856528781108177,1.2411600559816787,2.914649117366748
6.629538923438951,-3.7769700434082036,1.270306547155346,2.6574450784520476
6.591769223004869,-3.7068084662307257,1.2968809979398666,2.4077146789737744
6.554701138342562,-3.6455917866900096,1.3209581447296044,2.164947121870959
6.518245220475662,-3.5926388192412424,1.342607615948314,1.9283697127424266
6.48231883228325,-3.547162262505521,1.3618913130757382,1.697121372414631
6.446847209658195,-3.5083378024844074,1.3788625267998844,1.4703525110782836
6.41176383163335,-3.47534052415985,1.3935660519106672,1.24728000803112
6.3770104263917515,-3.4473620906937144,1.4060388519909783,1.0272156030716393
6.342536805484815,-3.4236170161154034,1.4163110080216947,0.8095789119426112
6.30830063532366,-3.4033430770767032,1.424406797141121,0.5939017449812238
6.274267204552894,-3.3857988818783213,1.4303458145909331,0.37982760713157016
6.24040921573411,-3.3702603849291823,1.434144090662249,0.1671085616352563
6.206706611884818,-3.356017395420012,1.4358151762786016,-0.04439937171343267
6.173146437930618,-3.342370685338451,1.4353711825614672,-0.2547417063750802
6.139722731077233,-3.328630033815698,1.4328237654977165,-0.46387162897347467
6.106436430739076,-3.3141133793672473,1.4281850492079817,-0.671656735859885
6.073295296945403,-3.298147145372993,1.4214684818493828,-0.8778864023356556
6.0403138254916735,-3.280067731556832,1.4126896178260262,-1.0822798512014549
6.0075131481761055,-3.2592241106162154,1.4018668193140116,-1.2844949816120892
5.974920907069944,-3.234981426503181,1.3890218694978906,-1.4841379915121868
5.942571092804911,-3.2067254551614233,1.3741804895827687,-1.680773786839161
5.910503838253297,-3.1738677581228174,1.3573727517143772,-1.8739371250263377
5.878765160672069,-3.1358513338993155,1.3386333804641137,-2.0631443941554712
5.8474066473330755,-3.0921565518211995,1.318001936522559,-2.2479058861560257
5.8164850818148635,-3.0423071383022067,1.2955228776609988,-2.4277383854658665
5.786062010431841,-2.985875976830411,1.2712454938063402,-2.60217786540703
5.756203250663537,-2.9224904805093206,1.2452237151522698,-2.770792064287422
5.726978345858444,-2.8518372997723613,1.2175157945093955,-2.933192702417455
5.698459972860721,-2.7736661379409315,1.188183867485221,-3.0890470999408244
5.670723311481312,-2.6877924635488313,1.1572933964858128,-3.238088963553755
5.643845386845824,-2.594098930792459,1.1249125068502752,-3.3801281277627453
5.617904397537899,-2.4925353480581642,1.0911112255726478,-3.515059063346498
5.5929790440573175,-2.383117069081423,1.0559606349391828,-3.642868002275383
5.569147873366504,-2.2659217214715044,1.019531954916429,-3.7636385745979974
5.546488656151789,-2.1410842321574735,0.9818955691704491,-3.877555908571142
5.525077813830214,-2.008790157169302,0.9431200100847377,-3.9849092099206413
5.504989912258521,-1.8692673716906842,0.9032709179855313,-4.086092908183914
5.486297238541614,-1.7227762224278618,0.8624099889036921,-4.1816065353695855
5.469069476317336,-1.5695982844679472,0.8205939235499963,-4.272053581637183
5.4533734934726565,-1.4100238953017366,0.7778733877336245,-4.358139650687266
5.439273254519639,-1.2443386563658487,0.7342919912267518,-4.440670310040877
5.4268298679559805,-1.072809095225622,0.6898852881263431,-4.520549094251087
5.416101777003725,-0.8956676691159362,0.6446797971838322,-4.598776168141085
5.407145100312565,-0.7130972654143807,0.5986920355024213,-4.676448187748285
5.400014127658421,-0.5252153229958911,0.5519275536249385,-4.754759902443677
5.394761974428462,-0.33205767215093884,0.5043799546005018,-4.835008012143357
5.391441397706953,-0.13356219032441405,0.45602987447906823,-4.918597709103824
5.3901057758037085,0.0704475689657407,0.40684389738803,-5.007052157441718
5.390810251493366,0.28027843698801,0.35677337581361285,-5.102024825576664
5.393613035863246,0.4963826422502585,0.3057531275578462,-5.205313958351293
5.398576862285749,0.7193702359980914,0.2536999879743333,-5.318877321512979
5.40577056464573,0.9500158807761137,0.2005112147592035,-5.444843247995333
5.4152707234534905,1.1892541839096418,0.14606278227925018,-5.585510210021476
5.427163265292587,1.4381527910110612,0.09020768017903541,-5.743320319996556
5.441544793202698,1.6978437136233375,0.03277447697906985,-5.9207801104662865
5.4585232303389315,1.969378382211833,-0.026433324125593016,-6.120281156274283
5.47821701416105,2.2534473698095603,-0.08763613568833584,-6.34373879417472
5.500751487859145,2.5498689347576398,-0.15107352363008303,-6.591915274230212
5.526250177206721,2.856705748582624,-0.21699267637238515,-6.863229405915564
5.554817234692548,3.1688468271951606,-0.2856249704315408,-7.15181937715686
5.5865057029645,3.475992773983273,-0.3571431642031094,-7.444758218273705
5.6212656307043325,3.760439315220504,-0.43159074638584644,-7.718945610911704
5.6588700238565375,3.996164378340763,-0.5087802024949635,-7.939733875246361
5.698831667639945,4.152199363719728,-0.588177541247427,-8.065400765555488
5.740353661277142,4.202802842854278,-0.6688315489029819,-8.060969723649611
5.782381689705685,4.141060512097728,-0.749441246139478,-7.916752808152298
5.823792294826662,3.9847874422945937,-0.828608774221001,-7.656325459759527
5.863640169249607,3.7676294380795903,-0.9051720288185963,-7.324273298054538
5.901316463630403,3.523497697061958,-0.9784147617991417,-6.965030242062132
5.936551440601023,3.2768800150712876,-1.048065064219763,-6.609959788488194
5.969320240751736,3.041668454611771,-1.114164662104645,-6.276070951589865
5.999736925297853,2.824076007067283,-1.1769253716205437,-5.970173133593479
6.027977685368525,2.6258488713226065,-1.2366271029564784,-5.693297959422862
6.054236174081751,2.4464974587287664,-1.293560082550707,-5.443709829170546
6.0787011486690385,2.2845774111634105,-1.3479971808424125,-5.218597967796577
6.101546922780672,2.1383494792113122,-1.4001831605203783,-5.014922889974561
6.1229304175727854,2.006090869724863,-1.4503323894201239,-4.82979719452705
6.142991326270034,1.8862259893505073,-1.4986303613653944,-4.660630550676962
6.16185358616354,1.7773686132703606,-1.545236666872164,-4.505162782099055
6.179627272296243,1.6783230720600026,-1.5902882946931545,-4.3614479296411
6.1964105030168435,1.5880681935421288,-1.6339027739895655,-4.227819896949664
6.212291184952265,1.505735450847358,-1.6761809729590622,-4.102853929844104
6.227348539460738,1.4305865892293759,-1.7172095122575033,-3.985330118075448
6.2416544053530325,1.3619929562274848,-1.7570628134382578,-3.8742012352022215
6.255274334915307,1.2994172929594876,-1.79580482579028,-3.768565439362426
6.268268507844902,1.2423980677732922,-1.8334904801839043,-3.667643581916476
6.280692488522635,1.1905361470249665,-1.870166916003069,-3.570760582357998
6.292597849992885,1.1434834998840753,-1.9058745218266488,-3.4773302643924375
6.304032684991726,1.100933623886899,-1.9406478244705732,-3.3868430813571218
6.315042021230595,1.0626134054496195,-1.9745162552841444,-3.2988562275802447
6.325668155285092,1.028276170420028,-2.007504817559947,-3.2129857073166073
6.335950916989292,0.9976957226299581,-2.039634674633113,-3.1289000022905533
6.345927874215592,0.9706612083889696,-2.0709236746560182,-3.046315038216004
6.355634486299482,0.9469726801333055,-2.1013868250381784,-2.964990199217096
6.365104213100815,0.926437262654454,-2.131036727030349,-2.8847251777199494
6.3743685857273595,0.908865850716428,-2.1598839788075486,-2.805357477625677
6.383457244234524,0.8940702878495264,-2.1879375535838053,-2.7267604120671405
6.392397947113019,0.8818609930905443,-2.2152051577044767,-2.6488414554197894
6.401216557043925,0.8720450157495802,-2.2416935722586744,-2.5715408239877147
6.40993700720142,0.8644245081466608,-2.2674089804985513,-2.494830172284592
6.418581252282887,0.8587956128214841,-2.2923572822213973,-2.4187113032842444
6.427169208411102,0.8549477640766578,-2.31654439525424,-2.3432148024640207
6.435718686051868,0.8526634039706497,-2.33997654327888,-2.268398517746909
6.444245320091575,0.8517181101829702,-2.3626605284563493,-2.19434582117789
6.452762501193405,0.8518811277776213,-2.3846039866681283,-2.1211636036954538
6.461281312471181,0.8529162891685906,-2.405815622705083,-2.048979971735324
6.469810475362867,0.8545832970707351,-2.4263054224224363,-1.977941633373925
6.4783563083335745,0.8566393345785516,-2.4460848387561756,-1.9082109817219846
6.48692270167936,0.8588409555584234,-2.4651669485733954,-1.8399629034808356
6.495511111234944,0.8609461981505929,-2.4835665776082037,-1.7733813599379293
6.504120573216451,0.8627168552509413,-2.501300391207583,-1.7086558050577736
6.51274774176896,0.8639208292071267,-2.5183869492581605,-1.6459775195832491
6.521386950061031,0.8643344942954286,-2.534846724453993,-1.5855359501986142
6.530030295003986,0.8637449902965313,-2.5507020839559793,-1.527515148071769
6.538667744906951,0.8619523738368119,-2.565977235436697,-1.472090401089319
6.547287268645318,0.8587715609837122,-2.5806981394475903,-1.4194251488261835
6.555874984255156,0.854034004468648,-2.5948923909358523,-1.3696682591652751
6.564415324299842,0.8475890612040149,-2.6085890735275052,-1.3229517312857288
6.572891214911882,0.8393050196344829,-2.6218185908403626,-1.279388872541437
6.581284265108227,0.8290697710035204,-2.634612479565777,-1.2390729778014757
6.589574962818262,0.8167911229161,-2.647003209343792,-1.2020765204162303
6.597742874047423,0.802396766818791,-2.6590239745479542,-1.1684508453318037
6.605766841715611,0.7858339225341405,-2.670708483001272,-1.1382263380510496
6.613625180940953,0.7670686923081185,-2.6820907463817827,-1.1114130289369508
6.621295867864034,0.7460851636992325,-2.6932048766711523,-1.0880015812944197
6.628756719501026,0.7228843050001376,-2.7040848924840963,-1.0679646039846682
6.635985562551027,0.6974826988570664,-2.714764538523943,-1.051258224995593
6.642960389539597,0.6699111595950773,-2.725277120773899,-1.0378238611703994
6.649659501135548,0.640213277814983,-2.735655359385603,-1.0275901207854807
6.656061633913698,0.60844393249494,-2.7459312605934576,-1.0204747793704474
6.662146073238647,0.5746678065082367,-2.756136008387162,-1.0163867745397877
6.66789275130373,0.5389579365384329,-2.76629987613256,-1.0152281721242957
6.673282330669114,0.5013943231691422,-2.776452157853803,-1.0168960630596662
6.678296273900806,0.4620626217272324,-2.7866211184843994,-1.0212843578829243
6.6829169001180775,0.4210529294824072,-2.7968339620632285,-1.0282854529553744
