th1 (rad),w1 (rad/s),th2 (rad),w2 (rad/s)
0.1320929418526249,-2.544153770459703,2.0348516791244644,-0.9487689786580272
0.10665140414802787,-2.578903213150465,2.025363989337884,-1.1089231506896045
0.08086237201652323,-2.6110937813442887,2.014274757830988,-1.2704690221152255
0.054751434203080346,-2.6403077095172476,2.001570067609836,-1.4330963821306482
0.028348357107907868,-2.6661151801406326,1.9872391037885295,-1.5964621423223708
0.00168720530650154,-2.68807711904576,1.971274482365306,-1.7601928800485633
-0.025193565883956062,-2.7057484476796025,1.9536725535648203,-1.9238880709030084
-0.05225105036075209,-2.7186817701378647,1.9344336728557903,-2.087124019156753
-0.07943786806213074,-2.726431461660303,1.9135624326642227,-2.249458482213093
-0.10670218267873377,-2.7285581138290933,1.8910678478420917,-2.4104359723574746
-0.1339877638170247,-2.7246332799409334,1.8669634881185169,-2.569593706520588
-0.16123409661643404,-2.7142444517302855,1.841267551053311,-2.726468162279167
-0.1883765411337369,-2.6970001855427794,1.8140028694305192,-2.8806021855907487
-0.2153465429891647,-2.672535281950895,1.7851968475746118,-3.031552582385736
-0.24207189580867364,-2.6405159075558475,1.7548813217507544,-3.1788981117337936
-0.2684770548842321,-2.600644531473972,1.7230923406334164,-3.322247782661572
-0.29448350019897185,-2.552664532281325,1.6898698628068007,-3.461249339996711
-0.3200101455217851,-2.496364314961684,1.6552573694068335,-3.5955978075600017
-0.34497378867140194,-2.431580763119158,1.6193013913312335,-3.7250439409876743
-0.3692895963025935,-2.3582018412269528,1.5820509519213568,-3.8494024294787907
-0.39287161471486304,-2.2761681570632786,1.5435569276265688,-3.9685596784478716
-0.41563329628549583,-2.1854732977578832,1.5038713308420901,-4.082481006391892
-0.4374880292630747,-2.0861627656597697,1.463046520778171,-4.19121710223403
-0.4583496569196724,-1.9783313633769077,1.4211343497558309,-4.2949096165516645
-0.47813297055344145,-1.8621189105431462,1.3781852535903143,-4.3937958031536954
-0.49675415965887293,-1.7377042164822178,1.3342472955587774,-4.488212186948575
-0.5141312018236951,-1.605297279882494,1.2893651736892917,-4.5785973090099255
-0.53018417462252,-1.465129734518365,1.2435792005991924,-4.665493687819049
-0.5448354719677037,-1.3174436037283197,1.1969242637210018,-4.749549233213552
-0.5580099080049868,-1.1624784602938498,1.1494287713888662,-4.831518452109667
-0.5696346926079253,-1.000457107584961,1.1011135868677695,-4.912263887703481
-0.5796392636837749,-0.8315698988195472,1.0519909479907348,-4.992758331646735
-0.5879549626719704,-0.6559577930213282,1.0020633646742674,-5.074088436576578
-0.5945145406021838,-0.47369421164997744,0.9513224803085016,-5.157460428309663
-0.5992514827186836,-0.28476571775799386,0.899747876025405,-5.244208663616432
-0.6020991398962635,-0.08905150819420499,0.8473057893892406,-5.335807783150277
-0.6029896549782056,0.1136982769377875,0.7939477115577378,-5.433889134438568
-0.6018526722088277,0.323885302118206,0.7396088202133522,-5.540261915824952
-0.5986138191876456,0.5420863729748762,0.6842062010551027,-5.656938978778504
-0.5931929554578967,0.769076117288055,0.6276368112673176,-5.786166151257261
-0.5855021942850162,1.005846166997593,0.569775149754745,-5.93045178815216
-0.5754437326150402,1.253614848744012,0.5104706318732234,-6.092589028951741
-0.5629075841276001,1.5138153483727166,0.449544741583706,-6.275655097846292
-0.547769430643873,1.788038937060194,0.38678819060524305,-6.482956520003147
-0.529889041273271,2.077888857478338,0.3219586254052116,-6.7178603476224446
-0.5091101526984876,2.384662991498301,0.25478002192898713,-6.983399631029934
-0.4852635227835046,2.708720578744054,0.18494602561868778,-7.281453549978794
-0.45817631699606404,3.048296463241811,0.11213149011889983,-7.611172682967933
-0.4276933523636459,3.397437856229826,0.036019763289220505,-7.966190315633008
-0.3937189738013477,3.7428116411733683,-0.043642139867109575,-8.330247842602892
-0.35629085738961397,4.059824797437997,-0.1269446182931385,-8.671802852687003
-0.31569260941523397,4.310596827608247,-0.21366264682000852,-8.941072023846667
-0.2725866411391515,4.449587372023555,-0.3030733670584752,-9.07748531700502
-0.22809076741891593,4.4419775822006695,-0.3938482202285254,-9.034595403153064
-0.18367099159690925,4.286645006896599,-0.48419417426005606,-8.811228560982943
-0.14080454152794325,4.02041739327662,-0.5723064598698855,-8.45691962808553
-0.10060036759517704,3.695945692301166,-0.6568756561507407,-8.041512784295666
-0.06364091067216537,3.3566909801950207,-0.7372907839936974,-7.6214364664690395
-0.030074000870215167,3.028202775211251,-0.8135051486583877,-7.228531933946739
0.0002080268818973434,2.721693900583676,-0.8857904679978551,-6.875440870304677
0.027424965887734108,2.4401325354585874,-0.9545448767009019,-6.564080499875724
0.05182629124231998,2.1826166702079663,-1.020185681699659,-6.291571842101369
0.07365245794439965,1.9467688340791154,-1.0831014001206727,-6.053401803390866
0.0931201462851908,1.7298731313621074,-1.1436354181545814,-5.84487034167921
0.11041887759881187,1.529356223825077,-1.2020841215713736,-5.661663440207649
0.12571243983706265,1.3429578520253158,-1.25870075597345,-5.500024482343199
0.13914201835731582,1.1687644567604143,-1.313701000796882,-5.356756582907181
0.15082966292491998,1.0051875864757103,-1.3672685666259536,-5.2291626738446135
0.1608815387896771,0.8509238668324621,-1.4195601933643998,-5.114969794244111
0.1693907774580017,0.7049122551035528,-1.4707098913068408,-5.012256347617294
0.17643990000903725,0.5662946949445522,-1.5208324547830139,-4.9193888113534845
0.18210284695848278,0.43438203313603174,-1.5700263428965486,-4.834969172586665
0.1864466672898431,0.30862527196969136,-1.6183760346224152,-4.7577923287391375
0.18953292000954003,0.18859156076274602,-1.6659539579098066,-4.686812043136594
0.1914188356171675,0.0739441524236421,-1.7128220783411725,-4.62111397572781
0.1921582771414039,-0.0355744214884286,-1.7590332180984507,-4.559894454084037
0.1918025329265196,-0.14015660146467704,-1.8046321626392912,-4.502443853676167
0.19040096691187283,-0.2399420009399954,-1.849656601176053,-4.448133655246134
0.18800154690247287,-0.33502796811041,-1.8941379377285144,-4.396406418791648
0.18465126722136876,-0.42547882031578305,-1.9381020019164308,-4.346768054060533
0.18039647901821093,-0.5113339800823707,-1.9815696824570361,-4.298781879410462
0.17528313921738722,-0.5926151752585085,-2.0245575012511408,-4.252064049631923
0.16935698746480213,-0.6693328133940177,-2.06707814174746,-4.206280004266776
0.16266365933086194,-0.741491600965931,-2.1091409417901277,-4.161141645864622
0.15524874332120261,-0.8090954496891596,-2.150752358248774,-4.116405006378631
0.14715778882431102,-0.8721516935371121,-2.19191640831256,-4.071868202435441
0.1384362718889399,-0.9306746298665485,-2.2326350903369145,-4.0273695185548135
0.1291295255902744,-0.9846883948316701,-2.272908785522463,-3.9827854927942563
0.1192826416419577,-1.03422918568983,-2.3127366404504053,-3.9380289123469634
0.1089403497850594,-1.0793468492104286,-2.352116929573875,-3.893046657410418
0.09814688129295511,-1.120105864750578,-2.3910473961479792,-3.8478173598882552
0.08694582264544932,-1.156585761245108,-2.4295255697468616,-3.802348868699391
0.07537996503299825,-1.1888810180691138,-2.4675490584338555,-3.756675535089009
0.06349115485230711,-1.2171005093387472,-2.505115813784746,-3.7108553488667195
0.05132014975891963,-1.2413665588266338,-2.542224367273413,-3.664966969594715
0.03890648417065329,-1.2618136776658897,-2.5788740369693604,-3.619106705288943
0.02628834739399439,-1.278587059078498,-2.61506510402225,-3.573385495301405
0.013502476803209408,-1.2918409034501181,-2.650798958975264,-3.527925954082645
0.0005840677687082262,-1.3017366433929722,-2.6860782185160907,-3.4828595290435005
-0.012433298665221497,-1.3084411323954697,-2.7209068138065255,-3.4383238194527292
-0.025517709989176192,-1.3121248527878522,-2.755290052001053,-3.394460095009126
-0.03863895851705471,-1.3129601896596237,-2.7892346529511443,-3.351411043210641
-0.05176856041365095,-1.3111198076543036,-2.8227487633832506,-3.30931876465695
-0.06487975849019399,-1.306775157802255,-2.85584195102982,-3.268323025617777
-0.07794751006821654,-1.3000951322131873,-2.888525181285998,-3.2285597681021936
-0.09094846139034841,-1.2912448759127197,-2.9208107789670197,-3.1901598696583715
-0.10386091014947561,-1.280384757636538,-2.9527123776636035,-3.153248138463076
-0.11666475772584099,-1.267669495147232,-2.984244859048234,-3.1179425240420686
-0.1293414526773133,-1.2532474256727768,-3.0154242842886547,-3.0843535202057404
-0.14187392693404108,-1.2372599083629392,-3.046267819490712,-3.052583734415229
-0.15424652601767047,-1.219840843143051,-3.076793656834864,-3.0227275966822367
-0.16644493444910097,-1.2011162888968936,-3.1070209328016865,-2.994871181086908
-0.1784560973380699,-1.181204163394219,-3.1369696446125555,-2.969092113895874
-0.1902681389720121,-1.1602140076499896,-3.1666605657515143,-2.9454595439043425
-0.201870279048512,-1.1382467983235525,-3.1961151611905576,-2.924034152854819
-0.21325274703174754,-1.1153947932118728,-3.225355502719106,-2.9048681864667225
-0.22440669496386628,-1.0917413967547196,-3.2544041845837732,-2.8880054896381684
-0.23532410893141348,-1.0673610346637892,-3.283284239480155,-2.873481532672237
-0.24599771927805136,-1.0423190292429487,-3.312019054806877,-2.8613234188773093
-0.25642090957048086,-1.0166714696290333,-3.3406322889956503,-2.8515498675550432
-0.2665876242667712,-0.9904650740083064,-3.3691477876712006,-2.8441711701923196
-0.27649227500685425,-0.9637370438135904,-3.3975894993731237,-2.8391891215904765
-0.28612964544499014,-0.9365149129396231,-3.4259813905890284,-2.836596931666311
-0.2954947945743864,-0.9088163980782715,-3.4543473599056913,-2.8363791276998063
-0.3045829585551691,-0.8806492593030835,-3.4827111511826896,-2.838511460814717
-0.31338945114819994,-0.8520111829335091,-3.5110962657908367,-2.8429608343593475
-0.32190956297753504,-0.8228897013643428,-3.53952587413443,-2.8496852754675186
-0.33013845999117847,-0.7932621668064728,-3.5680227268891054,-2.8586339742439386
-0.3380710816592432,-0.7630957975724219,-3.5966090666315447,-2.8697474175143465
-0.34570203963496743,-0.7323478164519207,-3.625306540806688,-2.882957645656353
-0.35302551779948665,-0.7009657006432082,-3.6541361172632514,-2.8981886614106473
-0.36003517480591873,-0.6688875614228807,-3.683118003877358,-2.915357018495706
-0.36672405042014755,-0.636042669065211,-3.712271574062315,-2.9343726150761076
-0.3730844771107997,-0.6023521343291239,-3.741615300213076,-2.9551397124963503
-0.37910799845409093,-0.567729752069805,-3.7711666973380398,-2.977558193126682
-0.384785295974789,-0.5320830052682043,-3.8009422792693064,-3.0015250627576555
-0.390106126027471,-0.4953142192093085,-3.830957529896883,-3.0269361929848246
-0.3950592682195641,-0.45732184603422665,-3.8612268918267314,-3.053688287897391
-0.39963248667990636,-0.4180018499464478,-3.8917637747057054,-3.081681047770381
-0.40381250517937084,-0.37724915360110034,-3.9225805851834092,-3.110819491170548
-0.40758499671538184,-0.33495909736372026,-3.953688780095115,-3.141016386845505
-0.410934587689019,-0.2910288559285602,-3.98509894396357,-3.172194738931124
-0.4138448762483046,-0.24535875191492693,-4.016820891352881,-3.204290264279075
-0.4162984637674539,-0.19785340405110066,-4.048863793995672,-3.2372537998042867
-0.4182769978079649,-0.14842264872741012,-4.081236331993715,-3.2710535811513224
-0.419761224295239,-0.09698217809238344,-4.113946867805228,-3.305677341819591
-0.4207310460761628,-0.043453845208460906,-4.147003641223424,-3.3411341939480765
-0.4211655845282474,0.012234403497574597,-4.180414983162905,-3.3774562676699365
-0.4210432404932717,0.07014899699497032,-4.214189545839604,-3.4147001044472054
-0.420341750523322,0.13035162634785427,-4.248336546884076,-3.452947820041104
-0.4190382342598435,0.1929005548968405,-4.282866025084487,-3.492308073662834
-0.4171092287108751,0.2578523479801486,-4.317789105821115,-3.5329169003648278
-0.4145307052310736,0.3252640114559454,-4.353118274824763,-3.574938483068266
-0.41127806511651416,0.3951955250063112,-4.388867659655446,-3.6185659582938765
-0.40732610986645107,0.4677127570436146,-4.425053319238385,-3.66402236557453
-0.4026489822960149,0.5428907533950525,-4.461693542894131,-3.7115618650077855
-0.3972200747620644,0.6208174020213739,-4.498809161544209,-3.7614713612023585
-0.39101190074185066,0.7015974909202435,-4.536423875156232,-3.8140726861233243
-0.38399592583264824,0.7853571961177499,-4.574564602017465,-3.8697255095313157
-0.37614235387147077,0.8722490613440431,-4.613261857112778,-3.9288311656192882
-0.36741986325803033,0.9624575608065351,-4.652550168768971,-3.9918376100936745
-0.357795287649965,1.0562053717414381,-4.692468544869908,-4.05924575551372
-0.3472332339325506,1.1537605245753102,-4.733061002425045,-4.131617476445631
-0.33569562868679753,1.255444645954059,-4.774377177189502,-4.209585632004842
-0.32314118222725696,1.3616425635728269,-4.81647303350955,-4.293866523131116
-0.30952475659152867,1.4728136004331172,-4.859411698740861,-4.385275285356164
-0.2947966205871975,1.5895049458319628,-4.903264451594423,-4.484744811175803
-0.2789015711288779,1.7123675411006387,-4.9481118997061815,-4.59334888809328
-0.2617778957178715,1.8421749379038341,-4.994045388587114,-4.712330301973526
-0.24335614633883318,1.9798455299910203,-5.04116869160685,-4.843134632061841
-0.22355769103892298,2.126468332948469,-5.089600037927468,-4.987450232658643
-0.20229300770943828,2.283331905985312,-5.139474540254055,-5.147254211426158
-0.17945968864958517,2.45195470993965,-5.190947082368316,-5.324862584103376
-0.15494014155018868,2.63411245805605,-5.24419570820935,-5.522979233181495
-0.12859901696962817,2.831852433625819,-5.299425500541165,-5.744730894735221
-0.10028049263336998,3.047473590553478,-5.356872809488517,-5.993660371887751
-0.0698057567278352,3.2834293270101287,-5.416809413207394,-6.27362030632377
-0.036971463457733916,3.5420676993159,-5.479545616270632,-6.588451930039462
-0.0015507864645749117,3.8250461474560637,-5.545430135571026,-6.941225548268576
0.03669967500998573,4.132126228217034,-5.6148423910537115,-7.3326356823901815
0.07802093729215606,4.4588737083561565,-5.688168747877613,-7.757889111322809
0.12260967437571763,4.792696872182838,-5.765747638990842,-8.201284174027334
0.17053664309754601,5.10721313108675,-5.847760480731115,-8.628432345053678
0.22160877440841353,5.357505216887345,-5.934044804181652,-8.979617945625305
0.275183826577287,5.484389073817193,-6.023840983637905,-9.175502317989375
0.33002771731545893,5.438173245536167,-6.115596006817799,-9.149659989736408
0.3844094497708206,5.214060472852831,-6.207092606715163,-8.897016334513939
0.4365500544993489,4.861324315585245,-6.296062770060302,-8.485864468347247
0.4851632976552014,4.449688228235523,-6.380921414743774,-8.011172271697315
0.5296601799375567,4.032456467194358,-6.461033137460747,-7.544288044896752
0.5699847446095002,3.6370435999352724,-6.536476017909715,-7.120758146955791
0.606355180608853,3.272720435700779,-6.607683599379273,-6.751513389675296
0.6390823849658608,2.9396988786362543,-6.675198733276026,-6.435490317366163
0.6684793737522233,2.6346569395817685,-6.7395536364496875,-6.167159727784889
0.694825943148041,2.3533618008890107,-6.8012252337275365,-5.940019898812443
0.7183595611569311,2.0917363105908473,-6.860625432715661,-5.747962300770012
0.7392769242628396,1.8462168352967805,-6.918105055723362,-5.5856870899285775
0.7577390926158074,1.6138190397860601,-6.973961926622647,-5.448737892192343
0.773877283013668,1.3920962248898698,-7.02844930554457,-5.333404034146008
0.7877982452625667,1.1790670849062286,-7.081783345886031,-5.236591173610315
0.799588916111629,0.9731426894064352,-7.134149257622134,-5.155698048932581
0.8093203430056933,0.7730627060341471,-7.18570623811146,-5.088511068308053
0.8170509700660348,0.5778429029169505,-7.236591348794541,-5.033118355628867
0.8228293990952043,0.3867329958681149,-7.286922532350829,-4.987841368081034
0.8266967290538854,0.1991829992931321,-7.336800946031639,-4.951181342829256
0.8286885590468167,0.014816148620225567,-7.386312759459932,-4.921777951614057
0.8288367205330189,-0.166593337841639,-7.435530538976072,-4.898377958295745
0.8271707871546026,-0.345139109437485,-7.484514318559029,-4.879812115634953
0.8237193960602277,-0.5207993153342266,-7.533312439715378,-4.864978908119327
0.8185114029068854,-0.6934519257398453,-7.581962228796572,-4.852834023043903
0.811576883649487,-0.8628894109364188,-7.63049056902701,-4.842384616296477
0.8029479895401228,-1.0288332280548989,-7.6789144151899755,-4.832687547138452
0.7926596572595738,-1.1909483637439888,-7.72724129066136,-4.822850806382368
0.7807501736221338,-1.3488579963859235,-7.775469798725184,-4.812037374728202
0.7672615936582746,-1.5021581778963553,-7.823590172472466,-4.7994707426645595
0.7522400118793111,-1.650432298691497,-7.871584879899111,-4.784441319266564
0.7357356888923962,-1.7932649976324941,-7.919429293091777,-4.7663129710617085
0.7178030389160712,-1.9302551186142591,-7.967092422802394,-4.744528976611705
0.6985004877299287,-2.061027301478662,-8.014537712568512,-4.718616764917467
0.6778902147151421,-2.185241827671169,-8.061723880217686,-4.688190927149019
0.6560377964384304,-2.3026024162806213,-8.108605789489177,-4.652954145891696
0.6330117722756242,-2.412861774775673,-8.155135330948093,-4.612695862660374
0.6088831545278675,-2.5158248380373593,-8.201262289574696,-4.5672886874448135
0.5837249061474938,-2.6113497642643457,-8.246935176449144,-4.516682726576453
0.5576114085048504,-2.699346882131672,-8.29210200371491,-4.460898151501014
0.5306179396835337,-2.779775887500228,-8.336710985229919,-4.400016438924884
0.5028201808085314,-2.852641661058878,-8.380711149619168,-4.33417077528822
0.4742937641979426,-2.9179891162264497,-8.42405285737205,-4.263536134397805
0.4451138730356781,-2.975897489791752,-8.466688218716028,-4.188319510464561
0.4153548981377606,-3.0264744603980307,-8.508571413820674,-4.108750727963247
0.3850901535337803,-3.0698504290626922,-8.549658921100306,-4.025074165281592
0.35439164924315336,-3.106173229744675,-8.589909662753122,-3.937541632287889
0.3233299169457066,-3.1356034648058513,-8.629285079076,-3.846406543065906
0.2919738822976481,-3.158310587318603,-8.66774914450666,-3.7519194325536875
0.26039077642446207,-3.174469785173391,-8.705268338832196,-3.6543247856276673
0.22864607857272817,-3.184259664594102,-8.741811586688472,-3.5538590827312904
0.19680348192678715,-3.1878606849452225,-8.777350177515785,-3.4507499186743673
0.16492487507733491,-3.1854542630866773,-8.811857676702529,-3.3452160202177543
0.13307033244646815,-3.1772224433656846,-8.845309836904706,-3.2374679718356982
0.1012981080128113,-3.1633480172912427,-8.877684516623063,-3.1277094553025195
0.06966462783989888,-3.1440149733247855,-8.908961611176089,-3.016138814952898
0.03822447810665102,-3.1194091602698557,-8.939122999325617,-2.9029507741737697
0.007030386503952463,-3.0897190557894993,-8.968152507067355,-2.788338147726144
-0.023866804053942533,-3.0551365431664985,-8.996035888544617,-2.6724934170398225
-0.054418169485607515,-3.0158576133404535,-9.022760822715014,-2.5556100601987644
-0.08457674561901204,-2.9720829245405227,-9.048316923317001,-2.4378835537769876
-0.11429757486441727,-2.924018167724496,-9.07269575885477,-2.3195119890792633
-0.14353775654166223,-2.8718742019375796,-9.095890878745562,-2.2006962699520956
-0.17225649856103803,-2.815866939138428,-9.117897841445084,-2.0816398825443585
-0.2004151679524223,-2.756216972604934,-9.138714240270527,-1.962548248678559
-0.22797733767847167,-2.6931489563798885,-9.158339722757313,-1.843627693365244
-0.25490882724227054,-2.6268907550374774,-9.176775999690966,-1.7250840730307095
-0.2811777347926453,-2.5576723930741894,-9.194026840421273,-1.6071211238741352
-0.3067544587233872,-2.485724841226483,-9.210098051660015,-1.48993859915508
-0.331611707135652,-2.41127868282714,-9.224997437651567,-1.3737302699807534
-0.3557244939639234,-2.3345627068432293,-9.238734740351374,-1.2586818662970707
