th1 (rad),w1 (rad/s),th2 (rad),w2 (rad/s),a1 (rad/s^2),a2 (rad/s^2)
2.4302740117266586,-1.9988620654407396,2.309053636211917,2.06637163548694,-6.501093084601412,-0.3119652239631372
2.410285391072251,-2.063872996286754,2.3297173525667865,2.0632519832473086,-6.643398938561026,-0.1460104539579925
2.3896466611093836,-2.130306985672364,2.3503498723992595,2.0617918787077287,-6.758083889881005,-0.038871386266330445
2.36834359125266,-2.197887824571174,2.3709677911863367,2.0614031648450655,-6.839524548736714,0.0003040209769919025
2.3463647130069485,-2.2662830700585412,2.3915818228347874,2.061406205054835,-6.88348068167468,-0.03585027485174642
2.323701882306363,-2.335117876875288,2.4121958848853358,2.061047702306318,-6.887617499749552,-0.15215839986491933
2.30035070353761,-2.4039940518727834,2.432806361908399,2.0595261183076685,-6.851906518006721,-0.35030802443926545
2.276310763018882,-2.4725131170528507,2.4534016230914757,2.056023038063276,-6.778819873035358,-0.6285435942966209
2.2515856318483536,-2.5403013157832044,2.4739618534721086,2.0497376021203095,-6.673258523351617,-0.9817344087889756
2.2261826186905216,-2.6070339010167207,2.494459229493312,2.03992025803242,-6.542200856182537,-1.4018399446894405
2.2001122796803543,-2.672455909578546,2.5148584320736362,2.0259018585855255,-6.3941139378424845,-1.8787159747440767
2.173387720584569,-2.736397048956971,2.5351174506594916,2.007114698838085,-6.238218467955039,-2.401135275732776
2.146023750094999,-2.7987792336365214,2.5551885976478723,1.983103346080757,-6.0837249602411365,-2.957858039496197
2.1180359577586336,-2.859616483238933,2.5750196311086797,1.953524765685795,-5.939155164699351,-3.5385905175207264
2.0894397929262443,-2.9190080348859264,2.5945548787655377,1.9181388605105878,-5.8118326492385295,-4.134711504435063
2.060249712577385,-2.977126361378312,2.6137362673706437,1.876791745466237,-5.7075818614939635,-4.739708204216056
2.030478448963602,-3.0342021799932515,2.632504184825306,1.8293946634240765,-5.630630672141769,-5.349325091146551
2.0001364271636692,-3.0905084867146693,2.650798131459547,1.775901412512611,-5.583678742893403,-5.961475475166817
1.9692313422965226,-3.146345274143603,2.668557145584673,1.7162866577609428,-5.568077878408827,-6.575988666473868
1.9377678895550865,-3.202026052927691,2.6857200121622826,1.6505267710962042,-5.584069439069468,-7.194267652421498
1.9057476290258095,-3.2578667473183858,2.7022252798732445,1.5785840945719891,-5.631032944331831,-7.818919890962383
1.8731689615526257,-3.314177076761704,2.7180111208189643,1.5003948956623652,-5.7077135113764195,-8.453405085235906
1.8400271907850088,-3.3712542118754683,2.733015069775588,1.415860844810006,-5.812409297262184,-9.10172487551145
1.806314648666254,-3.42937830484809,2.747173678223688,1.3248435960548917,-5.943111089733941,-9.768163883849809
1.7720208656177732,-3.4888094157454295,2.760422114184237,1.2271619572163937,-6.0975937541406955,-10.457080743267577
1.7371327714603189,-3.549785353286836,2.772693733756401,1.1225911497837178,-6.273463622419464,-11.172741372978571
1.7016349179274506,-3.6125199895110307,2.783919645254238,1.010863736053932,-6.468167848600553,-11.919183843231517
1.6655097180323404,-3.677201667997036,2.7940282826147773,0.8916718976216169,-6.678972098644337,-12.700103586238829
1.62873770135237,-3.7439913889834795,2.8029450015909934,0.7646708617592286,-6.902912418476251,-13.518748500819381
1.5912977874625354,-3.813020513168242,2.810591710208586,0.6294833767510348,-7.13672626951383,-14.377814990202399
1.5531675823308528,-3.8843877758633805,2.816886543976096,0.48570522684901085,-7.37676688851285,-15.279337755013273
1.514323704572219,-3.9581554447485088,2.8217435962445863,0.3329118492988781,-7.6189045274454275,-16.224568037667805
1.474742150124734,-4.0343444900229635,2.825072714737575,0.17066616892220007,-7.858417869998896,-17.213836925631206
1.4343987052245044,-4.112928668722953,2.826779376426797,-0.001472200334111995,-8.089879052149177,-18.246402300718653
1.393269418537275,-4.193827459244445,2.8267646544234557,-0.18393622334129853,-8.307036243592949,-19.320280141242627
1.3513311439448306,-4.276897821680374,2.8249252921900427,-0.3771390247537248,-8.502698654557854,-20.43206321910406
1.3085621657280269,-4.361924808225953,2.8211539019425054,-0.5814596569447654,-8.668630071467833,-21.576732836296895
1.2649429176457674,-4.448611108940631,2.8153393053730578,-0.7972269853077344,-8.795458515835259,-22.747472117154615
1.220456806556361,-4.536565694098984,2.8073670355199805,-1.0247017064792805,-8.872611244197635,-23.935492445719746
1.175091149615371,-4.62529180654096,2.7971200184551877,-1.264056630936478,-8.888285896166943,-25.12988775557075
1.1288382315499614,-4.71417466550263,2.7844794521458227,-1.5153555084921855,-8.829469936151428,-26.31753428897048
1.081696484894935,-4.802469364864144,2.769325897060901,-1.7785308513818903,-8.682021362196064,-27.483055797927474
1.0336717912462936,-4.889289578486104,2.751540588547082,-2.053361409361165,-8.43082368844546,-28.60887554943984
0.9847788954614326,-4.9735978153705585,2.7310069744534706,-2.3394501648555637,-8.060027169786709,-29.67537649123171
0.935042917307727,-5.054198087068426,2.707612472804915,-2.6362039297678805,-7.553385903199645,-30.66118915838124
0.8845009364370428,-5.1297319461004225,2.6812504335072362,-2.942815821351693,-6.894696681448055,-31.54362312198603
0.8332036169760385,-5.198678912914903,2.6518222752937195,-3.258252052571553,-6.068340291900906,-32.299251983964005
0.7812168278468895,-5.259362315833912,2.619239754768004,-3.581244572411193,-5.059919482004685,-32.90465435288814
0.7286232046885504,-5.3099615106539595,2.583427309043892,-3.9102911159400744,-3.856980287018125,-33.33730437453682
0.6755235895820108,-5.34853131352414,2.5443243978844916,-4.2436641596854425,-2.4497950900929304,-33.57659584331974
0.6220382764467693,-5.373029264425069,2.5018877562876374,-4.57943011811864,-0.8321768417681659,-33.604974239772574
0.5683079838025187,-5.381351032842751,2.456093455106451,-4.915479860516365,0.9977156463952106,-33.409141533767574
0.5144944734740912,-5.371373876378799,2.4069386565012874,-5.249571275854041,3.036631546890176,-32.981289221665804
0.4607807347103032,-5.3410075609098975,2.3544429437427468,-5.5793841680707,5.275601895348903,-32.32030552829504
0.4073706591012042,-5.2882515419564085,2.29864910206204,-5.90258722335365,7.699505098990932,-31.432892807544526
0.3544881436816401,-5.211256490966499,2.2396232298285033,-6.216916151429095,10.28690491578898,-30.33452144342908
0.30237557877197513,-5.10838744180861,2.1774540683142125,-6.520261365863386,13.010246786071637,-29.05013891119038
0.25129170435388903,-4.978284973947893,2.1122514546555786,-6.81076275497529,15.836495254171933,-27.614550846808363
0.2015088546144101,-4.819920021406174,2.0441438271058257,-7.086908263443373,18.72827940838404,-26.07240030693405
0.15330965440034836,-4.632637227322334,1.9732747444713918,-7.347632266512713,21.64558130785622,-24.477697571536417
0.10698328212712502,-4.416181414243772,1.8997984218062647,-7.592409242228078,24.547953786132407,-22.89289981912022
0.0628214679846873,-4.170701876382448,1.8238743293839839,-7.82133824041928,27.39719322995242,-21.38760756806503
0.021114449220862815,-3.8967299440829235,1.745660946979791,-8.03521431609993,30.160329912856465,-20.037026641642544
-0.017852850219966424,-3.595126644954359,1.6653088038187918,-8.235584582516356,32.812747368874746,-18.920427991705655
-0.053804116669510016,-3.2669991712656112,1.5829529579936281,-8.424788862433413,35.34121751057018,-18.11990598681945
-0.08647410838216613,-2.9135869961599092,1.498705069369294,-8.605987922301608,37.74664831088916,-17.71977045243464
-0.11560997834376521,-2.5361205130510176,1.412645190146278,-8.783185626825954,40.04638143630001,-17.80689121044404
-0.1409711834742754,-2.1356566986880177,1.3248133338780184,-8.961254538930394,42.275922543705036,-18.472225128200357
-0.16232775046115558,-1.7128974732509672,1.2352007884887144,-9.145976790212398,44.489977849304246,-19.81355288258729
-0.17945672519366526,-1.2679976947579248,1.1437410205865903,-9.34411231903827,46.762487851091144,-21.939027571375554
-0.1921367021412445,-0.8003728162470134,1.0502998973962077,-9.563502594752025,49.18474763415902,-24.970210688764162
-0.20014043030371464,-0.30852533990542325,0.9546648714486874,-9.813204701639666,51.859151153184726,-29.04115559774935
-0.2032256837027689,0.210066171626424,0.8565328244322907,-10.10361625761716,54.882405287855775,-34.285170551711055
-0.20112502198650464,0.7588902245049818,0.7554966618561191,-10.446467963134271,58.30360961014306,-40.78948728153359
-0.19353611974145482,1.3419263206064125,0.6510319822247763,-10.854362835949606,62.024109497397,-48.47265416469883
-0.1801168565353907,1.9621674155803825,0.5424883538652803,-11.339089377596595,65.5696793027175,-56.788518316337715
-0.16049518237958688,2.617864208607558,0.4290974600893143,-11.906974560759972,67.61505595304112,-64.08725302110413
-0.1343165402935113,3.294014768137969,0.3100277144817146,-12.547847090971013,65.17408742011513,-66.49931810593425
-0.10137639261213162,3.9457556423391202,0.1845492435720045,-13.212840272030355,52.948993809328115,-56.98881588577317
-0.06191883618874042,4.475245580432402,0.052420840851700956,-13.782728430888087,25.33632391715875,-27.969363654467397
-0.017166380384416396,4.7286088196039895,-0.0854064434571799,-14.062422067432761,-15.431045601631688,17.755742820339712
0.0301197078116235,4.574298363587673,-0.22603066413150752,-13.884864639229365,-53.26872710942128,59.02831125045003
0.07586269144750023,4.04161109249346,-0.3648793105238012,-13.294581526724865,-73.05651528637624,76.54041774360951
0.11627880237243482,3.311045939629697,-0.49782512579104987,-12.529177349288771,-76.36254495346216,73.40719233893788
0.1493892617687318,2.5474204900950754,-0.6231168992839375,-11.795105425899392,-72.19102655877288,61.948703918865604
0.17486346666968255,1.8255102245073467,-0.7410679535429314,-11.175618386710736,-66.36149516494078,49.67645125990334
0.193118568914756,1.1618952728579388,-0.8528241374100388,-10.678853874111702,-61.02853747988116,39.12963762532276
0.2047375216433354,0.5516098980591272,-0.9596126761511559,-10.287557497858474,-56.668710238508076,30.709216902976333
0.21025362062392666,-0.015077204325953608,-1.0624882511297407,-9.98046532882871,-53.20544568449201,24.18555992919384
0.21010284858066713,-0.5471316611708738,-1.1622929044180277,-9.738609729536773,-50.42871700608501,19.22667829269559
0.2046315319689584,-1.0514188312317239,-1.2596790017133954,-9.546342946609817,-48.12568699828649,15.543765075217914
0.19411734365664116,-1.5326757012145888,-1.3551424311794935,-9.390905295857639,-46.1138079903197,12.914605142926572
0.17879058664449526,-1.9938137811177858,-1.44905148413807,-9.261759244428372,-44.24461908354749,11.173691209081479
0.1588524488333174,-2.4362599719532607,-1.5416690765823537,-9.150022332337558,-42.4004196154664,10.196345336494769
0.13448984911378478,-2.860264168107925,-1.6331692999057292,-9.048058878972611,-40.49042235822718,9.884364216561751
0.10588720743270554,-3.265168391690197,-1.7236498886954554,-8.949215236806994,-38.44791216631429,10.154763433990817
0.07323552351580356,-3.6496475133533397,-1.8131420410635253,-8.847667602467086,-36.22834798271947,10.931601018359347
0.03673904838227016,-4.011930993180535,-1.9016187170881962,-8.738351592283491,-33.807920350874305,12.140542133526228
-0.0033802615495351837,-4.3500101966892775,-1.989002233011031,-8.616946170948228,-31.182052955636127,13.70581191732613
-0.04688036351642796,-4.661830726245639,-2.075171694720513,-8.479888051774967,-28.36346637125778,15.549183751652158
-0.09349867077888435,-4.945465389958216,-2.1599705752382627,-8.324396214258446,-25.37961381996178,17.590606607815605
-0.14295332467846653,-5.199261528157834,-2.2432145373808474,-8.14849014818029,-22.269502456255537,19.75000752489466
-0.19494593996004486,-5.421956552720389,-2.3246994388626505,-7.950990072931344,-19.080088648383924,21.949755738658364
-0.24916550548724875,-5.612757439204229,-2.404209339591964,-7.73149251554476,-15.862548628607167,24.11727963516078
-0.30529307987929105,-5.7713829254903,-2.481524264747412,-7.4903197191931525,-12.668758625505877,26.187401603135775
-0.36300690913419403,-5.89807051174536,-2.5564274619393434,-7.228445703161794,-9.548273941695477,28.104088458438092
-0.42198761425164766,-5.993553251162314,-2.6287119189709616,-6.9474048185774135,-6.54599658997978,29.821476104958997
-0.4819231467632708,-6.0590132170621125,-2.6981859671567356,-6.649190057527823,-3.7005992448547245,31.30417908791511
-0.5425132789338919,-6.09601920951066,-2.764677867732014,-6.336148266648673,-1.043662170502991,32.5270077844064
-0.6034734710289985,-6.10645583121569,-2.828039350398501,-6.010878188804608,1.400597690175753,33.474272696711886
-0.6645380293411554,-6.092449854313932,-2.8881481322865468,-5.6761354618374895,3.6151614677503208,34.138858440075865
-0.7254625278842947,-6.056298239636429,-2.9449094869049217,-5.334746877436731,5.589760126664273,34.52121424446986
-0.7860255102806589,-6.000400638369786,-2.998256955679289,-4.9895347349920325,7.320267921189921,34.628353464683066
-0.8460295166643568,-5.927197959157887,-3.0481523030292093,-4.643251200345202,8.808022874732405,34.47290078242216
-0.9053014962559356,-5.839117730410563,-3.094584815032661,-4.298522192520981,10.059121976719531,34.07218574553235
-0.9636926735600412,-5.738526510643368,-3.1375700369578707,-3.957800335065657,11.083710873717385,33.447360858223846
-1.0210779386664748,-5.627689401906194,-3.1771480403085275,-3.623326726483419,11.895272553818069,32.62252078049636
-1.0773548326855367,-5.508736676368013,-3.2133813075733615,-3.2971015186784554,12.509915691178325,31.623810959776133
-1.1324421994492169,-5.383637519456229,-3.246352322760146,-2.980863409080694,12.945667241040384,30.478531907312888
-1.1862785746437792,-5.254180847045825,-3.276160956850953,-2.6760780900075654,13.221781065083224,29.214262414780162
-1.2388203831142375,-5.121963036394993,-3.3029217377510287,-2.383935465859764,13.358080892431294,27.85803630659735
-1.2900400134781873,-4.98838222747068,-3.3267610924096265,-2.1053551027937902,13.374359226223065,26.43561052395614
-1.3399238357528942,-4.85463863520845,-3.347814643437564,-1.840998997554229,13.289852942587606,24.970857659815632
-1.3884702221049787,-4.721740105782573,-3.3662246334131063,-1.5912904209560725,13.122811730601123,23.48530556682701
-1.4356876231628044,-4.590511988476562,-3.382137537622667,-1.3564373652878023,12.890168494225462,21.997833271045913
-1.48159274304757,-4.461610303534307,-3.395701911275545,-1.1364590325773432,12.60731298939465,20.52451903804017
-1.526208846082913,-4.335537173640361,-3.4070665016013186,-0.9312138421969414,12.287962743887597,19.078625278050396
-1.5695642178193168,-4.212657546201485,-3.416378640023288,-0.7404275894164374,11.94411969935361,17.670697306712647
-1.6116907932813316,-4.093216349207949,-3.4237829159174527,-0.5637206163493109,11.586097486570212,16.308749121382483
-1.652622956773411,-3.9773553743422467,-3.4294201220809457,-0.4006331251354861,11.222602792133719,14.998508915564027
-1.6923965105168335,-3.8651293464209093,-3.4334264533323005,-0.25064803597984586,10.860854570558107,13.743699221115989
-1.7310478039810426,-3.7565208007153283,-3.435932933692099,-0.11321104376868596,10.506726412943786,12.546330386224753
-1.768613011988196,-3.6514535365858904,-3.4370650441297856,0.012252260093561562,10.16489968972711,11.40699068004325
-1.805127547354055,-3.5498045396886195,-3.43694252152885,0.12632216689399406,9.839017693502425,10.325120960085437
-1.8406255927509412,-3.4514143627535954,-3.43567929985991,0.22957337649484844,9.531833581133293,9.299266067725236
-1.8751397363784772,-3.3560960269422626,-3.4333835660949616,0.3225660371721008,9.24534723318391,8.327298662681965
-1.9087006966478999,-3.2636425546104233,-3.4301579057232408,0.40583902379892045,8.980928098261808,7.406613969557598
-1.9413371221940041,-3.1738332736278054,-3.4260995154852516,0.4799051634944964,8.739422635229955,6.534295905789598
-1.9730754549302822,-3.0864390472755057,-3.4213004638503066,0.5452481225523924,8.521246126163275,5.707256378043068
-2.0039398454030373,-3.001226586013873,-3.4158479826247827,0.6023206863328231,8.326459456812545,4.922350292738102
-2.033952111263176,-2.9179619914457473,-3.4098247757614546,0.6515441892602041,8.154832011636492,4.176469152246292
-2.063131731177634,-2.8364136713293826,-3.4033093338688527,0.693308880782667,8.005892170520537,3.4666161183863644
-2.0914958678909277,-2.7563547496241774,-3.396376245061026,0.7279750419665306,7.878967081018712,2.7899652196925175
-2.1190594153871696,-2.6775650788139904,-3.389096494641361,0.7558746941634558,7.773213460013046,2.143907040385177
-2.1458350661753096,-2.59983294421386,-3.3815377476997264,0.7773137645673075,7.68764118722675,1.5260828215761204
-2.171833395617448,-2.522956532341593,-3.3737646100540535,0.7925745927830687,7.621131413903062,0.9344084791045949
-2.197062960940864,-2.446745218202562,-3.3658388641262227,0.8019186775741147,7.572450836895127,0.3670896365349723
-2.2215304131228897,-2.371020709833611,-3.3578196773504816,0.8055895739394644,7.54026368672251,-0.1773715829439941
-2.245240620221226,-2.295618072966386,-3.349763781611087,0.8038158581100244,7.523142846837338,-0.7001775410758682
-2.2681968009508897,-2.2203866444980127,-3.3417256230299865,0.7968140826992658,7.519581355463389,-1.2022435650057794
-2.2904006673958697,-2.145190830943379,-3.333757482202994,0.784791647049208,7.528005334649872,-1.6842137185196362
-2.3118525757053034,-2.0699107775968804,-3.325909565732502,0.7679495098640117,7.546789138771273,-2.1464836188083276
-2.332551683481272,-1.9944428862091677,-3.3182300706338617,0.7464846736759284,7.574273215902114,-2.5892298999093626
-2.352496112343364,-1.9187001540501465,-3.3107652238971026,0.7205923746768348,7.608784836093655,-3.0124456696455177
-2.3716831138838654,-1.8426123056892099,-3.3035593001503343,0.6904679179803797,7.648661474448492,-3.4159809766515004
-2.3901092369407575,-1.766125690944725,-3.2966546209705303,0.6563081082138646,7.692276266327329,-3.7995869347478215
-2.407770493850205,-1.6892029282814516,-3.2900915398883916,0.6183122388663864,7.738064606527779,-4.162961790124827
-2.424662523133019,-1.6118222822161739,-3.283908417499728,0.5766826209651381,7.784550677586257,-4.505796914649681
-2.440780745955181,-1.5339767754403113,-3.2781415912900767,0.5316246518186413,7.830372497987234,-4.827820517295839
-2.456120513709584,-1.455673050460439,-3.2728253447718902,0.4833464466456829,7.87430400695736,-5.1288368279213365
-2.4706772442141887,-1.3769300103908653,-3.2679918803054333,0.43205807836646953,7.9152727657578295,-5.408758650194383
-2.4844465443180974,-1.297777282733287,-3.2636712995217687,0.3779704918645257,7.952372058130053,-5.667631508622792
-2.4974243171454305,-1.2182535621519865,-3.2598915946031233,0.32129417677829775,7.984866500213136,-5.9056481095692455
-2.50960685276695,-1.1384048971498553,-3.2566786528353404,0.2622376956826053,8.012190692534015,-6.123152456490719
-2.5209909017384486,-1.0582829902245152,-3.2540562758785145,0.2010061711176981,8.033940921426964,-6.320633647131907
-2.5315737316406937,-0.9779435810102456,-3.2520462141673376,0.13779983464637904,8.049860396521641,-6.49871006837817
-2.5413531674507963,-0.8974449770450292,-3.2506682158208737,0.07281273396259734,8.059818947991474,-6.658105327861432
-2.550327617221247,-0.8168467875651145,-3.2499400884812477,0.0062316806839830124,8.06378846301838,-6.799617765951069
-2.558496085096898,-0.7362089029349307,-3.249877771674408,-0.06176449697552769,8.06181558878927,-6.924085740726277
-2.565858174126247,-0.655590747047038,-3.2504954166441635,-0.13100535438279046,8.053993357293663,-7.032351055806493
-2.5724140815967176,-0.5750508134741014,-3.2518054701879913,-0.2013288649408554,8.040433397298356,-7.125222910226752
-2.5781645897314585,-0.4946464795011178,-3.2538187588374,-0.2725810940431229,8.021240304416974,-7.203444610405304
-2.5831110545264697,-0.4144340764569481,-3.256544569777831,-0.344615540147176,7.996489561461334,-7.2676650260152496
