th1 (rad),w1 (rad/s),th2 (rad),w2 (rad/s),a1 (rad/s^2),a2 (rad/s^2)
3.1752667203524623,-1.1802958503262957,0.9545464413250654,2.1030392479282196,-4.30245893402721,-9.491748519549736
3.1634637618491994,-1.2233204396665678,0.9755768338043476,2.0081217627327224,-4.113492972964462,-9.274478792741839
3.151230557452534,-1.2644553693962124,0.9956580514316747,1.915376974805304,-3.936589928932699,-9.063219473022334
3.1385860037585718,-1.3038212686855393,1.0148118211797277,1.8247447800750807,-3.772617588622321,-8.858807445519247
3.125547791071716,-1.3415474445717626,1.0330592689804785,1.736156705619888,-3.6221333582289823,-8.661666493466921
3.1121323166259987,-1.3777687781540524,1.0504208360366774,1.649540040685219,-3.4854541729533186,-8.471890352302415
3.0983546288444583,-1.4126233198835856,1.0669162364435296,1.5648211371621947,-3.362713878656209,-8.289311371199563
3.0842283956456225,-1.4462504586701477,1.0825644478151515,1.481928023450199,-3.2539097565674098,-8.113556679041846
3.069765891058921,-1.4787895562358218,1.0973837280496535,1.4007924566597805,-3.158939810686344,-7.944093697273308
3.054977995496563,-1.510378954342685,1.1113916526162513,1.3213515196870473,-3.077632311579894,-7.780266699666532
3.039874205953136,-1.541155277458484,1.1246051678131217,1.243548852690382,-3.0097689288531133,-7.621325934202708
3.024462653178551,-1.5712529667470152,1.1370406563400255,1.167335593348355,-2.9551026127445703,-7.466450624070641
3.008750123511081,-1.6008039928744608,1.148714012273509,1.0926710871076484,-2.9133712182627076,-7.314766970908302
2.9927420835823364,-1.629937705057088,1.1596407231445856,1.0195234173985654,-2.8843077114686,-7.165362103698701
2.9764427065317656,-1.658780782171774,1.1698359573185713,0.9478697963615784,-2.867647660927309,-7.017294755948203
2.9598548987100477,-1.687457258781047,1.1793146552821872,0.8776968488020964,-2.863134599207098,-6.869603313454594
2.942980326122237,-1.716088604773118,1.1880916237702082,0.8090008156675504,-2.870523739151079,-6.72131175472069
2.925819440074506,-1.744793842164629,1.1961816319268836,0.7417876981203435,-2.8895844461172446,-6.571433904425933
2.9083715016528595,-1.7736896866258014,1.203599508908087,0.6760733590760841,-2.9201017986932087,-6.418976335360498
2.8906346047866016,-1.8028907046127336,1.210360242498848,0.6118835957224791,-2.9618775146336977,-6.262940183712326
2.8726056977404744,-1.8325094797590706,1.2164790784560728,0.5492541938853558,-3.0147304740909155,-6.102322084468635
2.8542806029428838,-1.8626567844999797,1.2219716203949265,0.4882309730406694,-3.07849703691437,-5.936114385983361
2.835654035097884,-1.8934417548691234,1.2268539301253332,0.4288698291808358,-3.153031323390323,-5.763304763694747
2.8167196175491926,-1.9249720681030267,1.2311426284171416,0.37123678154388834,-3.2382056069860212,-5.582875320983742
2.7974698968681624,-1.957354124172887,1.2348549962325805,0.3154080283340509,-3.3339109523787753,-5.393801238874554
2.7778963556264333,-1.9906932336966747,1.238009076515921,0.2614700159453054,-3.440058221389196,-5.195049014511329
2.7579894232894664,-2.0250938159105667,1.240623776675374,0.2095195258001921,-3.55657956266715,-4.985574310087516
2.7377384851303606,-2.060659611537238,1.242718971933376,0.15966378269931691,-3.683430497497194,-4.764319418303688
2.717131889014988,-2.0974939165122097,1.2443156097603691,0.11202058851628002,-3.820592713397525,-4.530210336786176
2.696156949849866,-2.135699843646185,1.2454358156455319,0.06671848514841826,-3.968077678850325,-4.28215343167505
2.674799951413404,-2.1753806204346886,1.246103000497016,0.023896950831667763,-4.125931196114774,-4.019031659433834
2.6530461452090575,-2.2166399323958363,1.2463419700053326,-0.016293365762670577,-4.2942390142055205,-3.739700305726836
2.630879745885099,-2.2595823225378915,1.2461790363477059,-0.05369036881993894,-4.473133630247645,-3.4429821911483285
2.6082839226597203,-2.304313658840368,1.2456421326595064,-0.08812019073142222,-4.66280241384052,-3.1276622863080927
2.5852407860713167,-2.3509416829787733,1.244760930752192,-0.11939681359450315,-4.863497194763702,-2.7924816745516066
2.561731369241529,-2.39957665492641,1.243566962616247,-0.14732163034001922,-5.075545457822351,-2.436130801621059
2.5377356026922646,-2.4503321095046338,1.242093746312847,-0.1716829383562298,-5.299363287559065,-2.057241961412736
2.5132322815972183,-2.503325742380224,1.2403769169292846,-0.19225535797035717,-5.535470196447814,-1.6543809912468266
2.488199024173416,-2.558680444344702,1.238454363349581,-0.20879916788282543,-5.784505947682742,-1.2260381973265875
2.462612219729969,-2.6165255038215296,1.2363663716707527,-0.2210595498560913,-6.047249439615431,-0.7706186143788349
2.4364469646917537,-2.6769979982176837,1.2341557761721917,-0.22876573599987965,-6.324639640834593,-0.28643184254361737
2.4096769847095767,-2.7402443946260298,1.231868118812193,-0.2316300544253158,-6.617798433868145,0.22831807093009274
2.3822745407633166,-2.806422378964711,1.2295518182679397,-0.2293468737160149,-6.9280550126712335,0.7755418831875963
2.3542103169736697,-2.8757029290914233,1.2272583495307796,-0.22159145488413892,-7.256971140564221,1.3572721672413777
2.3254532876827554,-2.9482726404970654,1.2250424349819382,-0.20801873321172515,-7.6063660444056875,1.9756658618544005
2.2959705612777848,-3.024336300941122,1.222962247649821,-0.18826207459318114,-7.9783388962812545,2.6329988424354367
2.2657271982683733,-3.1041196899039347,1.2210796269038893,-0.1619320861688268,-8.375285562492087,3.3316470269362766
2.234686001369334,-3.1878725455288555,1.219460306042201,-0.12861561589946402,-8.799904349659743,4.074045552960656
2.2028072759140453,-3.275871589025453,1.2181741498832062,-0.08787516036985746,-9.255182502041036,4.86261307569728
2.170048560023791,-3.3684234140458633,1.2172953982795076,-0.03924902961288466,-9.74435068665627,5.699621505661525
2.1363643258833322,-3.465866920912426,1.2169029079833789,0.017747185443730593,-10.270785888708733,6.586981465615271
2.101705656674208,-3.5685747797995133,1.2170803798378163,0.0836170000998833,-10.83783295231398,7.525898894813982
2.066019908876213,-3.6769531093226533,1.2179165498388151,0.15887598904802314,-11.448499969091133,8.51633653944086
2.0292503777829864,-3.7914381090135647,1.2195053097292954,0.24403935444243174,-12.104960978058196,9.5561830282647
1.9913359966928508,-3.9124877187941465,1.2219457032737198,0.3396011847250787,-12.807768999011289,10.63998925933045
1.9522111195049092,-4.04056540878426,1.2253417151209705,0.44600107731838323,-13.554642052577407,11.757075631666053
1.9118054654170666,-4.176111829310034,1.2298017258941543,0.5635718336350437,-14.338636458759904,12.888747784215878
1.8700443471239663,-4.3194981938976325,1.2354374442305047,0.6924593114772025,-15.145475949880334,14.004299312741349
1.82684936518499,-4.470952953396436,1.2423620373452768,0.832502304604616,-15.949792593475074,15.055472943708892
1.7821398356510256,-4.630450879331187,1.250687060391323,0.983057034041705,-16.710127461863486,15.96920099833094
1.7358353268577138,-4.797552153949822,1.26051763073174,1.1427490440250143,-17.362877840874805,16.638957561783528
1.6878598053182157,-4.97118093235857,1.27194512117199,1.3091386196428496,-17.816202385986415,16.916270756230766
1.63814799599463,-5.149342956218434,1.2850365073684187,1.4783013272051573,-17.946498454841308,16.606277894988953
1.5866545664324456,-5.328807940766847,1.2998195206404703,1.644364106155047,-17.60252255463695,15.474753154984795
1.5333664870247772,-5.504833166313216,1.3162631617020208,1.7991116377048948,-16.624656234411265,13.277510286068237
1.4783181553616451,-5.671079728657329,1.3342542780790698,1.931886740565577,-14.886241069038377,9.822169236141539
1.4216073580750719,-5.819942139347713,1.3535731454847255,2.0301084329269923,-12.355132642119727,5.05951199754076
1.3634079366815948,-5.943493465768911,1.3738742298139954,2.0807035529024,-9.153928068762974,-0.8268890673844536
1.3039730020239058,-6.03503274645654,1.3946812653430194,2.0724346622285554,-5.577206766294759,-7.393346859849295
1.2436226745593404,-6.090804814119488,1.415405611965305,1.9985011936300625,-2.0306656023375003,-14.02263395174315
1.1827146264181456,-6.111111470142863,1.4353906239016054,1.858274854112631,1.0941949923097134,-20.10601493488866
1.121603511716717,-6.100169520219765,1.4539733724427317,1.6572147047637444,3.5411888514770764,-25.22229491046429
1.0606018165145192,-6.064757631704994,1.4705455194903692,1.4049917556591016,5.238414708031002,-29.214636148208175
0.9999542401974693,-6.012373484624685,1.48459543704696,1.1128453941770198,6.265776711264793,-32.14915633634298
0.9398305053512224,-5.949715717512037,1.4957238909887303,0.7913538308135899,6.783702632668625,-34.21487154145154
0.880333348176102,-5.88187869118535,1.5036374292968662,0.44920511539907454,6.968987020040149,-35.63111164681771
0.8215145612642485,-5.812188820984948,1.508129480450857,0.09289399893089745,6.977438253179584,-36.59197648835958
0.763392673054399,-5.742414438453152,1.5090584204401658,-0.27302576595269834,6.930685835586073,-37.2453356391013
0.7059685286698675,-5.673107580097291,1.5063281627806389,-0.6454791223437113,6.916991954848745,-37.69253016079372
0.6492374528688946,-5.603937660548803,1.4998733715572017,-1.0224044239516485,6.997530527237553,-37.996744562386496
0.5931980762634065,-5.533962355276428,1.4896493273176852,-1.4023718695755134,7.2133698407665525,-38.19315352656312
0.5378584527106423,-5.461828656868762,1.4756256086219302,-1.7843034048411446,7.59123853768053,-38.29793295315776
0.48324016614195464,-5.385916271491957,1.4577825745735187,-2.1672827343727223,8.147662908270794,-38.31537969631797
0.42938100342703506,-5.304439642409249,1.4361097472297915,-2.550436531335902,8.89167787040218,-38.243280100072134
0.3763366070029426,-5.215522863705227,1.4106053819164324,-2.9328693323366233,9.826481092382497,-38.07691827566049
0.3241813783658903,-5.117258052781402,1.381276688593066,-3.313638515093228,10.950387577623303,-37.812100078762036
0.27300879783807624,-5.007754177005169,1.3481403034421338,-3.6917595158808485,12.257377342032113,-37.44747304246008
0.22293125606802455,-4.885180403584848,1.3112227082833252,-4.0662342463054495,13.73746032729297,-36.986322184159505
0.17407945203217606,-4.747805800311919,1.2705603658202707,-4.436097468147045,15.377023653245939,-36.437941856625976
0.12660139402905687,-4.594035563779459,1.2261993911388003,-4.800476886713304,17.15927630551008,-35.818629147925414
0.08066103839126228,-4.422442800724359,1.1781946222716673,-5.158663178192558,19.06486094571974,-35.15231164901712
0.036436610384018686,-4.231794191267162,1.1266079904897417,-5.51018629468273,21.072656861425074,-34.47080563289336
-0.0058813315286529375,-4.021067622652911,1.0715061275429143,-5.854894351011663,23.160747589461707,-33.81369149987472
-0.046092007755182046,-3.789460146758294,1.0129571840327976,-6.1930312660104105,25.307466357629313,-33.22777992133178
-0.08398660922276499,-3.5363854831820007,0.9510268713726935,-6.525309065223729,27.49235433396488,-32.76610643773456
-0.11935046405458499,-3.261461939842352,0.8857737807204562,-6.852970129601074,29.69675607969322,-32.48630539407315
-0.15196508345300852,-2.96449437904542,0.8172440794244454,-7.177833183541805,31.903605322356935,-32.44802801774658
-0.18161002724346273,-2.645458325821851,0.7454657475890274,-7.502313463719271,34.09566975072381,-32.70870342103285
-0.20806461050168124,-2.304501628314613,0.6704426129518347,-7.8294004979295995,36.25103474835584,-33.31626143898056
-0.23110962678482735,-1.9419912808310544,0.5921486079725388,-8.162563112319406,38.33377036275542,-34.29623472966177
-0.2505295395931379,-1.5586535772035002,0.5105229768493447,-8.505525459616024,40.27636985634044,-35.62867087517391
-0.2661160753651729,-1.1558898786400957,0.4254677222531844,-8.861812168367763,41.94863091442974,-37.207399097519286
-0.2776749741515739,-0.7364035694957983,0.33684960056950675,-9.233886159342955,43.10590629124353,-38.771298816315635
-0.28503900984653185,-0.30534450658336304,0.2445107389760772,-9.621599147506112,43.311536396010354,-39.79885192678945
-0.28809245491236546,0.1277708573767405,0.14829474750101607,-10.019587666774006,41.844456917045,-39.37785438920752
-0.28681474633859805,0.5462154265471906,0.048098870833276006,-10.413366210666082,37.65648507954613,-36.13349361517272
-0.28135259207312613,0.9227802773426519,-0.056034791273384815,-10.77470114681781,29.55460260642614,-28.4489459374578
-0.27212478929969963,1.2183263034069132,-0.1637818027415629,-11.059190606192388,16.86693689698868,-15.33064559126545
-0.2599415262656305,1.3869956723768,-0.27437370880348677,-11.212497062105042,0.5404703095086308,2.1426014525789845
-0.2460715695418625,1.3924003754718863,-0.3864986794245372,-11.191071047579252,-16.360779283824524,20.165179295881735
-0.23214756578714363,1.228792582633641,-0.4984093899003297,-10.989419254620435,-30.08756452228786,34.10930435944163
-0.2198596399608072,0.9279169374107623,-0.608303582446534,-10.648326211026019,-38.616061434133556,41.66572734614085
-0.2105804705866996,0.5417563230694267,-0.7147868445567942,-10.23166893756461,-42.34398144462695,43.63988527043822
-0.20516290735600534,0.11831650862315718,-0.8171035339324403,-9.795270084860228,-42.84227453603436,42.22176632783302
-0.20397974226977378,-0.3101062367371864,-0.9150562347810426,-9.373052421581898,-41.58644726321594,39.3385889596127
-0.20708080463714565,-0.7259707093693457,-1.0087867589968615,-8.979666531985771,-39.530471522196166,36.164047007626806
-0.2143405117308391,-1.1212754245913072,-1.0985834243167192,-8.618026061909504,-37.181088805833376,33.26810615980525
-0.22555326597675218,-1.493086312649641,-1.1847636849358143,-8.285345000311452,-34.77221809286641,30.869085492218677
-0.2404841291032486,-1.8408084935783051,-1.267617134938929,-7.976654145389265,-32.395732232902084,29.010541670002176
-0.2588922140390316,-2.1647658159073258,-1.3473836763928215,-7.686548728689243,-30.077084100309964,27.65851134258634
-0.2805398721981049,-2.4655366569104253,-1.4242491636797139,-7.40996361526338,-27.814437598293807,26.749130469376265
-0.30519523876720916,-2.743681032893363,-1.4983487998323477,-7.142472310569618,-25.59767373013455,26.21028310566751
-0.3326320490961428,-2.999657770194709,-1.5697735229380438,-6.880369479512943,-23.417078549797257,25.970778275877173
-0.3626286267980899,-3.2338285556926816,-1.6385772177331732,-6.620661696754171,-21.266894576342665,25.963894175346923
-0.3949669123550167,-3.446497501456108,-1.704783834700715,-6.361022755000702,-19.146341198636396,26.12855217198707
-0.42943188736957777,-3.637960913442472,-1.768394062250722,-6.099737233280831,-17.059395591787602,26.40960456441175
-0.4658114965040025,-3.808554869360348,-1.8293914345835303,-5.835641187636714,-15.01398106430895,26.75786643876734
-0.503897045197606,-3.9586946800034375,-1.8877478464598973,-5.568062523249041,-13.02089897972306,27.130122063312708
-0.5434839919976404,-4.088903669800668,-1.9434284716923877,-5.296761302615914,-11.092690592566804,27.489155822919994
-0.5843730286956471,-4.199830575726336,-1.996396084718547,-5.021869744386714,-9.2425407143735,27.80378364518691
-0.6263713344529105,-4.2922559828700715,-2.046614782162414,-4.743831907934845,-7.483294711934642,28.04883867604017
-0.6692938942816112,-4.367088929989418,-2.0940531012417622,-4.463343521174443,-5.826634589540342,28.205067749170084
-0.7129647835815054,-4.425355275884821,-2.138686536453507,-4.181292843682742,-4.282440364202889,28.258909130011638
-0.7572183363403536,-4.46817967952685,-2.1804994648903344,-3.898703752382626,-2.8583464492658375,28.202139584140156
-0.8019001331356221,-4.496763144019509,-2.219486502414161,-3.616682356541224,-1.5594885873029904,28.031395764416448
-0.8468677645758173,-4.512358029892539,-2.2556533259795732,-3.3363683988970596,-0.3884252308089469,27.747588845769044
-0.8919913448747426,-4.516242282200628,-2.2890170099685436,-3.058892510439369,0.6547914398883101,27.35524108601687
-0.937153767696749,-4.509694367801745,-2.3196059350729374,-2.7853400995792006,1.5724252083020762,26.861778228993064
-0.9822507113747664,-4.493970115718724,-2.3474593360687295,-2.51672231728927,2.368778976994306,26.276812671563995
-1.0271904125319535,-4.470282325948781,-2.3726265592416222,-2.25395419057363,3.049863740941333,25.611449778583907
-1.0718932357914412,-4.439783688539368,-2.3951661011473586,-1.997839692787791,3.623043061958735,24.87764457806839
-1.116291072676835,-4.40355325791978,-2.4151444980752363,-1.7490632470071072,4.096678436323794,24.08762931907989
-1.1603266052560328,-4.362586473556543,-2.4326351305453073,-1.5081869538163084,4.4797957177116,23.2534250030425
-1.2039524699915982,-4.3177885163794265,-2.4477170000834705,-1.2756527037858834,4.781787215094355,22.38644284417474
-1.2471303551553925,-4.269970644228483,-2.460473527121329,-1.0517882753441359,5.0121587463666755,21.497175316343235
-1.2898300615976774,-4.219849056764816,-2.4709914098747707,-0.8368165221807036,5.180326165209003,20.59497141865113
-1.3320285521653257,-4.168045795112726,-2.4793595750965776,-0.6308668079941923,5.295461909694066,19.687887243612483
-1.3737090101164529,-4.115091176015786,-2.4856682431765194,-0.4339879355580674,5.366389021578094,18.78260088482673
-1.4148599218766107,-4.061427285800004,-2.4900081225321,-0.2461619267098001,5.401517810369612,17.884380073379912
-1.4554741947346108,-4.007412107696308,-2.492469741799198,-0.06731812597600098,5.408818751916573,16.997091509328055
-1.4955483158115739,-3.9533239201771426,-2.493142923058958,0.10265278911727957,5.395824125730835,16.123242459472653
-1.5350815550133452,-3.899365678919834,-2.492116395167785,0.26388521371200613,5.369650090009945,15.264047641644746
-1.5740752118025436,-3.8456691780197345,-2.489477543030665,0.4165256901284536,5.3370301517478005,14.419517555742322
-1.612531903582741,-3.7922988765022567,-2.48531228612938,0.5607208656858769,5.304350127130417,13.588568122756548
-1.6504548923477635,-3.7392553752309525,-2.4797050774725213,0.6966065469134424,5.277673590007052,12.769155610933083
-1.687847446100073,-3.686478639330882,-2.472739012003387,0.8242981030227732,5.26274548108584,11.958445132429869
-1.724712232493382,-3.6338511845200236,-2.464496030973159,0.9438825543470719,5.264960201019982,11.15302505506585
-1.761050744338582,-3.581201582509824,-2.4550572054296884,1.0554128048977305,5.2892796315349875,10.349182717270146
-1.7968627601636804,-3.528308786194474,-2.4445030773807113,1.158904632070432,5.340087006825022,9.543257586137004
-1.8321458480256252,-3.4749079161262237,-2.432914031060007,1.254337207931802,5.42096572750852,8.732084596069347
-1.8668949271868873,-3.4206982588511385,-2.420370658980689,1.3416580538924956,5.534399770120445,7.913530511339312
-1.9011019097753987,-3.365354261149934,-2.406954078441764,1.4207933590058888,5.681405985858583,7.0871074811205865
-1.9347554523868982,-3.3085402012913483,-2.392746144851705,1.4916644338170946,5.861129165296852,6.254619411610951
-1.9678408543998116,-3.24992890963838,-2.3778295005135344,1.554210627933204,6.070457001151376,5.420760311413613
-2.0003401434961954,-3.189224339626866,-2.3622873942342024,1.60841823104734,6.303739108024839,4.593546443977712
-2.032232386892464,-3.126186948546618,-2.346203211923729,1.6543536954871172,6.5527126848089114,3.784439282233682
-2.06349425637793,-3.0606598216985286,-2.3296596749688576,1.692198088309454,6.806734587881046,3.008021755155609
-2.0941008545949154,-2.992592475819718,-2.312737694085763,1.72227830586101,7.053384062744598,2.281142105914141
-2.1240267793531125,-2.922058635192272,-2.2955149110271527,1.7450897269201515,7.2794292453134615,1.621541582188923
-2.153247365705035,-2.8492643427391373,-2.2780640137579513,1.7613051427420408,7.4720563916971106,1.0461158414789682
-2.1817400091324264,-2.7745437788221663,-2.260450962330531,1.7717663011568305,7.620172626917384,0.5690839404984575
-2.209485446920648,-2.6983420525529924,-2.2427332993189624,1.7774571405618151,7.715546705202541,0.20040219507818355
-2.236468867446178,-2.621186585500967,-2.2249587279133443,1.779461162512597,7.753572938237899,-0.0552721396030792
