th1 (rad),w1 (rad/s),th2 (rad),w2 (rad/s),a1 (rad/s^2),a2 (rad/s^2)
5.4671041732854295,-2.678284666929744,3.1568694713652827,2.377705873549237,8.909551709257766,11.453518659564011
5.440321326616132,-2.5891891498371664,3.180646530100775,2.4922410601448775,8.377909867928825,10.88337094929257
5.414429435117761,-2.5054100511578783,3.205568940702224,2.601074769637803,7.845258879601985,10.341568728249758
5.389375334606182,-2.4269574623618584,3.231579688398602,2.7044904569203005,7.318311677547525,9.838194612774391
5.365105759982564,-2.353774345586383,3.2586245929678053,2.8028724030480445,6.801653817226268,9.380236176764297
5.3415680165267,-2.2857578074141203,3.2866533169982857,2.8966747648156876,6.298117035913916,8.972232425987272
5.318710438452558,-2.2227766370549813,3.3156200646464424,2.9863970890755605,5.80912418272124,8.616857308463457
5.296482672082008,-2.1646853952277687,3.345484035537198,3.072565662160195,5.334991993347306,8.315423404012275
5.274835818129731,-2.1113354752942954,3.3762096921588,3.155719896200318,4.875186755719484,8.068301876013646
5.253722463376787,-2.0625836077371007,3.407766891120803,3.2364029149604545,4.428533595798906,7.8752628039429675
5.233096627299417,-2.018298271779112,3.4401309202704073,3.315155542999884,3.993383533436936,7.735744288813297
5.212913644581626,-1.9783644364447424,3.4732824757004064,3.392512985888017,3.5677442751831867,7.649060328594663
5.193130000217178,-1.9426869936929105,3.5072076055592865,3.4690035891739637,3.149381510968606,7.614557288243371
5.173703130280249,-1.9111931785832246,3.541897641451026,3.5451491620563975,2.7358977438201975,7.631727480559489
5.154591198494417,-1.8838342011450226,3.57734913307159,3.621466436861992,2.3247957846550755,7.700286328432758
5.135752856482967,-1.8605862432984719,3.61356379744021,3.6984693001463196,1.9135342936062671,7.820216979450561
5.117146994049983,-1.841450900362409,3.650548490441673,3.7766714699408253,1.499583416272505,7.9917830841274675
5.098732485046359,-1.8264550661996841,3.6883152051410812,3.8565893007820997,1.080489925654789,8.215506546546008
5.0804679343843615,-1.8156501669431362,3.7268810981489024,3.9387443662475596,0.6539636668108061,8.492102047234596
5.06231143271493,-1.809110530275028,3.766268541811378,4.023665386719905,0.21800093491370529,8.822353455600199
5.044220327412179,-1.806930520925891,3.8065051956785774,4.1118889212759075,-0.22893374239549785,9.206908090455858
5.02615102220292,-1.809219858349846,3.8476240848913363,4.203958002180467,-0.6876373841165377,9.645952093434547
5.008058823619422,-1.8160962321910115,3.889663664913141,4.300417523114812,-1.1577677385929255,10.138712683951956
4.989897861297512,-1.8276739095769408,3.932667840144289,4.4018046499543315,-1.6372532591324862,10.68270953218805
4.971621122201742,-1.8440464421682656,3.9766858866438324,4.508631745276212,-2.121434320192435,11.272647430894283
4.9531806577800594,-1.86526078537019,4.021772204096594,4.621358219585154,-2.601832437678067,11.898807864931335
4.9345280499263575,-1.8912791097469706,4.067985786292446,4.740346298234468,-3.0644242831770034,12.544766251894329
4.915615258828888,-1.9219233525787407,4.1153892492747906,4.865793960753411,-3.487297700629238,13.184256694774765
4.8963960253031,-1.956796329585033,4.164047188882325,4.997636527701159,-3.8376244159097146,13.777076530280198
4.87682806200725,-1.9951725737441302,4.214023554159336,5.135407293003961,-4.068069720925267,14.264165693327838
4.856876336269808,-2.0358532709533828,4.265377627089376,5.27804894993724,-4.11319182179313,14.562574339419882
4.836517803560274,-2.0769851891713142,4.318158116588748,5.423674693331439,-3.887216843638159,14.562160602060498
4.815747951668561,-2.115857357607696,4.372394863522063,5.569296299352043,-3.2858961908762954,14.127664165402372
4.794589378092484,-2.148716319516459,4.428087826515583,5.710572941006067,-2.1966722210167484,13.111893980909004
4.773102214897319,-2.1706830417266265,4.485193555925643,5.841691880815157,-0.5218602371183307,11.386462086082021
4.751395384480053,-2.17590164409781,4.543610474733795,5.955556501675977,1.783608987105646,8.89220861791819
4.729636368039075,-2.1580655542267535,4.603166039750555,6.044478587855159,4.66790109374824,5.698417560702078
4.708055712496807,-2.111386543289271,4.663610825629107,6.101462763462179,7.953522538494911,2.040743354996432
4.686941847063914,-2.0318513179043216,4.724625453263728,6.121870197012144,11.352603092852188,-1.7008139922665122
4.666623333884871,-1.9183252869757996,4.78584415523385,6.104862057089479,14.536982048866676,-5.0979104575135485
4.647440081015113,-1.772955466487133,4.846892775804744,6.053882952514344,17.235056272378266,-7.804693014776437
4.629710526350242,-1.6006049037633503,4.907431605329887,5.975836022366579,19.302430018783323,-9.651020071082018
4.613704477312608,-1.407580603575517,4.967189965553553,5.879325821655759,20.73230065307017,-10.65272920974659
4.599628671276853,-1.2002575970448153,5.025983223770111,5.772798529558293,21.61538492380002,-10.954073066374049
4.587626095306405,-0.9841037478068151,5.083711209065694,5.663257798894553,22.084361358241424,-10.751011327669566
4.577785057828336,-0.7632601342244009,5.140343787054639,5.555747685617857,22.270768552732935,-10.233203128088919
4.570152456486093,-0.5405524486970715,5.195901263910818,5.453415654336967,22.282779423757628,-9.55528358362918
4.564746931999122,-0.31772465445949527,5.250435420454187,5.357862818500676,22.19931976942888,-8.830451610846977
4.5615696854545265,-0.09573145676520647,5.3040140486391945,5.269558302392206,22.072897513099512,-8.135560062371487
4.560612370886874,0.12499751836578865,5.356709631663117,5.188202701768492,21.935439887181257,-7.519850452554978
4.561862346070532,0.3443519172376012,5.408591658680802,5.113004197242942,21.80414994289748,-7.013327614573472
4.565305865242908,0.562393416666576,5.4597217006532315,5.042870921097207,21.686268615662847,-6.633361619598176
4.570929799409574,0.7792561028232046,5.510150409864203,4.976537304901226,21.58257770809703,-6.389382515198144
4.578722360437806,0.9950818799041748,5.559915782913215,4.912643479749244,21.48984265802076,-6.286001125421868
4.588673179236848,1.2099803064843824,5.609042217710708,4.849783468495025,21.40247255282689,-6.324972543937177
4.600772982301692,1.4240050320126514,5.657540052395658,4.786533743055654,21.313643505552584,-6.506360489367154
4.615013032621818,1.6371414670681772,5.705405389826214,4.721470138161982,21.21607207301819,-6.829171151558192
4.6313844472925005,1.849302187798359,5.752620091207834,4.6531784266464005,21.102569335834826,-7.291645507550821
4.649877469170484,2.060327881156707,5.799151875474298,4.580261971570892,20.966462270682776,-7.89133941360301
4.670480747982051,2.269992503863535,5.844954495190007,4.501348577434862,20.801937140253386,-8.62507974700477
4.693180673020686,2.478011875266069,5.8899679809643555,4.415097779964814,20.60433732560823,-9.48885808159785
4.717960791773347,2.684055248522151,5.934118958764004,4.320209199148835,20.37043271072727,-10.477706456718913
4.744801344258568,2.8877595756294236,5.977321050755492,4.215432134581646,20.098667346865263,-11.585589244157326
4.773678940014863,3.0887462490980764,6.019475372101309,4.099576242140073,19.789385263720405,-12.805338367141745
4.804566402505843,3.2866401017352804,6.060471134522709,3.971522858468656,19.445030062269602,-14.12865436994689
4.837432803523196,3.4810904023579763,6.100186363107396,3.830236314769187,19.07031178566495,-15.546191827711109
4.872243707546776,3.6717935202146257,6.138488726255088,3.674774396492076,18.67233419804324,-17.04774348252898
4.908961642748922,3.8585168621950583,6.175236470220009,3.504296961666786,18.2606767761234,-18.62253275150223
4.947546811370873,4.041123629956292,6.210279439836676,3.3180716341517638,17.84742819268079,-20.259618548210046
4.9879580476704355,4.2195979118831,6.243460156178194,3.115475448669663,17.44717149368779,-21.94840949597146
5.030154026789266,4.394069626819978,6.274614910664891,2.8959913537099484,17.076924978248666,-23.679276408778737
5.074094723057466,4.564838876602465,6.3035748242019904,2.659198589622161,16.75604606752211,-25.444242008137092
5.119743111823491,4.732399337277687,6.330166810098212,2.4047561695407897,16.50610671514347,-27.23771432358285
5.167067105196267,4.897460404429121,6.35421437179362,2.132379026304961,16.35074574887408,-29.05721300369935
5.216041709240558,5.060967861917862,6.375538162056669,1.8418068962679677,16.315491901624668,-30.904011440189915
5.266651387859737,5.224122780934109,6.393956231019349,1.5327667818660684,16.427524248836797,-32.783573446521295
5.3188926156690775,5.388398023422477,6.40928389883801,1.2049310474008554,16.71528208552257,-34.70558459438391
5.372776595903302,5.555550844277702,6.421333209312018,0.8578752014570163,17.207732038886125,-36.6832343464782
5.428332104346079,5.727628164666563,6.429911961326589,0.49104285799223435,17.932907082547505,-38.73113994904143
5.4856083859927445,5.9069572354920385,6.434822389906511,0.10373145850182008,18.91498061666359,-40.860818353880816
5.544677958347664,6.096107041658675,6.435859704491529,-0.3048767250369881,20.168511751106475,-43.0717441351236
5.6056390287642515,6.29779215916974,6.432810937241159,-0.7355941663882242,21.687418372627,-45.33453537023074
5.668616950355949,6.51466634289601,6.425454995577277,-1.1889395200905315,23.42450765756953,-47.56042703930369
5.733763613784909,6.748911419471706,6.413565600376372,-1.6645437904835685,25.255076030077326,-49.54804088594578
5.801252727979626,7.00146217977248,6.396920162471536,-2.1600241993430265,26.91649351681759,-50.89647259926619
5.871267349777351,7.270627114940655,6.375319920478106,-2.6689889253356887,27.92025388768114,-50.880717831389575
5.943973620926757,7.549829653817467,6.34863003122475,-3.1777961036495843,27.459115494385472,-48.32339471767232
6.019471917464932,7.824420808761322,6.316852070188254,-3.6610300508263074,24.40773292620183,-41.605205628176975
6.097716125552545,8.06849813802334,6.280241769679991,-4.077082107108077,17.642364305655626,-29.13712071762199
6.178401106932779,8.244921781079897,6.23947094860891,-4.368453314284297,6.902667787241347,-10.610406249454696
6.260850324743578,8.31394845895231,6.195786415466068,-4.474557376778844,-6.176188711627756,11.512697717948395
6.3439898093331015,8.252186571836033,6.151040841698279,-4.3594303995993595,-18.247438931085497,32.25824535888086
6.4265116750514615,8.069712182525178,6.107446537702286,-4.036847946010551,-26.342223369727297,47.15295334385318
6.507208796876713,7.806289948827905,6.06707805824218,-3.5653184125720188,-29.75812092782226,54.98663312363238
6.585271696364993,7.508708739549682,6.03142487411646,-3.015452081335695,-29.696155646028995,57.35223314707342
6.66035878376049,7.211747183089392,6.001270353303103,-2.441929749864961,-27.784770124510736,56.5418982410105
6.732476255591384,6.933899481844285,5.976851055804453,-1.8765107674548558,-25.217173310262076,54.27933722226908
6.801815250409827,6.681727748741664,5.958085948129905,-1.333717395232165,-22.651850002911548,51.54226004715502
6.868632527897243,6.455209248712548,5.944748774177583,-0.8182947947606148,-20.386260183273784,48.79134154223137
6.933184620384369,6.25134664687981,5.936565826229977,-0.3303813793383011,-18.524115997938917,46.20307424427213
6.995698086853166,6.066105486900421,5.933262012436594,0.13164936310442021,-17.07797910794869,43.81666940343912
7.0563591417221705,5.895325695820934,5.934578506067639,0.5698160571388114,-16.022173313616545,41.61224106593345
7.11531239868038,5.735103962684769,5.9402766666390265,0.985938467798146,-15.317542113327958,39.54912958079984
7.172663438307227,5.581928541551489,5.950136051317008,1.3814297636061443,-14.922092468689607,37.583713798833216
7.228482723722742,5.432707616864594,5.96395034895307,1.7572669015944764,-14.795039619348756,35.67722938780143
7.282809799891388,5.284757220671106,5.981523017969014,2.1140391954724906,-14.897961822399019,33.798848071024956
7.335657372098099,5.135777602447116,6.002663409923739,2.45202767618274,-15.194820586742567,31.92653745295051
7.38701514812257,4.983829396579691,6.027183686685566,2.771293050712245,-15.651649535446026,30.046879850351807
7.436853442088367,4.8273129012252305,6.054896617192688,3.071761849215763,-16.236259694429744,28.154391545690622
7.485126571100619,4.664950304280933,6.085614235684846,3.3533057646726694,-16.91809238035566,26.25059002179514
7.531776074143429,4.495769380477377,6.119147293331573,3.6158116648906207,-17.668247761880775,24.342926943974895
7.576733767948203,4.319086902858569,6.155305409980479,3.8592409343303697,-18.459668492274723,22.443651670253637
7.619924636976789,4.134490217935822,6.193897819323783,4.083677451032906,-19.267435987615986,20.56865147463623
7.661269539156147,3.941815858059662,6.234734593834112,4.289363965779268,-20.06912912535238,18.73630984171502
7.700687697736744,3.741124566806138,6.277628233491905,4.476727064196418,-20.845195306151837,16.966423229349306
7.738098943404806,3.53267261374462,6.322395504133869,4.646391296489911,-21.579288932013725,15.279215069901618
7.773425669542252,3.3168797244244828,6.3688594170987685,4.799183447188927,-22.258540671286646,13.694481715233565
7.806594466786497,3.0942943177116162,6.416851251570658,4.936128264341263,-22.87373116547063,12.230898188101065
7.8375374099636135,2.86555700605691,6.466212534214071,5.058437246222273,-23.41935398435967,10.905502388267179
7.8661929800241825,2.631363466213313,6.516796906676293,5.167492270104945,-23.89356356606224,9.733365570804324
7.892506614686316,2.3924278305526907,6.5684718293773425,5.264825925812988,-24.29801348665314,8.727445306762094
7.916430892991843,2.1494476956861592,6.621120088635473,5.352100378880609,-24.637597607511715,7.898605452826862
7.9379253699487045,1.903071719611042,6.674641092424279,5.431086433408877,-24.920110406265824,7.255776227319869
7.956956087144815,1.6538706155483838,6.728951956758368,5.503644195682076,-25.155842084019316,6.806216017017577
7.973494793300299,1.4023121947081907,6.783988398715189,5.571706355852252,-25.357117712934134,6.555823785793025
7.9875179152473805,1.1487410175788493,6.839705462273711,5.637264593710182,-25.5377761920092,6.509434341394442
7.999005325423169,0.8933632556587573,6.896078108210813,5.702358937124127,-25.712561663674702,6.671003747954684
8.007938957979757,0.6362376390220102,6.9531016975820545,5.769068974603674,-25.896363234808717,7.043551622796314
8.014301334369977,0.3772740066739231,7.010792387328091,5.839504490831637,-26.103181715258668,7.628659860731363
8.018074074436717,0.11624218952133641,7.069187432236407,5.915791089438951,-26.344614564326836,8.425217444509059
8.01923649633193,-0.14720395612193193,7.128345343130796,6.0000432638840415,-26.627518873391566,9.426927423319444
8.01776445677071,-0.4134791448558476,7.188345775769637,6.094312538117236,-26.950323966943603,10.617833831480986
8.013629665322151,-0.6829823845252836,7.249288901150809,6.200490876432045,-27.297222248037038,11.964782154766793
8.006799841476898,-0.9559546070056539,7.31129380991513,6.320138697979713,-27.629229781683062,13.405374885954712
7.997240295406842,-1.2322469048224844,7.374495196894927,6.454192446839261,-27.871102076889265,14.829928317485818
7.984917826358617,-1.5109579255913772,7.439037121363319,6.602491730014119,-27.893925529749993,16.05701713308392
7.969808247102703,-1.789897180888877,7.5050620386634606,6.763061901344958,-27.49620589702432,16.80625208705655
7.951909275293814,-2.0648592398591203,7.57269265767691,6.9311244222155235,-26.39356190492776,16.681955146137692
7.931260682895223,-2.328794858908398,7.6420039018990655,7.097943973676901,-24.239960299520117,15.199232529160309
7.9079727343061395,-2.571194461903599,7.712983341635835,7.249936298968504,-20.71565052080972,11.901266205939514
7.882260789687104,-2.778350967111696,7.78548270462552,7.3689489610278995,-15.703657588020741,6.599044166312987
7.8544772800159866,-2.9353875429919034,7.859172194235799,7.43493940269103,-9.500049042518333,-0.34037722317100755
7.825123404586067,-3.0303880334170867,7.9335215882627095,7.43153563045932,-2.883871280348821,-7.895570594714936
7.7948195242518965,-3.059226746220575,8.007836944567302,7.35257992451217,3.122827755146241,-14.715041440342606
7.764227256789691,-3.0279984686691126,8.081362743812424,7.205429510108744,7.7080864447982815,-19.730700589319298
7.733947272102999,-2.9509176042211296,8.153417038913512,7.008122504215551,10.580126575173628,-22.573340747594937
7.704438096060788,-2.8451163384693934,8.223498263955667,6.782389096739601,11.925033862044309,-23.508342577719485
7.6759869326760946,-2.72586599984895,8.291322154923064,6.547305670962406,12.15547560376377,-23.09258963620912
7.648728272677605,-2.6043112438113125,8.356795211632688,6.316379774600315,11.688532845935521,-21.876975421800697
7.622685160239492,-2.4874259153519573,8.419959009378692,6.097610020382308,10.844224971717685,-20.274979698812754
7.597810901085972,-2.3789836656347805,8.480935109582514,5.89486022339418,9.833215876684923,-18.55104864267363
7.574021064429624,-2.2806515068679314,8.539883711816456,5.709349736967444,8.780535040088072,-16.855601867573565
7.551214549360945,-2.1928461564670507,8.59697720918613,5.540793718291709,7.754044776152959,-15.26471187853018
7.529286087796274,-2.115305708705521,8.652385146369047,5.388146599506407,6.786716455596681,-13.810386270551694
7.508133030709219,-2.0474385441495544,8.70626661236411,5.25004273680089,5.891470699297194,-12.50032994501775
7.487658645267723,-1.9885238371565825,8.75876703973212,5.125039437350713,5.070287398997379,-11.32981499075151
7.467773406896158,-1.9378209631666088,8.810017434105628,5.011741287443198,4.319532881059743,-10.288442160672888
7.4483951972644915,-1.8946256343560113,8.86013484698006,4.908856865836469,3.6329683974239413,-9.363830360420327
7.429448940920931,-1.858295950381772,8.909223415638424,4.815218562232266,3.003394184116561,-8.543536200865669
7.410865981417113,-1.8282620085406063,8.957375601260747,4.7297832002236095,2.4235109085676916,-7.815983648029895
7.392583361331707,-1.8040268994549293,9.004673433262983,4.651623363743311,1.8863412186120985,-7.170854494113855
7.3745430923371575,-1.7851634872688082,9.051189666900417,4.579914818802172,1.3854095207560042,-6.5991940480946845
7.3566914574644695,-1.7713093920612482,9.096988815088439,4.5139228783212255,0.9147933808282623,-6.0933727398322075
7.338978363543857,-1.7621614582529654,9.14212804387165,4.452989150922903,0.4691111930368344,-5.6469794197349685
7.321356748961327,-1.7574703463225971,9.18665793538088,4.396519356725554,0.043483136049710484,-5.254685251207771
7.303782045498101,-1.7570355149621,9.230623128948135,4.343972504213476,-0.36651291129832675,-4.912096016596216
7.28621169034848,-1.7607006440750832,9.27406285399027,4.294851544047514,-0.7648770203513214,-4.615598347992437
7.268604683907729,-1.7683494142785965,9.317011369430745,4.248695560567589,-1.1552049623731955,-4.36219784514562
7.250921189764943,-1.7799014639023285,9.359498325036421,4.205073582116134,-1.540680130987501,-4.149342019688375
7.23312217512592,-1.7953082652122034,9.401549060857583,4.16358016191925,-1.9240318483650671,-3.974717351030287
7.215169092473798,-1.8145485836958541,9.443184862476775,4.123832988408947,-2.307451780602904,-3.836007033561323
7.197023606636839,-1.8376231015018831,9.484423192360865,4.085472918073334,-2.692459837882163,-3.73059443841089
7.1786473756218205,-1.8645476998807047,9.525277921541598,4.048166973689225,-3.07971168030446,-3.6551977649872667
7.160001898623014,-1.8953448166837492,9.56575959127849,4.011614996039353,-3.4687431389736747,-3.605425451094242
7.141048450456176,-1.930032248073486,9.605875741238883,3.9755607415284104,-3.8576543492590334,-3.5752521448518353
7.121748127975441,-1.9686087915660764,9.645631348654167,3.9398082200798923,-4.242750472412733,-3.556434654553885
7.1020620400597805,-2.0110362962902038,9.685029430854966,3.9042438735343534,-4.618178802878216,-3.5379195764472984
7.081951677096878,-2.057218084318986,9.72407186959031,3.8688646777698805,-4.97563481607519,-3.50534089037177
7.061379496253688,-2.1069744324797375,9.762760516368008,3.833811268866163,-5.304249813158733,-3.4407635122569245
