th1 (rad),w1 (rad/s),th2 (rad),w2 (rad/s),a1 (rad/s^2),a2 (rad/s^2)
2.360625703076372,2.9526196597979135,2.252135874295233,-1.446190058338468,-7.309710437418315,0.5987395413952065
2.390151899674351,2.8795225554237303,2.2376739737118485,-1.440202662924516,-7.164246682325578,0.6401091074496231
2.418947125228588,2.8078800886004744,2.2232719470826035,-1.4338015718500197,-6.964646778994522,0.577737201170221
2.447025926114593,2.7382336208105293,2.208933931364103,-1.4280241998383174,-6.721240489024973,0.4285848942836812
2.474408262322698,2.6710212159202795,2.1946536893657203,-1.4237383508954806,-6.444940127802968,0.21033277794291724
2.501118474481901,2.60657181464225,2.1804163058567654,-1.4216350231160515,-6.146343470660562,-0.05995425928368137
2.527184192628323,2.545108379935644,2.166199955625605,-1.4222345657088884,-5.835114705031166,-0.36674895561662063
2.5526352764276794,2.4867572328853327,2.151977609968516,-1.4259020552650545,-5.519631977362904,-0.6965875439141536
2.5775028487565326,2.4315609131117037,2.1377185894158655,-1.432867930704196,-5.206852302296885,-1.038272050160261
2.6018184578876498,2.379492390088735,2.1233899101088234,-1.4432506512057988,-4.902331637455885,-1.3828406584238386
2.625613381788537,2.330469073714176,2.1089574035967655,-1.4570790577900372,-4.6103414733971695,-1.7233928148050273
2.648918072525679,2.2843656589802044,2.094386613018865,-1.4743129859380875,-4.334034945325264,-2.0548388400424185
2.671761729115481,2.2410253095269517,2.0796434831594843,-1.4948613743385117,-4.075629141686807,-2.3736238586400313
2.6941719822107504,2.2002690181100837,2.0646948694160994,-1.5185976129249121,-3.836582535811238,-2.677457858960285
2.716174672391851,2.1619031927519714,2.04950889328685,-1.5453721915145149,-3.617755934857447,-2.9650697069595937
2.7377937043193707,2.125725633403397,2.034055171371705,-1.5750228885841109,-3.419551906036997,-3.2359931593635185
2.7590509606534046,2.091530114343027,2.018304942485864,-1.607382820177746,-3.242031768292563,-3.4903867101768262
2.779966261796835,2.0591097966601017,2.0022311142840867,-1.6422866872795143,-3.0850115605194746,-3.728885551457483
2.800557359763436,2.028259681054907,1.9858082474112917,-1.679575542794089,-2.9481395023360712,-3.9524821849231686
2.820839956573985,1.9987782860315462,1.9690124919833507,-1.7191003646433207,-2.830957812991424,-4.162431610186175
2.8408277394343004,1.9704687079016319,1.9518214883369176,-1.7607246807451824,-2.732951677132756,-4.360177054724164
2.8605324265133167,1.9431391911303042,1.9342142415294659,-1.804326451292424,-2.6535878588790416,-4.547292579656274
2.8799638184246197,1.9166033125415138,1.9161709770165416,-1.8497993770889867,-2.5923450998701707,-4.72543939602275
2.8991298515500348,1.8906798615428122,1.8976729832456518,-1.8970537710492141,-2.5487380668225814,-4.896333245215351
2.918036650165463,1.8651924808745863,1.8787024455351597,-1.9460171035013676,-2.5223362766054587,-5.061720675923149
2.936688574974209,1.8399691181085318,1.859242274500146,-1.996634310260599,-2.512779136467509,-5.223362463244155
2.955088266155294,1.8148413267438568,1.83927593139754,-2.0488679348930408,-2.51978799561214,-5.383022757195795
2.9732366794227327,1.7896434467877353,1.8187872520486095,-2.1026981624649985,-2.543175907127535,-5.542462821182448
2.99113311389061,1.76421168771646,1.7977602704239595,-2.158122790676823,-2.5828556387445136,-5.703438433618126
3.0087752307677746,1.7383831313290148,1.7761790425171913,-2.2151571750130046,-2.638846338585482,-5.867700186328071
3.026159062081065,1.71199466794316,1.7540274707670613,-2.273834176876285,-2.711279149683966,-6.036996029192429
3.0432790087604964,1.6848818764463203,1.7312891289982986,-2.3342041371682094,-2.800401966791839,-6.21307548766798
3.0601278275249597,1.656877856778402,1.7079470876266165,-2.396334892044889,-2.9065834335292,-6.397695022160459
3.0766966060927436,1.6278120224431099,1.6839837387061676,-2.460311842266494,-3.030316180206622,-6.592624007317892
3.0929747263171747,1.5975088606410437,1.6593806202835026,-2.5262380823396726,-3.1722191955114263,-6.799650784475459
3.108949814923585,1.5657866686859294,1.634118239460106,-2.5942345901844273,-3.333039101046456,-7.0205881786376025
3.124607681610444,1.5324562776754649,1.6081758935582617,-2.6644404719708032,-3.5136499478244474,-7.257277766966093
3.139932244387199,1.4973197781972205,1.5815314888385537,-2.737013249640464,-3.7150509681832724,-7.511592030475025
3.154905442169171,1.4601692685153878,1.554161356342149,-2.8121291699452144,-3.938361483169517,-7.785433303237269
3.169507134854325,1.4207856536836925,1.5260400646426968,-2.889983502977587,-4.184811869774953,-8.080728139275912
3.1837149913911618,1.378937534985943,1.497140229612921,-2.970790784370346,-4.455729117200375,-8.399415328220595
3.197504366741021,1.3343802438139392,1.4674323217692176,-3.054784937652552,-4.752515026230166,-8.74342528478375
3.2108481691791604,1.2868550935516374,1.4368844723926921,-3.1422191905003896,-5.076614507687447,-9.11464788875613
3.223716720114677,1.236088948474763,1.4054622804876882,-3.233365669387951,-5.429470689857245,-9.514885033855673
3.2360776095994246,1.1817942415761906,1.3731286237938087,-3.328514519726508,-5.812462626345012,-9.945783128109776
3.2478955520151866,1.1236696153127406,1.3398434785965436,-3.4279723510076057,-6.226820285988244,-10.408739553912476
3.259132248168314,1.0614014124528581,1.3055637550864676,-3.5320597465467305,-6.673510199811093,-10.904775636110603
3.2697462622928426,0.9946663104547472,1.2702431576210003,-3.6411075029078366,-7.153083659368562,-11.434367006572872
3.27969292539739,0.9231354738610615,1.2338320825919218,-3.755451172973565,-7.665477780333704,-11.997220476814913
3.288924280136001,0.8464806960577245,1.1962775708621862,-3.8754233777417144,-8.209758226631765,-12.591984818891936
3.297389087096578,0.7643831137914068,1.157523337084769,-4.001343225930634,-8.783791237203845,-13.21588155271055
3.3050329182344917,0.6765452014193684,1.1175099048254626,-4.1335020414577395,-9.383832330982834,-13.864241538278492
3.3117983702486855,0.58270687810954,1.0761748844108852,-4.2721444568405245,-10.004020526396777,-14.529934833780935
3.317625439029781,0.48266667284557224,1.03345343984248,-4.417443805178334,-10.635771379766295,-15.202686371142406
3.3224521057582366,0.3763089590479093,0.9892790017906966,-4.569470668889759,-11.267071459122286,-15.868280630966453
3.326215195348716,0.26363824445668643,0.943584295101799,-4.728153475199423,-11.881693477044239,-16.507677494324035
3.328851577793283,0.14482130968624404,0.8963027603498047,-4.893230250142663,-12.458378155906518,-17.096092219777276
3.330299790890145,0.02023752812717887,0.8473704578483781,-5.064191172340435,-12.970068944233853,-17.602138468171944
3.3305021661714167,-0.10946316131515967,0.7967285461249737,-5.240212557022155,-13.383340732654743,-17.987196564479373
3.329407534558265,-0.24329656864170712,0.7443264205547522,-5.420084522666949,-13.65823214809338,-18.205247920992896
3.3269745688718477,-0.3798788901226409,0.6901255753280827,-5.602137001876878,-13.748764379654569,-18.20350092298804
3.3231757799706214,-0.5173665339191866,0.634104205309314,-5.784172011106759,-13.604487983802768,-17.92420050918295
3.3180021146314296,-0.6534114137572143,0.5762624851982464,-5.9634140161985885,-13.173407608763636,-17.308022250616997
3.3114680004938575,-0.7851454898448507,0.5166283450362605,-6.136494238704758,-12.406543021373706,-16.299343739900877
3.303616545595409,-0.9092109200585877,0.45526340264921294,-6.299487676103767,-11.264138963686555,-14.853398848716244
3.2945244363948234,-1.0218523096954533,0.3922685258881753,-6.44802166459093,-9.723105008213546,-12.94481893148789
3.2843059132978687,-1.1190833597775887,0.327788309242266,-6.577469853905809,-7.784685135788089,-10.576393220202213
3.273115079700093,-1.1969302111354696,0.2620136107032079,-6.683233786107831,-5.480770630354019,-7.786211059245343
3.2611457775887382,-1.2517379174390098,0.19518127284212958,-6.761095896700284,-2.876939416349688,-4.650985786767389
3.2486283984143483,-1.2805073116025065,0.12757031387512674,-6.807605754567958,-0.07052699382400766,-1.283644845385211
3.2358233252983233,-1.2812125815407467,0.05949425632944716,-6.82044220302181,2.8170275621015404,2.1756198179928146
3.223011199482916,-1.2530423059197313,-0.008710165700770947,-6.798686004841882,5.6528144139688665,5.573908135600365
3.2104807764237187,-1.1965141617800426,-0.07669702574918977,-6.742946923485878,8.307763778563663,8.763080736252322
3.198515634805918,-1.113436523994406,-0.14412649498404856,-6.6553161161233545,10.671397684603331,11.616430732098125
3.187381269565974,-1.0067225471483727,-0.2106796561452821,-6.539151808802373,12.662922440198537,14.041075046050292
3.1773140440944903,-0.8800933227463874,-0.27607117423330585,-6.39874105834187,14.236721196893058,15.983952680827725
3.1685131108670266,-0.7377261107774569,-0.3400585848167246,-6.238901531533593,15.381958891402244,17.431202080489328
3.161135849759252,-0.5839065218634344,-0.4024476001320605,-6.0645895107287,16.117472619118228,18.402310384194955
3.1552967845406177,-0.4227317956722521,-0.4630934952393475,-5.88056640688675,16.4839186391159,18.941275998512857
3.151069466583895,-0.25789260928109314,-0.521899159308215,-5.691153646901621,16.535197772270184,19.10703712903087
3.148490540491084,-0.09254063155839129,-0.5788106957772312,-5.5000832756113125,16.33070518502113,18.964860700858544
3.1475651341755,0.07076642029182001,-0.6338115285333443,-5.310434668602727,15.929274727507567,18.57962711645152
3.1482727983784184,0.23005916756689568,-0.6869158752193716,-5.124638397438211,15.38507429732755,18.011271731147097
3.1505733900540873,0.3839099105401712,-0.7381622591937537,-4.94452568012674,14.74528771231693,17.312189062782192
3.154412489159489,0.5313627876633406,-0.7876075159950211,-4.771403789498918,14.049206164089195,16.526180929094277
3.1597261170361226,0.6718548493042324,-0.8353215538900103,-4.606141980207975,13.328300779076674,15.688478903084885
3.166444665529165,0.8051378570949992,-0.8813829736920901,-4.449257191177127,12.60689238903534,14.826422936812396
3.174496044100115,0.9312067809853526,-0.9258755456038613,-4.300992961809003,11.903120486303694,13.960472395060874
3.183808111909969,1.0502379858483895,-0.9688854752219513,-4.161388237858394,11.230004633487187,13.105324861773656
3.194310491768453,1.1625380321832612,-1.0104993576005352,-4.030334989240657,10.59646990334578,12.271002644367144
3.2059358720902855,1.268502731216719,-1.0508027074929418,-3.907624962796986,10.008266974017635,11.463830534670524
3.2186208994024526,1.3685854009568954,-1.0898789571209118,-3.792986657450281,9.468757838579302,10.687271869288752
3.2323067534120216,1.4632729793426884,-1.1278088236954145,-3.6861139387573933,8.979563185666969,9.942617078920303
3.2469394832054483,1.5530686111993581,-1.1646699630829884,-3.5866877679681903,8.541081496125463,9.229534167482115
3.262470169317442,1.6384794261606128,-1.2005368407626704,-3.494392426293369,8.152896449289798,8.546497845450796
3.278854963579048,1.7200083906535109,-1.235480765025604,-3.408927447838861,7.81409117734999,7.891116389381367
3.296055047485583,1.7981493024270108,-1.2695700395039928,-3.330016283945047,7.523487244747221,7.2603748528596155
3.314036540509853,1.873384174874483,-1.3028702023434433,-3.257412535416451,7.279824267531525,6.6508114261967695
3.332770382258598,1.9461824175497984,-1.3354443276976078,-3.1909044211544835,7.081893618528604,6.058641411232545
3.352232206434096,2.0170013537350844,-1.3673533719091526,-3.130318007042158,6.928637127894851,5.479840959877414
3.372402219971447,2.086287725014033,-1.3986565519795742,-3.0755195974433835,6.819219293003694,4.910200709807499
3.393265097221587,2.15447991794407,-1.429411747954008,-3.0264175903453086,6.7530793165327685,4.34535789929688
3.414809896401028,2.2220107111093976,-1.459675923857461,-2.98296401135234,6.729967262076794,3.780814559312789
3.437030003512122,2.2893103837301654,-1.4895055639709844,-2.945155865759212,6.749966651248958,3.211949062576356
3.459923107349424,2.3568100502426548,-1.5189571226285765,-2.9130363751334487,6.813503767488688,2.634028789446354
3.4834912078518503,2.424945087917542,-1.548087486379911,-2.886696087238985,6.921341561337954,2.0422331555450355
3.507740658731026,2.4941585035309215,-1.576954447252301,-2.866273755683535,7.0745530740745535,1.431699055458745
3.532682243766335,2.564904034271667,-1.6056171848091363,-2.8519567651289477,7.2744653119040175,0.7976053876211073
3.5583312841090518,2.6376486873907075,-1.6341367524604258,-2.8439807112527364,7.522558977139708,0.13532041800414354
3.5847077709829587,2.7128742771621046,-1.6625765595729531,-2.842627507072695,7.820301703283393,-0.5593537703513204
3.6118365137545796,2.7910772941949387,-1.69100283464368,-2.848221044776208,8.16888161219462,-1.2897904853604427
3.639747286696529,2.872766110316885,-1.719485045091442,-2.861118949629813,8.568793262337008,-2.0579313608176935
3.668474947799698,2.958454042940255,-1.7480962345877402,-2.8816982632379897,9.01920891355201,-2.863366151240456
3.6980594882291005,3.048646132075775,-1.77691321722012,-2.9103319247503943,9.517045367386878,-3.7019706558078425
3.7285459495498583,3.1438165857496436,-1.806016536467624,-2.947351631308473,10.055614775458805,-4.563943520062135
3.7599841154073546,3.244372733504232,-1.8354900527807088,-2.992991066509094,10.622738659167473,-5.431070588487693
3.7924278427423967,3.3506001200959066,-1.8654199634457997,-3.047301772393971,11.198234720773291,-6.273090087670041
3.8259338439433557,3.4625824673036396,-1.8958929811697394,-3.1100326732706716,11.750808025196829,-7.043207550372814
3.860559668616392,3.5800905475556077,-1.9269933079024462,-3.1804647487743996,12.234679032905662,-7.673240144976036
3.896360574091948,3.7024373378846644,-1.9587979553901902,-3.25719715022416,12.586874861878785,-8.069718084527734
3.9333849474707945,3.8283060865034524,-1.9913699268924319,-3.337894331069437,12.727068901808034,-8.113638106242425
3.971668008335829,3.9555767755215325,-2.024748870203126,-3.4190307121318613,12.563005361655524,-7.668206389308093
4.011223776091044,4.081206829138088,-2.058939177324445,-3.4957127760249422,12.005106702755068,-6.599714896110801
4.052035844382425,4.201257896165639,-2.0938963050846944,-3.5617099249860504,10.992158764919822,-4.814288716921535
4.0940484233440815,4.311179483814837,-2.129513404334555,-3.6098528121552658,9.52411969115522,-2.3049456408626314
4.13716021818223,4.40642068072639,-2.1656119324561076,-3.632902268563892,7.688768078767315,0.809859252474903
4.1812244249894945,4.483308361514063,-2.2019409551417466,-3.624803676039143,5.662796518419006,4.283796878557752
4.226057508604635,4.539936326698253,-2.238188991902138,-3.5819657072535653,3.6755378835837997,7.7933383985694995
4.271456871871617,4.576691705534091,-2.2740086489746734,-3.5040323232678703,1.946217320968613,11.02645421214775
4.317223788926958,4.5961538787437775,-2.309048972207352,-3.393767781146393,0.6259686056954017,13.765285503317216
4.363185327714396,4.602413564800732,-2.342986650018816,-3.256114926113221,-0.22724551378705232,15.922777837895564
4.409209463362403,4.600141109662862,-2.375547799279948,-3.0968871477342654,-0.6366236571012381,17.52690157747615
4.4552108744590315,4.593774873091849,-2.406516670757291,-2.921618131959504,-0.6743679661714197,18.676005805117992
4.50114862318995,4.587031193430135,-2.435732852076886,-2.734858073908324,-0.4294384792363252,19.49351690261327
4.547018935124251,4.5827368086377716,-2.4630814328159696,-2.539922904882191,0.014072625623569037,20.097206474057394
4.592846303210629,4.582877534894007,-2.4884806618647914,-2.3389508401416172,0.5869675550475459,20.58459437470858
4.638675078559569,4.588747210444483,-2.5118701702662074,-2.1331048963945314,1.2369586905963663,21.029570852279328
4.684562550664014,4.601116797350446,-2.5332012192301527,-1.9228091878717382,1.9266305617363662,21.484734480803763
4.730573718637518,4.62038310296781,-2.5524293111088703,-1.7079618430637005,2.6300411292064667,21.98567173230337
4.776777549667196,4.646683514259874,-2.5695089295395075,-1.4881051257406668,3.329349469127601,22.55521706345771
4.823244384809795,4.67997700895115,-2.584389980796914,-1.2625529551060897,4.012001450853719,23.20692867268995
4.870044154899306,4.7200970234596875,-2.5970155103479753,-1.03048366837919,4.668567394154805,23.947632718970297
4.917245125133903,4.7667826974012355,-2.6073203470317674,-0.7910073411894871,5.291149067815924,24.779143575183337
4.964912952107915,4.819694188079395,-2.6152304204436625,-0.5432159054376537,5.8722286310597855,25.699338918752552
5.013109893988709,4.878416474389993,-2.620662579498039,-0.28622251625012823,6.403842644078997,26.702763047842126
5.061894058732609,4.942454900830783,-2.6235248046605406,-0.01919488577170697,6.876992179463669,27.780902895615363
5.111318607740916,5.01122482262542,-2.6237167535182575,0.25861414318444664,7.281229263500387,28.922251339298246
5.16143085596717,5.084037115260424,-2.621130612086413,0.5478366565774291,7.604384789961264,30.11224909099249
5.212271227119775,5.160080963160037,-2.615652245520639,0.8489591474873539,7.832422481707466,31.333180679252834
5.263872036751375,5.238405187977111,-2.6071626540457653,1.1622909542798823,7.949417683505362,32.56409022405374
5.316256088631146,5.317899364812165,-2.5955397445029664,1.4879318565204196,7.937669237341183,33.78077652855559
5.369435082279268,5.397276057185577,-2.5806604259377623,1.8257396218059756,7.777957730354325,34.95592203738761
5.423407842851124,5.47505563448912,-2.5624030297197025,2.175298842179852,7.449964132702784,36.059404261101136
5.478158399196015,5.549555275816148,-2.540650041297904,2.5358928847908633,6.932859327699898,37.05882961837873
5.533653951954177,5.618883869093147,-2.5152911124499955,2.9064811809746507,6.206067497147249,37.92031725931724
5.5898427906451085,5.680944544064619,-2.486226300640249,3.285684353567823,5.250195289954785,38.609544137992174
5.646652236085755,5.733446496964167,-2.4533694571045706,3.6717797949477444,4.048105068915902,39.093043193307246
5.703986701055396,5.773927547653327,-2.416651659155093,4.062710226880817,2.5860954619188705,39.339725590996075
5.761725976531929,5.7997885022725155,-2.3760245568862848,4.456107482790778,0.8551371078662742,39.322577604052796
5.819723861554654,5.808339873351178,-2.331463482058377,4.849333258831306,-1.1479032783035872,39.020464662839764
5.877807260288166,5.796860840568142,-2.282970149470064,5.239537905459704,-3.419131317717129,38.41996030708619
5.935775868693847,5.762669527390971,-2.230574770415467,5.623737508530566,-5.946679919559391,37.517105927334285
5.993402563967757,5.703202728195377,-2.174337395330161,5.998908567803909,-8.710057518600697,36.318997130271654
6.050434591249711,5.61610215300937,-2.114348309652122,6.362098539106626,-11.679907360065421,34.8450834210363
6.106595612779804,5.499303079408716,-2.0507273242610555,6.710549373316988,-14.81830159853112,33.12806077826681
6.161588643573891,5.351120063423405,-1.9836218305278857,7.0418299810996565,-18.07968886376019,31.214236233865986
6.215099844208125,5.170323174785803,-1.913203530716889,7.353972343438317,-21.412589727798782,29.16325819370081
6.266803075955983,4.956197277507815,-1.839663807282506,7.645604925375324,-24.76208403991242,27.047146326232134
6.316365048731061,4.708576437108691,-1.7632077580287528,7.916076388637646,-28.073055264146,24.948628569337618
6.363450813102148,4.4278458844672315,-1.6840469941423764,8.165562674331023,-31.2940568562955,22.9589007712019
6.40772927194682,4.114905315904276,-1.6023913673990662,8.395151682043041,-34.38156251932109,21.175055513456176
6.448878325105863,3.771089690711065,-1.5184398505786358,8.606902237177604,-37.304282410070066,19.697557281643046
6.486589222012974,3.3980468666103647,-1.43237082820686,8.803877809994034,-40.047197837151714,18.62824001947276
6.5205696906790775,2.9975748882388475,-1.3443320501069196,8.990160210188762,-42.615002674959634,18.06933878430721
6.550545439561466,2.571424861489251,-1.254430448005032,9.170853598031833,-45.0347306097598,18.124013642556054
