th1 (rad),w1 (rad/s),th2 (rad),w2 (rad/s),a1 (rad/s^2),a2 (rad/s^2)
4.026926997582452,1.6897810246687843,1.2107289711511233,-2.9287411176292704,4.178409029430304,-4.299601538404697
4.0438248078291394,1.7315651149630873,1.1814415599748307,-2.9717371330133173,4.67068983440434,-3.750376349366915
4.0611404589787705,1.7782720133071308,1.1517241886446976,-3.0092408965069866,5.224494723038437,-3.1400433134536665
4.078923179111841,1.8305169605375151,1.1216317796796278,-3.0406413296415233,5.832256430671699,-2.4803901907112706
4.097228348717216,1.888839524844232,1.0912253663832125,-3.0654452315486362,6.481430420665875,-1.790284119877601
4.116116743965659,1.9536538290508907,1.0605709140677262,-3.083348072747412,7.154461825255544,-1.09581017300377
4.135653282256167,2.0251984473034463,1.029737433340252,-3.09430617447745,7.829500616692833,-0.42939194732273817
4.155905266729202,2.103493453470375,0.9987943715954776,-3.0986000939506773,8.48196754661331,0.17225979878084638
4.176940201263906,2.188313128936508,0.9678083706559708,-3.0968774959628687,9.086884380258558,0.6712680653602942
4.198823332553271,2.2791819727390936,0.9368395956963421,-3.0901648153092656,9.621658257602052,1.0323688599665068
4.221615152280662,2.375398555315114,0.9059379475432494,-3.0798411267096006,10.068830314748457,1.2266828921931319
4.245369137833813,2.476086858462599,0.8751395362761534,-3.067574297787669,10.418244635829506,1.234726424095198
4.270130006418439,2.580269304820894,0.8444637932982767,-3.0552270335467173,10.668205523427384,1.048046963998579
4.295932699466648,2.6869513600551675,0.8139115229628096,-3.0447465639067315,10.825439170365524,0.6691991041433029
4.3228022130672,2.795205751758823,0.7834640573237422,-3.0380545728652986,10.903969887968437,0.1101763213255261
4.350754270584788,2.9042454506385074,0.7530835115950892,-3.0369528096520435,10.923255716739002,-0.6102578668565156
4.379796725091173,3.0134780078058974,0.7227139834985687,-3.043055388320609,10.90603425886759,-1.4697393778926737
4.409931505169232,3.1225383503945734,0.6922834296153626,-3.0577527820995356,10.876299243565972,-2.445403668450282
4.441156888673178,3.2313013428302333,0.6617059017943673,-3.0822068187840386,10.85770501346427,-3.5165084443241406
4.47346990210148,3.339878392964876,0.6308838336065269,-3.11737190322728,10.872542362379436,-4.666381782641155
4.506868686031129,3.4486038165886703,0.599710114574254,-3.1640357210536916,10.941296647849247,-5.883687495446963
4.541354724197015,3.558016783067163,0.5680697573637171,-3.2228725960081612,11.082714299311506,-7.163129192864036
4.576934892027687,3.668843926060278,0.5358410314036355,-3.2945038879368016,11.314269476729253,-8.50577944003245
4.61362333128829,3.7819866208275705,0.5028959925242674,-3.379561682337126,11.652927372499871,-9.919235376177129
4.651443197496565,3.898515894552569,0.46910037570089613,-3.4787540360988976,12.11612911225523,-11.417788593703184
4.690428356442091,4.019677185675121,0.43431283533990717,-3.5929319220359295,12.72296235264735,-13.022774148853903
4.730625128298842,4.146906809201595,0.39838351611954786,-3.7231596635244686,13.495523078848445,-14.763244439359346
4.772094196390857,4.281862039990079,0.3611519194843032,-3.870792107918062,14.460513363777588,-16.677104838195685
4.814912816790758,4.426467173627855,0.32244399840512256,-4.037563156300019,15.651154145626261,-18.81284929809579
4.8591774885270365,4.582978715084118,0.2820683668421224,-4.225691649280977,17.109515946860196,-21.232036778155525
4.905007275677877,4.75407387455272,0.23981145034931262,-4.438012017062532,18.88936771020716,-24.01262730906126
4.952548014423405,4.9429675516547915,0.1954313301786873,-4.678138290153145,21.059569685655834,-27.25318337594799
5.001977689939952,5.15356324851135,0.14864994727715586,-4.950670123912625,23.707773815455745,-31.077571682778228
5.053513322425066,5.3906409866659075,0.09914324603802961,-5.261445840740407,26.943449139810507,-35.63875711115082
5.107419732291725,5.660075478064012,0.04652878763062554,-5.617833411851915,30.89728252352302,-41.11753067533369
5.164020487072365,5.9690483032992425,-0.009649546487893616,-6.029008718605252,35.70899099548569,-47.70499860462197
5.2237109701053575,6.326138213254099,-0.06993963367394614,-6.506058704651472,41.48312399820436,-55.54021366705264
5.286972352237899,6.740969453236143,-0.13500022072046086,-7.061460841321998,48.16274217015377,-64.53270476493711
5.35438204677026,7.222596874937681,-0.20561482913368084,-7.70678788897137,55.20707787125402,-73.91013160138864
5.426608015519637,7.774667653650221,-0.28268270802339457,-8.445889204985257,60.86150494299187,-81.19377054742382
5.504354692056139,8.38328270308014,-0.36714160007324714,-9.257826910459494,60.867295760348,-80.38676619402435
5.58818751908694,8.991955660683619,-0.4597198691778421,-10.061694572399738,47.66204642374,-60.849140767527835
5.678107075693776,9.468576124921018,-0.5603368149018395,-10.670185980075015,15.013886663956482,-13.800346616689163
5.772792836942987,9.618714991560584,-0.6670386747025897,-10.808189446241906,-28.208257576029276,48.359423906013696
5.868979986858593,9.33663241580029,-0.7751205691650087,-10.324595207181769,-57.76718689220404,91.68689566245257
5.962346311016596,8.75896054687825,-0.8783665212368263,-9.407726250557243,-63.66835287609599,102.16126579465953
6.049935916485378,8.12227701811729,-0.9724437837423988,-8.386113592610647,-56.179614005315074,94.05922164073313
6.13115868666655,7.560480878064139,-1.0563049196685053,-7.445521376203315,-45.52831944864585,81.6065955698399
6.206763495447192,7.10519768357768,-1.1307601334305384,-6.629455420504916,-35.74678157598856,70.41770430839897
6.277815472282969,6.747729867817795,-1.1970546876355876,-5.925278377420927,-27.66562188803294,61.661213661953376
6.345292770961146,6.471073648937466,-1.2563074714097968,-5.308666240801394,-21.1381049483507,55.14598644348603
6.410003507450521,6.259692599453959,-1.3093941338178108,-4.7572063763665335,-15.835386593571778,50.42126355430477
6.472600433445061,6.101338733518241,-1.3569661975814762,-4.252993740823486,-11.461043216332152,47.07184141258696
6.533613820780244,5.986728301354919,-1.399496134989711,-3.7822753266976163,-7.78962578714039,44.76959893696695
6.593481103793793,5.908832043483515,-1.4373188882566872,-3.3345793373279466,-4.660413128892284,43.262994244679284
6.652569424228628,5.862227912194592,-1.4706646816299667,-2.9019493948811537,-1.96355556296005,42.356104627635794
6.711191703350574,5.8425923565649915,-1.4996841755787782,-2.4783883486047955,0.3722493961703881,41.890142604983396
6.769617626916224,5.846314850526696,-1.524468059064826,-2.0594869225549615,2.389225904100379,41.729727082606765
6.828080775421491,5.8702071095676995,-1.5450629282903756,-1.6421896517288939,4.107746264785225,41.75363061341458
6.8867828465171685,5.911284572215552,-1.5614848248076645,-1.2246533455947481,5.532215658710213,41.849364223101475
6.945895692239324,5.966606728802653,-1.5737313582636119,-0.8061597033637333,6.656361898504366,41.911071530634125
7.0055617595273505,6.0331703477876975,-1.5817929552972492,-0.3870489880573921,7.468403174558891,41.84028261790807
7.065893463005228,6.107854379533286,-1.585663445177823,0.03135383812168868,7.956250919764883,41.54899812967386
7.12697200680056,6.187416888730935,-1.5853499067966061,0.4468438194184273,8.112581295732008,40.9643472743985
7.188846175687869,6.268542701688255,-1.580881468602422,0.8564872921624123,7.9393292239253315,40.033780437627854
7.251531602704752,6.347935993927509,-1.5723165956807978,1.256825096538691,7.450998162791179,38.72955831858174
7.315010962644027,6.422445975555421,-1.559748344715411,1.6441206797245083,6.6762072465240205,37.05132787536202
7.379235422399581,6.489208048020661,-1.543307137918166,2.0146339584781283,5.657138031914607,35.02591003204409
7.4441275028797875,6.545779428339807,-1.5231607983333848,2.364893058798569,4.446940648623214,32.7040246032103
7.509585297163186,6.590248834826039,-1.4995118677453991,2.691933304830672,3.1055866012045863,30.154380161929826
7.575487785511446,6.621304700838085,-1.4725925346970925,2.99347710644997,1.6949641942865064,27.456136965737976
7.641700832519827,6.63825434278095,-1.4426577636325928,3.2680384761073498,0.274100452946299,24.691028866795836
7.708083375947636,6.6409953473104135,-1.4099773788715193,3.514948764775308,-1.1047501331447909,21.936348519260733
7.77449332942074,6.629947845978966,-1.3748278912237661,3.7343122499679153,-2.398708481149912,19.25963864706376
7.84079280788053,6.605960761167466,-1.337484768724087,3.926908636438553,-3.5754611461448857,16.715451152743807
7.906852415492205,6.570206149706018,-1.2982156823597015,4.094063147965991,-4.613207892436891,14.344095862244671
7.972554476989265,6.524074070781649,-1.2572750508800417,4.237504106588437,-5.499695249591152,12.17200272603651
8.03779521769708,6.469077118285737,-1.2149000098141574,4.3592241338488025,-6.230706995325707,10.213191091393556
8.102485988879938,6.40677004833248,-1.1713077684756694,4.461356044762738,-6.808340604481359,8.471346967691554
8.166553689363262,6.338686642287667,-1.126694208028042,4.546069514439654,-7.239314291471026,6.9420997694317945
8.229940555786138,6.266293499372956,-1.0812335128836454,4.615490512133972,-7.533457048497805,5.615211890565765
8.292603490779868,6.190958928887978,-1.0350786077623058,4.67164263103963,-7.70245521015218,4.476511322314702
8.354513080068747,6.113934376786457,-0.9883621814519095,4.716407744262777,-7.758872046780639,3.509490732668665
8.415652423836612,6.03634565631865,-0.9411981040092817,4.751502651589464,-7.715421639424142,2.6965609224988953
8.476015880399798,5.959191439924409,-0.893683077493387,4.778468260814453,-7.5844605231101,2.0199852406663785
8.535607794799041,5.883346834693308,-0.8458983948852425,4.798668113221117,-7.377654893188995,1.4625405195916277
8.594441263145974,5.809570285761418,-0.7979117137530314,4.813293518417034,-7.105782727706114,1.0079558480695965
8.652536966003588,5.738512458484357,-0.749778778568861,4.823373076897729,-6.778635384767626,0.6411784095201197
8.709922090588432,5.670726104636681,-0.7015450477998837,4.82978486099293,-6.404989725367337,0.34850957314540376
8.766629351634798,5.606676207383008,-0.6532471991899544,4.833269956724385,-5.992628222366794,0.11764695513210206
8.822696113708627,5.5467499251593395,-0.6049144996227106,4.834446426275706,-5.548390171968482,-0.06233926626489822
8.87816361296022,5.491266023439655,-0.5565700353599535,4.833823033613057,-5.078241783896965,-0.20107415316563268
8.933076273194617,5.440483605600686,-0.5082318050238229,4.831812292081401,-4.587356589812495,-0.3069738893915347
8.987481109250623,5.3946100397025605,-0.4599136821030089,4.828742553187486,-4.080200390236955,-0.38735819712447983
9.04142720964765,5.353808035800191,-0.41162625657113405,4.824868971216241,-3.560617012635454,-0.44857124511596347
9.094965290005652,5.318201865673837,-0.36337756685897166,4.820383258765082,-3.0319126316168266,-0.4961056598386578
9.14814730866239,5.287882739357668,-0.31517373427132084,4.815422202166696,-2.496937442615751,-0.5347262202502204
9.201026136055967,5.262913364931511,-0.26701951224965387,4.810074939964194,-1.9581641946501664,-0.5685912454567575
9.253655269705282,5.243331722985009,-0.21891876285001194,4.804389027509626,-1.417763563323637,-0.6013706955758014
9.306088586935132,5.229154087351773,-0.17087487257491568,4.798375320553868,-0.8776766483176791,-0.6363606986027244
9.35838012780865,5.220377320868597,-0.122891119369377,4.792011713567841,-0.33968505865047166,-0.6765946666640109
9.410583901017336,5.216980470282092,-0.07497100223369858,4.785245766901201,0.1945208618099468,-0.724951430504912
9.462753705720157,5.218925678900192,-0.02711854456468657,4.777996252596152,0.723275093834726,-0.7842609412615739
9.51494296250916,5.226158429838539,0.02066141796127495,4.770153643183536,1.2448697436454577,-0.8574080888886018
9.567204546807545,5.238607127274993,0.06836295439311031,4.76157956229465,1.75748911987999,-0.9474350798275256
9.619590618080295,5.256182018473793,0.11597875001605681,4.752105211496375,2.2591437485830053,-1.057642604066098
9.672152438265034,5.278773455959623,0.16349980213102056,4.741528785455714,2.747604171327073,-1.1916896945536595
9.72494017282463,5.306249497672894,0.2109150899855777,4.729611888510178,3.2203346253326393,-1.35369172078034
9.778002667801358,5.338452843926221,0.2582112088706795,4.716074971302374,3.674427050010093,-1.5483153341259284
9.83138719624062,5.375197114426322,0.30537195858370325,4.700591817961115,4.106536330230527,-1.7808683569884656
9.885139167384883,5.416262477728627,0.3523778767633144,4.68278313439123,4.512818308754622,-2.057381534353811
9.93930179216217,5.461390660816173,0.39920570810722666,4.662209319047692,4.888872921294619,-2.38467769387173
9.993915698770332,5.510279390029119,0.4458278012977036,4.6383625421089745,5.229695875146121,-2.7704221375754314
10.049018492670623,5.56257634878058,0.49221142671879337,4.61065832073322,5.529643654071027,-3.223145974385279
10.104644256158428,5.617872785321291,0.5383180099261256,4.578426860989367,5.7824183279662895,-3.752231583682222
10.160822984011642,5.6756969686009535,0.5841022785360193,4.540904545152545,5.981080693035971,-4.3678465158080115
10.217579953697651,5.735507775531313,0.6295113239875447,4.497226079994465,6.118102637954147,-5.080809016695891
10.274935031452964,5.796688801910855,0.6744835847874894,4.446417989827506,6.185472214010401,-5.902365289161866
10.332901919472073,5.858543524050958,0.7189477646857645,4.387394336935887,6.174867442243677,-6.843856069363957
10.391487354712583,5.920292198473395,0.7628217080551234,4.318955776242247,6.077916984068182,-7.9162489032970305
10.450690276697317,5.981071368314077,0.8060112658175459,4.2397932872092765,5.886566734079847,-9.129513841329405
10.510500990380459,6.039937035654876,0.8484091986896387,4.148498148795983,5.593570134676874,-10.491825753648364
10.570900360737008,6.095872737001645,0.8898941801775986,4.043579891259499,5.193115178468412,-12.008588133437117
10.631859088107024,6.147803888786329,0.9303299790901935,3.923494009925128,4.681590994096341,-13.681293315915822
10.693337126994887,6.194619798727292,0.9695649191894449,3.7866810767659698,4.058479917759024,-15.506264408385148
10.75528332498216,6.235204597904882,1.0074317299571045,3.631618432682118,3.3273358537593207,-17.473365595443315
10.81763537096121,6.268477956442474,1.0437479142839257,3.456884776727685,2.4967767095111144,-19.564817996793487
10.880320150525634,6.293445723537586,1.0783167620512024,3.26123659675975,1.5813804686570176,-21.754311875542253
10.943254607761009,6.309259528224156,1.1109291280187998,3.0436934780043274,0.6023374671420363,-24.00665110991377
11.006347203043251,6.315282902895576,1.1413660627988431,2.8036269669051896,-0.4123135884564206,-26.278185067240358
11.069500032072208,6.311159767011012,1.169402332467895,2.540845116232786,-1.4280371672067214,-28.518255529694077
11.132611629742318,6.296879395338944,1.1948107836302229,2.2556625609358454,-2.4048696055224483,-30.67179382210475
11.195580423695707,6.27283069928372,1.2173674092395814,1.948944622714798,-3.2992435813000034,-32.68303950042298
11.258308730688544,6.23983826347072,1.2368568554667294,1.6221142277105682,-4.066471264795753,-34.500132965033856
11.320707113323252,6.199173550822763,1.253077997743835,1.2771128980602295,-4.663631370100807,-36.08010440069632
11.38269884883148,6.152537237121755,1.2658491267244374,0.9163118540532663,-5.052466004779379,-37.3936075367825
11.444224221202697,6.102012577073961,1.2750122452649701,0.5423757786854413,-5.201819314318748,-38.42869888041721
11.505244346973436,6.049994383930774,1.2804360030518245,0.15808878988126918,-5.089176861564071,-39.19308472840667
11.565744290812743,5.999102615315134,1.282016890950637,-0.2338420574027975,-4.70099766434743,-39.7145404579702
11.625735316965894,5.952092638671659,1.279678470376609,-0.6309874619824996,-4.031736924490051,-40.03958221346291
11.68525624335261,5.911775269426759,1.2733685957567842,-1.0313832841171287,-3.0816752633541706,-40.23083684736828
11.744373996046878,5.880958516793217,1.2630547629156128,-1.4336916525908114,-1.8538336511111706,-40.363813594202135
11.80318358121481,5.862420180282105,1.2487178463897046,-1.8373297885328328,-0.3503175360162436,-40.523876404373844
11.861807783017632,5.858917004921943,1.2303445485043762,-2.242568552576571,1.4316094455964108,-40.80415571405698
11.92039695306685,5.873233099377907,1.2079188629786106,-2.650610109717141,3.5035464896600175,-41.304976781255306
11.97912928406063,5.908268564274507,1.1814127618814392,-3.063659877529694,5.890054907799654,-42.13518638041251
12.038211969703374,5.9671691133525036,1.1507761631061422,-3.4850117413338193,8.63295567748017,-43.415571251717175
12.0978836608369,6.053498670127305,1.115926045692804,-3.9191674538509913,11.79598372679024,-45.28434855593011
12.158418647538172,6.171458507395207,1.076734371154294,-4.372010939410292,15.469755635329534,-47.90429279258269
12.220133232612124,6.326156063748503,1.0330142617601912,-4.851053867336119,19.77621680019913,-51.46994142028782
12.28339479324961,6.523918231750494,0.98450372308683,-5.365753281538997,24.86943983934137,-56.21018175254066
12.348633975567115,6.772612630143907,0.93084619027144,-5.927855099064404,30.92344720060716,-62.37297679146176
12.416360101868554,7.081847102149979,0.871567639280796,-6.551584866979022,38.081468264244855,-70.1563971801775
12.487178572890054,7.462661784792427,0.8060517906110057,-7.253148838780797,46.299914471918925,-79.49273878877794
12.561805190737978,7.925660929511617,0.7335203022231978,-8.048076226668577,54.925582906057436,-89.45988902251845
12.641061800033095,8.47491675857219,0.653039539956512,-8.942675116893762,61.683836899737976,-96.86860743011376
12.725810967618816,9.09175512756957,0.5636127887875744,-9.9113611911949,60.81595684274241,-93.65820271674173
12.816728518894513,9.699914695996995,0.46449917687562536,-10.847943218362317,42.07909081914061,-65.50269145466933
12.913727665854482,10.120705604188402,0.3560197446920022,-11.502970132909011,-1.2229120935198103,-3.080185114610493
13.014934721896367,10.108476483253204,0.24099004336291208,-11.533771984055116,-52.023192480663695,69.62574152267088
13.116019486728899,9.588244558446567,0.12565232352236091,-10.837514568828407,-78.6082459915321,108.24190304321114
13.211901932313364,8.802162098531246,0.01727717783407684,-9.755095538396295,-77.61538750771004,108.16222051729245
13.299923553298676,8.026008223454145,-0.08027377754988611,-8.67347333322337,-65.75712408449655,92.76857625207684
13.380183635533218,7.36843698260918,-0.16700851088211982,-7.745787570702602,-53.30329098408002,76.39958398013597
13.45386800535931,6.835404072768379,-0.24446638658914582,-6.981791730901242,-43.037107454796065,62.95339978711036
13.522222046086993,6.405032998220419,-0.31428430389815826,-6.352257733030139,-35.06367925726908,52.5978182083327
13.586272376069198,6.054396205647728,-0.3778068812284596,-5.826279550946811,-28.918839949046973,44.70358367688101
13.646816338125676,5.7652078061572585,-0.43606967673792774,-5.379243714178001,-24.140196815209034,38.63770209097508
13.704468416187249,5.523805838005168,-0.48986211387970774,-4.99286669326825,-20.372137133372693,33.909623169694505
13.7597064745673,5.320084466671441,-0.5397907808123903,-4.653770461571305,-17.359142554911887,30.16242345621425
13.812907319234014,5.146493041122322,-0.5863284854281033,-4.352146227009163,-14.920974742572767,27.138727782217774
13.864372249645237,4.9972832936965945,-0.6298499476981949,-4.080758949186985,-12.930857390498991,24.65068563022116
13.914345082582203,4.867974719791604,-0.6706575371900647,-3.834252092884774,-11.299570234921195,22.558135136680875
13.96302482978012,4.754979017442392,-0.7090000581189124,-3.6086707415179653,-9.964415585475834,20.753646856365588
14.010574619954543,4.655334861587634,-0.745086765534092,-3.4011342729543093,-8.881575991629548,19.152558028853697
14.05712796857042,4.5665191016713385,-0.7790981082636351,-3.209608692665772,-8.02066970705168,17.68652938617197
14.102793159587133,4.486312404600822,-0.8111941951902928,-3.0327433988040524,-7.360654573256045,16.29963629334086
