th1 (rad),w1 (rad/s),th2 (rad),w2 (rad/s),a1 (rad/s^2),a2 (rad/s^2)
5.48690171647261,-2.674308916268208,4.179705527002334,1.3954758767500068,4.208065121498936,14.25062698253057
5.460158627309927,-2.6322282650532185,4.193660285769835,1.5379821465753125,3.969951812799821,13.931628257388509
5.433836344659396,-2.5925287469252205,4.209040107235588,1.6772984291491977,3.721197300763665,13.645413358886703
5.407911057190144,-2.5553167739175837,4.225813091527081,1.8137525627380646,3.4637357083897373,13.392455576871754
5.382357889450968,-2.520679416833686,4.243950617154462,1.9476771185067823,3.1995455169997085,13.172612860843609
5.357151095282631,-2.488683961663689,4.2634273883395295,2.079403247115218,2.9307785033476854,12.985040923006398
5.332264255665994,-2.4593761766302125,4.284221420810682,2.209253656345282,2.6599209621470927,12.82805881919181
5.307670493899692,-2.4327769670087416,4.306313957374135,2.3375342445372,2.3899953792868236,12.698954831302258
5.2833427242296045,-2.408877013215873,4.329689299819507,2.4645237928502226,2.1248119437384974,12.593719090667044
5.259253954097446,-2.3876288937784884,4.354334537748009,2.590460983756893,1.8692795140725316,12.506689195890214
5.23537766515966,-2.368936098637763,4.380239147585578,2.7155278757157952,1.6297837159259845,12.430097685468319
5.211688304173283,-2.352638261478503,4.407394426342736,2.8398288525704785,1.4146337460217493,12.353518347409224
5.188161921558498,-2.3384919240182858,4.435792714868441,2.9633640360445708,1.2345660398415645,12.263226312408898
5.164777002318315,-2.32614626361987,4.465426355228887,3.08599629916866,1.1032676612986614,12.141520961312807
5.141515539682117,-2.3151135870068833,4.496286318220574,3.207411508781788,1.037839377663284,11.966118780563653
5.118364403812048,-2.3047351932302504,4.528360433308392,3.3270726965874244,1.0590526145614378,11.709812771113386
5.0953170518797455,-2.294144667084636,4.561631160274266,3.4441708242985585,1.1911653943543663,11.340716630016368
5.072375605208899,-2.2822330131410924,4.596072868517251,3.5575779905987224,1.4609633048869497,10.823547493724897
5.049553275077488,-2.267623380092223,4.631648648423239,3.6658134655359715,1.8956237739862696,10.122493954837644
5.026877041276566,-2.2486671423523603,4.668306783078599,3.767038405084348,2.519048656716726,9.20615185245795
5.004390369853042,-2.223476655785193,4.705977167129443,3.8590999236089276,3.346592946403063,8.054621675823924
4.98215560329519,-2.1900107263211623,4.744568166365532,3.939646140367167,4.378741786623651,6.668003669040931
4.960255496031979,-2.146223308454926,4.783964627769204,4.006326177057576,5.595210262630731,5.074262216128069
4.93879326294743,-2.0902712058286186,4.82402788953978,4.0570687992188565,6.951798869738119,3.3332625046681748
4.917890550889143,-2.0207532171312375,4.864598577531968,4.090401424265538,8.382433392766773,1.533675735360911
4.897683018717831,-1.9369288832035698,4.905502591774623,4.105738181619147,9.807501114786842,-0.21870547586083053
4.878313729885795,-1.8388538720557015,4.946559973590815,4.1035511268605385,11.147005259700789,-1.8191151530416088
4.859925191165238,-1.7273838194586937,4.98759548485942,4.085359975330122,12.334530941591886,-3.182841190680789
4.842651352970651,-1.6040385100427748,5.028449084612721,4.053531563423314,13.327326919920658,-4.258672996325118
4.826610967870224,-1.470765240843568,5.068984400246954,4.010944833460063,14.109610921906933,-5.032884801334616
4.811903315461788,-1.3296691316244988,5.109093848581555,3.960615985446717,14.689296408528971,-5.524175623517592
4.798606624145544,-1.1827761675392092,5.148700008436022,3.905374229211541,15.090719072366813,-5.773244812865547
4.786778862470151,-1.0318689768155411,5.187753750728138,3.8476417810828853,15.346512857191541,-5.83139876313665
4.776460172701996,-0.8784038482436257,5.226230168538967,3.789327793451519,15.490888032083657,-5.751274978944781
4.76767613421956,-0.7234949679227891,5.264123446473482,3.731815043662071,15.555216627800265,-5.580871149268031
4.760441184540332,-0.5679428016447865,5.301441596910102,3.6760063321693908,15.565808246374917,-5.360651385755363
4.754761756523884,-0.4122847191810373,5.338201660231796,3.622399818311837,15.543286505158356,-5.122865182180262
4.750638909332073,-0.25685185412945377,5.374425658414914,3.5711711664900343,15.502919371998981,-4.892156915649883
4.748070390790779,-0.10182266040946394,5.4101373700798145,3.5222495973335355,15.455397654787877,-4.686755423203207
4.747052164186684,0.052731316138414835,5.44535986605315,3.4753820431015034,15.407738040986976,-4.519795283366059
4.747579477348068,0.2068086965482846,5.480113686484165,3.4301840902678427,15.364136939944844,-4.400533536157524
4.749647564313551,0.36045006594773304,5.514415527386843,3.3861787549062674,15.326701236832523,-4.335365149882202
4.7532520649730285,0.5137170783160583,5.5482773149359055,3.342825103407445,15.296039193905193,-4.328619316728078
4.758389235756189,0.6666774702551101,5.58170556596998,3.299538910240164,15.271722701692312,-4.383156477630379
4.76505601045874,0.8193946972720333,5.614700955072381,3.2557073454638603,15.252642783720663,-4.500799869377989
4.77324995743146,0.9719211251092399,5.64725802852702,3.2106993467700806,15.237281913275496,-4.682636976823964
4.782969168682553,1.1242939442419948,5.6793650219947205,3.163872977001841,15.223924264887135,-4.929222489838067
4.794212108124973,1.276533186890866,5.711003751764739,3.11458075210346,15.210821184108486,-5.240708914942506
4.806977439993881,1.4286413987319508,5.742149559285774,3.062173662954035,15.196325223648833,-5.616925636959516
4.8212638539812005,1.5806046509684393,5.772771295915314,3.00600440658444,15.17900260523141,-6.0574226596134215
4.837069900490885,1.7323946770207534,5.802831339981158,2.9454301799883056,15.157731081351182,-6.561491631588387
4.854393847261092,1.8839719878342653,5.832285641781041,2.879815263672422,15.131787870958515,-7.128173999023168
4.873233567139435,2.0352898665438506,5.861083794417765,2.8085335236821902,15.1009305436159,-7.756264038167458
4.893586465804874,2.18629917198001,5.889169129654587,2.7309708833005155,15.065472328619775,-8.444312912923555
4.915449457524674,2.3369538952662077,5.916478838487593,2.64652775417128,15.02635223416705,-9.190638577150771
4.938818996477336,2.4872174176078783,5.942944116029306,2.554621368399772,14.985199488979921,-9.993345117731801
4.963691170653415,2.6370694124976777,5.968490329713304,2.454687917222454,14.944391076740004,-10.850353832217285
4.990061864778392,2.7865133232650776,5.993037208885529,2.346184378900281,14.907100420026891,-11.759446763791503
5.017926998011043,2.9355843274653464,6.016499052674531,2.228589911262366,14.87733444847048,-12.718321350573035
5.047282841285696,3.084357671950051,6.038784951787155,2.1014066977566355,14.859955154783059,-13.724651988730683
5.078126418005197,3.2329572234978814,6.059799018764721,1.9641601778693287,14.860679994518327,-14.776150235461987
5.110455990240176,3.381564023443065,6.079440620543415,1.8163986755147088,14.886052642079061,-15.870609451577872
5.144271630474607,3.5304245498638553,6.097604607298562,1.65769258099893,14.943370930683123,-17.00591092215535
5.179575875973245,3.6798582591706865,6.114181533108551,1.4876334717773765,15.040551120541622,-18.179955370332642
5.216374458564951,3.830263770376103,6.129057867826325,1.3058339180740501,15.185895179057335,-19.39046393016201
5.254677096268712,3.982122722166676,6.142116207007065,1.11192927877243,15.38770783038985,-20.63456247166676
5.294498323490379,4.135999800470574,6.15323549979479,0.9055836540557624,15.653678788083372,-21.908017372462407
5.335858321495085,4.292536588351408,6.162291336335348,0.6865034803311383,15.98989731746103,-23.203922041069163
5.378783687378599,4.452435561526018,6.1691563711386594,0.45446425992044664,16.399294195132473,-24.51053264600925
5.423308042993859,4.6164285034773425,6.173701013737864,0.20935893346035414,16.879203728425775,-25.807810506007634
5.469472328028632,4.785220540761601,6.175794603072467,-0.048719171599722194,17.41760574825296,-27.06204934739965
5.517324533436248,4.959396598244131,6.17530741135647,-0.3193396650737187,17.987467552511806,-28.2177841409191
5.56691849941869,5.139271273769249,6.172114014705732,-0.6015175064829097,18.538544512721334,-29.186121169176605
5.6183112121563825,5.324656718896462,6.166098839640903,-0.8933787181746757,18.98624557297544,-29.829029467336998
5.671557779345347,5.5145191746262165,6.157165052459156,-1.1916690128480458,19.198236629536993,-29.94072283312611
5.726702971091609,5.706501540921587,6.145248362330675,-1.4910762411793068,18.982260181352586,-29.231344214682895
5.783767986500825,5.8963241427351125,6.1303375999188825,-1.7833896833261358,18.084303230765343,-27.326292907386648
5.8427312279281765,6.077167175042766,6.112503703085621,-2.0566526124000024,16.214518478348204,-23.80631078601135
5.903502899678604,6.239312359826248,6.091937176961621,-2.294715720260116,13.123442315891454,-18.32054076332328
5.9658960232768665,6.370546782985162,6.06899001975902,-2.4779211278933486,8.736737185246152,-10.783795612954972
6.029601491106718,6.457914154837623,6.044210808480086,-2.5857590840228983,3.303831700048066,-1.5930113517124915
6.094180632655094,6.490952471838104,6.0183532176398575,-2.6016891975400234,-2.555940089224266,8.305453393051213
6.159090157373475,6.465393070945861,5.992336325664457,-2.5186346636095114,-8.019298659351762,17.656632868937876
6.223744088082934,6.385200084352344,5.9671499790283615,-2.3420683349201328,-12.384550083622726,25.37204659408179
6.287596088926457,6.261354583516117,5.9437292956791605,-2.088347868979315,-15.329807465430349,30.91255323931228
6.350209634761618,6.1080565088618135,5.922845816989367,-1.779222336586192,-16.933059195114026,34.3288383115516
6.411290199850236,5.938725916910673,5.905053593623506,-1.435933953470676,-17.507963436190966,36.031349618925574
6.470677459019343,5.7636462825487635,5.890694254088799,-1.0756204572814203,-17.419260934510184,36.523814954575776
6.5283139218448305,5.5894536732036615,5.879938049515984,-0.7103823077356626,-16.974284276530984,36.24201959327713
6.584208458576867,5.419710830438351,5.872834226438628,-0.34796211180289127,-16.39107295913951,35.502277187599596
6.638405566881251,5.255800100846956,5.869354605320599,0.007060660073104685,-15.8075180165816,34.5104134201747
6.69096356788972,5.097724920681141,5.869425211921331,0.3521647942748517,-15.30274312181937,33.39016084645321
6.741940817096531,4.944697489462947,5.872946859864079,0.6860664027393839,-14.91709226469458,32.21091428674115
6.791387791991161,4.795526566816001,5.879807523891473,1.0081755456067953,-14.666867189308155,31.008743061780816
6.839343057659321,4.648857894922919,5.889889279347541,1.3182629762246036,-14.55405868203854,29.80058546753013
6.88583163660855,4.503317308102534,5.903071909109787,1.616268830899905,-14.572398214891415,28.59326362988464
6.9308648096895755,4.357593325953619,5.919234597418786,1.9022014671987513,-14.71099796541027,27.388988752572942
6.9744407429491115,4.210483346299516,5.938256612090774,2.1760913547244805,-14.956509154533302,26.18861424329457
7.016545576412106,4.060918254754183,5.960017525638018,2.4379774971574264,-15.294409324395298,24.993479444238506
7.057154758959648,3.9079741615102304,5.984397300609593,2.6879122915998113,-15.7097960902084,23.8063787265552
7.0962345005747505,3.7508762006081464,6.011276423525591,2.9259760788653635,-16.187911163873473,22.631987331752267
7.133743262580832,3.588997088969412,6.040536184314245,3.152295952182886,-16.714521844893078,21.47694873381053
7.169633233470526,3.4218518705204812,6.072059143836074,3.3670654395209914,-17.276228002999204,20.349752001014398
7.203851752175731,3.249089590490489,6.105729798231284,3.5705629595311352,-17.860726938928213,19.26048234189119
7.236342648080636,3.070482321101207,6.141435427826595,3.763167782950047,-18.457047432224282,18.220500953691314
7.267047471291648,2.8859118467789644,6.179067105656095,3.9453727924869604,-19.055752158061953,17.24209337791038
7.295906589759438,2.6953543251983447,6.218520833580965,4.117793726266064,-19.64910093845928,16.338113783723315
7.322860133011422,2.498863315813752,6.259698770843626,4.281174864103297,-20.23116361922698,15.52164279520274
7.34784876616956,2.296551679621482,6.302510519484659,4.436391292055324,-20.797868951913664,14.805666555305002
7.370814282965775,2.0885729901023455,6.346874432405212,4.584447957608375,-21.346973129421876,14.20277305488245
7.3917000128667985,1.8751032588081267,6.392718911981295,4.726475688157199,-21.87792691472124,13.72484673104779
7.41045104545488,1.6563239896609143,6.439983668862867,4.863724155467677,-22.391611635460603,13.382721914440328
7.427014285351489,1.4324078733063084,6.488620910417544,4.9975513746120805,-22.889899162538253,13.185726976540694
7.441338364084552,1.2035088816809258,6.538596424163665,5.129408644377487,-23.37496605310374,13.14100981699231
7.453373452901361,0.9697592211498884,6.58989051060744,5.260818742547411,-23.848253203971154,13.252475973987133
7.4630710451128595,0.731276689110177,6.642498698032915,5.393343502287282,-24.30890521659341,13.519086562457488
7.470383812003961,0.48818763694424283,6.696432133055787,5.528534367911857,-24.751445670287787,13.932149769868412
7.475265688373403,0.24067318024136497,6.751717476734906,5.667855865610541,-25.16235120923712,14.471102438737462
7.477672420175817,-0.010950331851006245,6.808396035391011,5.812566889997916,-25.51510789281449,15.097154521138757
7.477562916857307,-0.26610141077915117,6.8665217042909905,5.963538435209303,-25.763353908854587,15.74417420981726
7.474901902749516,-0.5237349498676971,6.926157088643084,6.120980177307476,-25.83203992932141,16.30660709293353
7.469664553250839,-0.7820553491609112,6.987366890416158,6.284046248236811,-25.607588368573353,16.625624794885592
7.46184399975923,-1.0381312328466448,7.050207352898527,6.4503024961856665,-24.930470867162853,16.478020394871006
7.451462687430763,-1.2874359415182732,7.1147103778603835,6.615082700134376,-23.5980528081478,15.578483859733169
7.43858832801558,-1.5234164695997512,7.180861204861727,6.770867538731708,-21.391167799505624,13.613763649287998
7.4233541633195825,-1.7373281475948075,7.248569880249044,6.9070051752245885,-18.13948337400722,10.329757743057169
7.405980881843634,-1.9187229813348796,7.31763993200129,7.01030275265516,-13.826428452323784,5.673394874798037
7.386793652030286,-2.0569872658581176,7.387742959527841,7.06703670140314,-8.694197328774665,-0.0638245106092402
7.366223779371705,-2.1439292391458644,7.458413326541873,7.066398456297048,-3.2636634338710127,-6.21656032363621
7.344784486980246,-2.1765658734845745,7.529077311104843,7.004232853060685,1.7997226751332287,-11.924665029323432
7.3230188282454005,-2.1585686467332423,7.59911963963545,6.884986202767451,5.926788769489985,-16.455943604423368
7.301433141778068,-2.0993007590383423,7.667969501663125,6.720426766723218,8.833881013099857,-19.45745088312604
7.2804401341876845,-2.010961948907344,7.735173769330356,6.525852257891958,10.544847665519491,-20.980379900690096
7.2603305146986115,-1.905513472252149,7.800432291909276,6.316048458885057,11.279007834912633,-21.326600416603963
7.24127537997609,-1.7927233939030227,7.863592776498127,6.1027824547190175,11.315318874028229,-20.86700155104847
7.223348146037059,-1.6795702051627404,7.924620601045317,5.8941124392085325,10.904382950386529,-19.926800210485396
7.206552443985432,-1.570526375658875,7.983561725437402,5.694844437103678,10.235605984905943,-18.745390146455332
7.190847180228843,-1.4681703158098156,8.040510169808439,5.507390535639125,9.43773616853079,-17.48006801113576
7.176165477070745,-1.3737929541245077,8.09558407516483,5.332589855527767,8.592004979165607,-16.225429907235306
7.1624275475295,-1.2878729043328516,8.148909973720107,5.170335556455414,7.746550837061511,-15.033510414158059
7.1495488184861715,-1.2104073959622366,8.20061332928466,5.020000452313833,6.928012501883734,-13.929523450004261
7.137444744526549,-1.1411272709433993,8.250813333807798,4.880705217813791,6.149698844946041,-12.922704545695177
7.126033471817115,-1.0796302824939388,8.299620385985936,4.751478172356839,5.416956993715721,-12.013271759326795
7.115237168992175,-1.0254607125567816,8.347135167709505,4.63134545476357,4.730555133065048,-11.196697411749401
7.104982561866607,-0.9781551612261311,8.393448622257141,4.519378480646076,4.088755143888659,-10.46624101155415
7.095201010254346,-0.9372676097872445,8.438642407063602,4.414716070530535,3.488554280659915,-9.814402447272922
7.085828334156473,-0.9023820669806454,8.482789567768908,4.316572046057805,2.926412317770234,-9.233722339253788
7.076804513486667,-0.873117943802943,8.525955288229486,4.2242348226652675,2.3986652364731817,-8.717195757868781
7.068073334048637,-0.8491312914382112,8.568197636456139,4.1370628650865795,1.9017504914982806,-8.258461529675262
7.059582021134255,-0.8301137865232284,8.609568265107004,4.054478249789827,1.4323206405026927,-7.851864436565659
7.051280883269023,-0.8157905801182015,8.650113047604902,3.97595960542417,0.9872921191553033,-7.492447903614894
7.04312297746784,-0.8059176589266485,8.689872643659145,3.901035126388021,0.5638575083771812,-7.175910772100962
7.035063800878574,-0.8002790838428766,8.728882994923024,3.8292760186670116,0.15947838816081927,-6.898547359511307
7.027061010040145,-0.7986842999612684,8.767175755109694,3.7602905450718986,-0.22813096079611606,-6.657181421009548
7.019074167040532,-0.8009656095692296,8.804778660560412,3.693718730861803,-0.6010228737718035,-6.44909952692886
7.01106451094484,-0.8069758383069476,8.84171584786903,3.6292277355925147,-0.9610349760012848,-6.271986354579406
7.002994752561771,-0.8165861880669605,8.878008125224955,3.5665078720467207,-1.3098060141187788,-6.123862615027344
6.994828890681101,-0.8296842482081482,8.913673203945422,3.5052692458964474,-1.6487874879956574,-6.003025289914143
6.98653204819902,-0.8461721230881049,8.948725896404387,3.445238992997306,-1.9792501920931191,-5.907989237961794
6.9780703269681394,-0.865964625009036,8.98317828633436,3.386159100617688,-2.302285015589102,-5.83742886830687
6.969410680718049,-0.888987475164927,9.017039877340537,3.3277848119346194,-2.6187974609295503,-5.79011836810711
6.960520805966399,-0.9151754497742226,9.050317725459882,3.2698836282535484,-2.9294953861540853,-5.764868864234705
6.951369051468657,-0.9444704036357635,9.083016561742417,3.2122349396112013,-3.2348695057686006,-5.7604608762010425
6.941924347432299,-0.9768190986934495,9.115138911138528,3.1546303308491908,-3.535166239335573,-5.77557048775387
6.932156156445364,-1.0121707610868051,9.14668521444702,3.096874625971652,-3.8303526167144177,-5.808687856705227
6.922034448834496,-1.0504742872539494,9.177653960706737,3.0387877474045997,-4.120073177562259,-5.85802704409704
6.911529705961956,-1.091675019029572,9.208041838180783,2.980207476963629,-4.403599189054034,-5.921426739480832
6.900612955771661,-1.1357110109201125,9.237843912950419,2.9209932095688207,-4.679771103465849,-5.996242367645235
6.8892558456624595,-1.182508721954771,9.267053845046107,2.8610307858923685,-4.946936041442134,-6.079231370039266
6.8774307584429115,-1.2319780823691924,9.29566415290503,2.800238472191976,-5.202883266308567,-6.166435243450621
6.86511097761922,-1.2840069150322782,9.323666537626949,2.7385741197574696,-5.4447821387502895,-6.253064246319929
6.852270908468897,-1.338454736419781,9.351052278824524,2.6760434772942703,-5.66912889829241,-6.333393550472778
6.8388863611046995,-1.395146025402705,9.377812713597466,2.6127095417895423,-5.871710729131027,-6.400682925482599
6.824934900850672,-1.4538631326940152,9.40393980901536,2.548702712534716,-6.04759775318694,-6.447135546526733
6.810396269523732,-1.5143391102258847,9.429426836140708,2.484231357069449,-6.191175540295349,-6.463914763586849
6.795252878421473,-1.5762508656288383,9.454269149711402,2.4195922094335804,-6.2962319682862065,-6.4412399680799535
6.779490369765185,-1.6392131853117005,9.478465071805738,2.355179809752781,-6.356112192047292,-6.368583110495166
6.763098237912068,-1.7027743072321733,9.502016869903265,2.2914939786478294,-6.363953386660769,-6.234984859861113
