th1 (rad),w1 (rad/s),th2 (rad),w2 (rad/s),a1 (rad/s^2),a2 (rad/s^2)
2.6969991664572666,-1.2335249754288449,0.19369187857728404,1.571082275021914,-7.887298165432112,-7.314180282018933
2.684663916702978,-1.312397957083166,0.2094027013275032,1.4979404722017247,-7.813616776177959,-7.114803840637952
2.671539937132146,-1.3905341248449457,0.22438210604952044,1.426792433795345,-7.736570622312454,-6.888039830115376
2.657634595883697,-1.4678998310680702,0.2386500303874739,1.3579120354941914,-7.658313143112205,-6.635990999189912
2.642955597573016,-1.5444829624991923,0.2522291507424158,1.2915521255022924,-7.580768425301352,-6.360493926407533
2.6275107679480243,-1.6202906467522058,0.26514467199743874,1.227947186238217,-7.505639883152883,-6.063116422480889
2.611307861480502,-1.6953470455837347,0.2774241438598209,1.167316022013408,-7.434425278710947,-5.745162248283141
2.5943543910246647,-1.7696912983708442,0.289097304079955,1.1098643995305766,-7.368436445367124,-5.407681090972075
2.576657478040956,-1.8433756628245155,0.30019594807526073,1.0557875886208559,-7.308822349187783,-5.051481980091229
2.558223721412711,-1.9164638863163934,0.3107538239614693,1.0052727688199437,-7.2565943992781285,-4.677148576937324
2.5390590825495467,-1.9890298303091747,0.3208065516496687,0.9585012830505704,-7.212653183171918,-4.285055010673069
2.519168784246455,-2.0611563621408937,0.3303915644801744,0.9156507329438397,-7.177816045260379,-3.875381148332396
2.498557220625046,-2.1329345225934975,0.33954807180961283,0.8768969214605158,-7.152845140948358,-3.4481263641004554
2.477227875399111,-2.204462974002981,0.348317041024218,0.8424156578195112,-7.13847578618774,-3.0031210117840685
2.4551832456590814,-2.2758477318648582,0.35674119760241313,0.8123844477016705,-7.1354450839433765,-2.540034902063226
2.4324247683404328,-2.347202182704292,0.3648650420794298,0.7869840986810382,-7.144520950653542,-2.058382143608913
2.40895274651339,-2.4186473922108274,0.3727348830662402,0.7664002772449491,-7.166531792777275,-1.5575217259730063
2.3847662725912815,-2.4903127101386002,0.3803988858386897,0.750825059985219,-7.202397202764355,-1.0366532038757197
2.3598631454898955,-2.5623366821662437,0.3879071364385419,0.7404585279464618,-7.253160162399256,-0.49480678823449903
2.334239778668233,-2.634868283790236,0.39531172171800655,0.7355104600641168,-7.320021366926536,0.0691729407361674
2.307891095830331,-2.7080684974595015,0.4026668263186477,0.7362021894714784,-7.404376423355938,0.6566506095000202
2.280810410855736,-2.7821122616930607,0.4100288482133625,0.7427686955664786,-7.507856838703574,1.2692319920094088
2.252989288238805,-2.8571908300800963,0.41745653516902725,0.7554610154865727,-7.632375906419301,1.9088055961143875
2.224417379938004,-2.9335145891442895,0.425011145323893,0.7745490714477166,-7.7801808290929,2.5775954236404575
2.195082234046561,-3.0113163974352184,0.43275663603837017,0.8003250256841211,-7.9539126883010365,3.2782267215236054
2.1649690700722086,-3.0908555243182287,0.4407598862952114,0.8331072928993571,-8.156676189906186,4.01380686665584
2.1340605148290264,-3.1724222862172904,0.44909095922420494,0.8732453615659156,-8.392121468932167,4.788023869816212
2.1023362919668536,-3.256343500906612,0.4578234128398641,0.9211256002640777,-8.664540609944336,5.605265301153061
2.0697728569577873,-3.342988907006055,0.4670346688425049,0.9771782532756084,-8.978981873403482,6.470760641310161
2.0363429678877267,-3.43277872574009,0.47680645137526095,1.04188585968871,-9.341384804356897,7.390749971726672
2.002015180630326,-3.5261925737836592,0.4872253099721481,1.1157933594059766,-9.758739217607749,8.372681198479391
1.9667532548924893,-3.623779965959737,0.49838324356620783,1.1995201713907704,-10.23927008409186,9.42543602797839
1.930515455232892,-3.7261726668006556,0.5103784452801156,1.2937745316705542,-10.792647800057248,10.559580518855132
1.8932537285648854,-3.834099144801228,0.5233161905968211,1.3993703368591055,-11.43021774135209,11.787627088706325
1.8549127371168732,-3.948401322214749,0.5373098939654122,1.5172466077461688,-12.16523168384811,13.12427744455763
1.8154287238947258,-4.0700536390532305,0.5524823600428739,1.648489382191745,-13.013041615211286,14.586582865349293
1.7747281875041934,-4.2001840552053435,0.5689672538647913,1.7943552108452379,-13.991174485250976,16.19389648317742
1.73272634695214,-4.340095800057854,0.5869108059732436,1.956294175677012,-15.11912771455119,17.96737779585398
1.6893253889515614,-4.491287077203365,0.6064737477300137,2.135967953635552,-16.41757929617837,19.928599471384608
1.6444125181795277,-4.655462870165149,0.6278334272663693,2.335253948349398,-17.906438932493547,22.0964243449159
1.5978578894778763,-4.834527259490084,0.6511859667498633,2.556218191798557,-19.60068582763108,24.48063739170684
1.5495126168829754,-5.030534117766395,0.6767481486678488,2.8010245657156254,-21.502102175562484,27.06963512582214
1.4992072757053114,-5.24555513952202,0.7047583943250051,3.0717209169738466,-23.58364706610544,29.80755708468353
1.4467517243100911,-5.481391610183074,0.7354756034947436,3.369796487820682,-25.761289012570693,32.553556858226145
1.3919378082082603,-5.7390045003087815,0.7691735683729505,3.6953320564029437,-27.84638136172403,35.01354956794759
1.3345477632051725,-6.017468313926022,0.8061268889369799,4.045467552082419,-29.473599469187064,36.637703090010476
1.2743730800659123,-6.3122043086178925,0.8465815644578041,4.411844582982524,-30.015483016340674,36.49996183623595
1.2112510369797334,-6.612359138781299,0.8907000102876294,4.7768442013448835,-28.545926405460364,33.24898676110868
1.1451274455919203,-6.897818402835902,0.9384684523010782,5.10933406895597,-24.014661542329975,25.36144119743593
1.0761492615635613,-7.1379650182592025,0.989561792990638,5.36294848093033,-15.8490408873544,12.005135352708598
1.0047696113809692,-7.296455427132747,1.0431912777999413,5.482999834457416,-4.876569227359884,-5.639379448308514
0.9318050571096417,-7.345221119406346,1.0980212761445154,5.42660603997433,6.37314980323292,-23.93683994911547
0.8583528459155783,-7.281489621374017,1.1522873365442587,5.1872376404831755,14.978131057447184,-38.650951174691066
0.7855379497018381,-7.131708310799545,1.2041597129490904,4.800728128736265,19.528948419835668,-47.666486165214934
0.7142208665938427,-6.936418826601188,1.252166994236453,4.3240632670841155,20.51780932355932,-51.57893612626914
0.6448566783278308,-6.731240733365595,1.2954076269072943,3.808273905821424,19.27337556538709,-52.20814902816111
0.5775442709941748,-6.538506977711724,1.3334903659655084,3.286192415539813,16.98446799010542,-51.21059585028644
0.5121592012170576,-6.36866229781067,1.3663522901209066,2.7740864570369483,14.400751805134679,-49.638513810982566
0.4484725782389509,-6.224654779759323,1.394093154691276,2.2777013189271225,11.91035479717521,-48.03567108931719
0.38622603044135767,-6.105551231787571,1.4168701678805473,1.7973446080339506,9.685172836014353,-46.63542979063144
0.32517051812348197,-6.008699503427427,1.4348436139608869,1.3309903101276361,7.786902285589405,-45.507863827922016
0.2650835230892077,-5.930830480571533,1.4481535170621633,0.8759116718484159,6.227354880579979,-44.64462335144413
0.20577521828349235,-5.868556931765733,1.4569126337806475,0.42946543833397455,4.9989207409058105,-44.00271642644781
0.147089648965835,-5.818567724356675,1.4612072881639873,-0.010561725930503585,4.088699709903568,-43.52577259061127
0.08890397172226827,-5.777680727257639,1.4611016709046822,-0.44581945183661625,3.484361169750446,-43.15399407357288
0.03112716444969188,-5.7428371155601345,1.456643476386316,-0.8773593925723451,3.175976467063799,-42.82874793771289
-0.026301206705909463,-5.7110773508894965,1.4478698824605927,-1.305646871949474,3.1559441054498456,-42.4947817246463
-0.08341198021480442,-5.679517909834998,1.434813413741098,-1.7305946891959372,3.418047870798314,-42.10149879067294
-0.14020715931315442,-5.645337431127015,1.4175074668491385,-2.1516096771026665,3.956164267658483,-41.60394732572387
-0.19666053362442457,-5.60577578845043,1.395991370078112,-2.5676491503599053,4.762890137227237,-40.963782492131074
-0.2527182915089289,-5.558146887078157,1.370314878574513,-2.977286975281216,5.828249631158385,-40.15026079590466
-0.30829976037971046,-5.499864390766573,1.3405420088217008,-3.3787895832402626,7.138589248024492,-39.141225093489965
-0.3632984042873762,-5.428478498286329,1.3067541129892981,-3.7702018341751624,8.675744524649765,-37.92399219406752
-0.41758318927023946,-5.341721053039831,1.2690520946475465,-4.149441756115838,10.416544966665315,-36.496040777034544
-0.4710003998006378,-5.237555603373178,1.227557677086388,-4.514402163886183,12.332707214349705,-34.86540364419648
-0.5233759558343696,-5.1142285312296805,1.1824136554475262,-4.863056200328148,14.391147420450316,-33.05068799797344
-0.5745182411466664,-4.970317057025177,1.1337830934442448,-5.193563080307882,16.55472173019408,-31.080675516015738
-0.6242214117169181,-4.804769839723236,1.081847462641166,-5.504369835468039,18.78337875565272,-28.993487091371207
-0.6722691101141505,-4.616936052166709,1.0268037642864856,-5.794304706381752,21.03568045905499,-26.835333207928723
-0.7184384706358176,-4.406579247576159,0.9688607172226681,-6.062658038461039,23.270618832289518,-24.65890887241899
-0.7625042631115792,-4.173873059253264,0.9082341368380576,-6.309247127185229,25.449627237951162,-22.521530571537554
-0.8042429937041118,-3.9193767868737526,0.8451416655662054,-6.534462432900604,27.53866094119833,-20.483149398772152
-0.8434367615728493,-3.6439901774617693,0.7797970412371994,-6.739293926888325,29.510206320739123,-18.60440499018139
-0.879876663347467,-3.348888114254378,0.7124041019683162,-6.925337976790139,31.3450778333625,-16.9449034172382
-0.9133655444900107,-3.035437335920753,0.6431507222004148,-7.094787010962522,33.0338795156486,-15.56190274949901
-0.9437199178492183,-2.7050985407642667,0.5722028520907896,-7.250406038457512,34.57804299442035,-14.509568180557654
-0.970770903256861,-2.3593181108200634,0.49969879170621445,-7.395501720263089,35.990400022292114,-13.83891228633777
-0.9943640843650616,-1.9994141105971424,0.4257437745035836,-7.533890843126466,37.295290747901134,-13.598463842577129
-1.014358225471033,-1.6264612031181311,0.3504048660723189,-7.669875481552237,38.52822730791144,-13.83560484148909
-1.0306228375022144,-1.2411789300390166,0.27370611125679656,-7.808231529967128,39.735092086542565,-14.598358437173875
-1.0430346268026045,-0.8438280091735909,0.19562379595712526,-7.954215114338867,40.97069495107266,-15.93714243046485
-1.0514729068943405,-0.4341210596628643,0.11608164481373659,-8.113586538643515,42.296139953725024,-17.905489149453743
-1.0558141174909692,-0.011159660125614035,0.03494577942730144,-8.292641430138053,43.773653700972254,-20.5576855671154
-1.0559257140922254,0.4265768768841085,-0.047980634874079095,-8.498218285809207,45.455894854237854,-23.939122143130575
-1.0516599453233844,0.881135825426487,-0.13296281773217117,-8.737609507240514,47.363519968628744,-28.060738640932794
-1.0428485870691195,1.3547710251127745,-0.2203389128045763,-9.018216893649841,49.43865650277851,-32.840472096893855
-1.0293008768179919,1.8491575901405595,-0.31052108174107473,-9.34662161461878,51.45174760883231,-37.98020046298974
-1.0108093009165864,2.3636750662288826,-0.4039872978872625,-9.726423619248678,52.828030294661204,-42.73010663261563
-0.9871725502542975,2.891955369175495,-0.5012515340797493,-10.153724685574835,52.37175176919458,-45.5062419117833
-0.9582529965625426,3.4156728868674406,-0.6027887809354977,-10.608787104692668,47.990620246534704,-43.49480939540751
-0.9240962676938682,3.8955790893327875,-0.7088766519824243,-11.043735198646743,36.93819915353363,-32.94731641154091
-0.8851404768005403,4.264961080868124,-0.8193140039688918,-11.373208362762153,17.651387688374843,-11.649029585496887
-0.8424908659918591,4.441474957751873,-0.9330460875965133,-11.489698658617122,-6.872433163603807,16.501875114183875
-0.7980761164143404,4.372750626115835,-1.0479430741826845,-11.324679907475284,-28.730352137068653,41.05697354212059
-0.754348610153182,4.085447104745148,-1.1611898732574373,-10.914110172054079,-41.53169719969248,53.735761590894796
-0.7134941391057306,3.670130132748223,-1.270330974977978,-10.376752556145131,-45.391521471603504,55.01408919433162
-0.6767928377782484,3.216214918032188,-1.3740985005394295,-9.826611664201815,-44.034056937119,50.00891495829346
-0.6446306885979265,2.775874348660998,-1.4723646171814477,-9.32652251461888,-40.663257637310146,42.93745242360601
-0.6168719451113165,2.3692417722878965,-1.5656298423276365,-8.89714799038282,-36.95478736186685,35.89505601654512
-0.5931795273884375,1.999693898669228,-1.6546013222314646,-8.538197430217368,-33.567983217968255,29.62553444206095
-0.5731825884017452,1.6640140664895455,-1.7399832965336384,-8.241942085796758,-30.685868766186008,24.268586860095816
-0.5565424477368497,1.3571553788276853,-1.822402717391606,-7.9992562171958,-28.305428519907835,19.746533425679985
-0.5429708939485728,1.0741010936286068,-1.902395279563564,-7.801790882939,-26.363724616251762,15.925291090944048
-0.5322298830122867,0.8104638474660892,-1.9804131883929539,-7.642537972029559,-24.786850551339263,12.672781562046824
-0.5241252445376258,0.5625953419526966,-2.0568385681132493,-7.515810156409091,-23.506769591545517,9.876323990459555
-0.5184992911180988,0.3275276460372414,-2.1319966696773403,-7.417046916504495,-22.46565567697263,7.44500652365633
-0.5152240146577264,0.10287108926751506,-2.2061671388423854,-7.342596851267932,-21.61572440281454,5.3072363081563685
-0.5141953037650512,-0.11328615476063034,-2.2795931073550646,-7.289524488186369,-20.917680323477533,3.4072507241579437
-0.5153281653126575,-0.3224629579954057,-2.352488352236928,-7.255451980944789,-20.338945102722647,1.701871965585779
-0.5185527948926115,-0.5258524090226322,-2.425042872046376,-7.2384332612889315,-19.852056529184704,0.15784778983769504
-0.5238113189828378,-0.7243729743144792,-2.497427204659265,-7.236854783390554,-19.433332201544157,-1.2502092427595821
-0.5310550487259826,-0.9187062963299208,-2.5697957524931705,-7.24935687581815,-19.061786115085333,-2.5413703679251634
-0.5402421116892818,-1.1093241574807742,-2.642289321251352,-7.274770579497401,-18.71825531016649,-3.7295277801863334
-0.5513353532640896,-1.296506710582439,-2.715037027046326,-7.312065857299265,-18.38469049342354,-4.824208241160468
-0.5643004203699139,-1.4803536155166745,-2.7881576856193186,-7.36030793971087,-18.043570672798314,-5.831132310028451
-0.5791039565250806,-1.6607893222446577,-2.8617607650164274,-7.418619262811154,-17.67741046344149,-6.752571362888653
-0.5957118497475272,-1.8375634268790726,-2.9359469576445387,-7.48614497644004,-17.268337687154453,-7.587541677686609
-0.614087484016318,-2.010246803750617,-3.010808407408939,-7.5620203932169066,-16.797728063748092,-8.331866857085101
-0.6341899520538241,-2.178224084388098,-3.086428611341108,-7.645339061787758,-16.24589391450974,-8.978137223966876
-0.6559721928977051,-2.3406830235331952,-3.1628820019589856,-7.735120434027427,-15.591835999257354,-9.515598250603334
-0.6793790231330371,-2.4966013835257685,-3.24023320629926,-7.83027641653346,-14.813083134480113,-9.930010563298127
-0.7043450369682948,-2.6447322148705696,-3.3185359704645943,-7.929576522166441,-13.885664112423816,-10.203542647531755
-0.7307923591170005,-2.783588855994808,-3.3978317356862586,-8.031611948641759,-12.784280901812386,-10.314784573737727
-0.7586282476769486,-2.9114316650129317,-3.478147855172676,-8.134759794379136,-11.482779714701516,-10.239005768099446
-0.7877425643270779,-3.026259462159947,-3.5594954531164675,-8.23714985206013,-9.955042824807268,-9.948817714399702
-0.8180051589486774,-3.1258098904080196,-3.641866951637069,-8.336638029204126,-8.17644000981561,-9.415433805432365
-0.8492632578527576,-3.2075742905061757,-3.72523333192911,-8.43079236725845,-6.1259693450163715,-8.6107263982841
-0.8813390007578193,-3.2688339839563394,-3.8095412556016948,-8.51689963124129,-3.7891624872732224,-7.51024080774193
-0.9140273405973828,-3.3067256088290717,-3.8947102519141077,-8.59200203931871,-1.1617075968389043,-6.0972086371830665
-0.9470945966856735,-3.318342684797461,-3.9806302723072946,-8.652974125690541,1.7464604343413355,-4.367385651037248
-0.9802780235336481,-3.3008780804540474,-4.0671600135642,-8.696647982200913,4.907128103558655,-2.334223817393275
-1.0132868043381886,-3.251806799418461,-4.154126493386209,-8.719990220374847,8.270650854008943,-0.033521848617164576
-1.0458048723323732,-3.1691002908783714,-4.241326395589957,-8.720325438861018,11.764712937151314,2.4736053046007087
-1.077495875241157,-3.051453161506858,-4.3285296499785675,-8.69558938581501,15.296020213390172,5.100678354387987
-1.1080104068562255,-2.8984929593729563,-4.415485543836717,-8.64458260227113,18.755586938259565,7.7396692362937864
-1.1369953364499552,-2.7109370899903604,-4.501931369859428,-8.567185909908194,22.02754778579567,10.268890012663777
-1.1641047073498587,-2.4906616121324037,-4.5876032289585105,-8.464497009781557,25.000474536505273,12.56412939441332
-1.1890113234711828,-2.2406568667673508,-4.672248199056326,-8.338855715837424,27.579316998821948,14.511199960140917
-1.2114178921388563,-1.9648636967791313,-4.7556367562147,-8.193743716236014,29.69568281282827,16.01747794331944
-1.2310665291066476,-1.6679068686508485,-4.83757419337706,-8.03356893680282,31.31444575036043,17.02014754645742
-1.2477455977931562,-1.3547624111472443,-4.9179098827450884,-7.863367461338245,32.43557089510305,17.489692011060846
-1.2612932219046287,-1.0304067021962138,-4.996543557358471,-7.688470541227637,33.0912387006534,17.428389291117114
-1.2715972889265907,-0.6994943151896797,-5.073428262770748,-7.514186648316466,33.339402294319314,16.864715093340436
-1.2785922320784875,-0.3661002922464866,-5.148570129253913,-7.3455394973830614,33.25549578986882,15.845261415349347
-1.2822532350009523,-0.03354533434779844,-5.222025524227743,-7.187086883229568,32.924036198281236,14.425912484841103
-1.2825886883444304,0.29569502763501393,-5.293896393060039,-7.042827758381157,32.43146111613996,12.663687295355581
-1.2796317380680802,0.6200096387964136,-5.3643246706438505,-6.916190885427601,31.860958819475595,10.61009016932927
-1.2734316416801161,0.9386192269911695,-5.433486579498126,-6.810089983734308,31.289497071197008,8.306235176431848
-1.2640454494102045,1.2515141977031397,-5.501587479335469,-6.72702763196999,30.786870755421365,5.779569784833565
-1.2515303074331732,1.5593829052573533,-5.568857755655169,-6.669231934121654,30.41639735157393,3.041762919530776
-1.2359364783805997,1.8635468787730927,-5.635550074996385,-6.638814304926346,30.236858741818853,0.08721919966690095
-1.2173010095928687,2.165915466191281,-5.701938218045649,-6.637942112929677,30.305356772488636,-3.108316352356276
-1.195641854930956,2.4689690339161676,-5.768317639174946,-6.669025276453239,30.680855734277053,-6.589534533661977
-1.1709521645917944,2.775777591258938,-5.835007891939479,-6.734920621789859,31.428267800772705,-10.424076144534693
-1.143194388679205,3.090060269266665,-5.902357098157378,-6.839161383235206,32.62292168588533,-14.705925570572985
-1.1122937859865385,3.4162894861255184,-5.97074871198973,-6.986220638940936,34.35499441053126,-19.559328987439887
-1.0781308911252834,3.759839430230831,-6.040610918379139,-7.181813928815335,36.732636605442295,-25.14163185045389
-1.040532496822975,4.1271657962852535,-6.112429057667292,-7.433230247319874,39.88023220915458,-31.640237546126183
-0.9992608388601225,4.525968118376799,-6.1867613601404905,-7.749632622781136,43.92241032426544,-39.250826214068695
-0.9540011576763545,4.9651922216194535,-6.2642576863683015,-8.142140884921822,48.93008868739338,-48.10405399661493
-0.90434923546016,5.454493108493387,-6.34567909521752,-8.623181424887973,54.7712246263844,-58.06103193380801
-0.8498043043752261,6.002205354757231,-6.431910909466399,-9.203791744226052,60.739530053217585,-68.20037356809385
-0.7897822508276539,6.609600655289406,-6.52394882690866,-9.88579547990699,64.74274913229776,-75.68919380230247
