th1 (rad),w1 (rad/s),th2 (rad),w2 (rad/s)
0.15485767357431696,1.2426957586167935,4.484760458460999,-2.742663368829149
0.1672846311604849,1.2109672314734246,4.457333824772707,-2.6447063121398475
0.17939430347521915,1.1825385512662507,4.430886761651308,-2.54815357963773
0.19121968898788166,1.1571872015953775,4.405405225854931,-2.452761177734954
0.20279156100383544,1.134701122240534,4.380877614077582,-2.3583246040346486
0.21413857222624078,1.1148758497918814,4.357294368037235,-2.264675468950408
0.2252873307241596,1.0975121866025368,4.334647613347731,-2.171678580122265
0.23626245259018497,1.082414346591479,4.312930827546508,-2.0792293636132744
0.24708659605609976,1.0693885362298283,4.292138533910376,-1.9872515164403552
0.25778048141839804,1.0582419357638226,4.272266018745972,-1.895694803197486
0.26836290077603625,1.048782049780672,4.253309070713997,-1.8045329260730159
0.27885072127384297,1.0408163980269858,4.235263741453267,-1.7137614129580134
0.2892588852541128,1.0341525173684616,4.2181261273236865,-1.6233954829108597
0.29960041042779745,1.028598244370336,4.201892172494578,-1.533467862127222
0.3098863928715008,1.0239622456287016,4.1865574938733054,-1.4440265367473983
0.32012601532778784,1.020054760146393,4.172117228505831,-1.3551324411663783
0.3303265629292518,1.0166885151690372,4.158565904094168,-1.266857091750528
0.3404934480809422,1.0136797743957917,4.145897333176663,-1.1792801857069592
0.3506302458249001,1.0108494757254123,4.134104531319593,-1.0924871929833788
0.3607387405821542,1.0080244149907784,4.12317965938976,-1.0065669752150006
0.370818984732062,1.0050384326823805,4.11311398963761,-0.9216094696697591
0.3808693690588858,1.0017335625676145,4.103897894940912,-0.837703477765506
0.39088670468456194,0.9979611043718152,4.095520860163258,-0.754934597058627
0.4008663157282801,0.9935825871859014,4.087971514192671,-0.673383332778506
0.4108021416001391,0.9884705957976215,4.081237680864886,-0.5931234202757254
0.4206868475581153,0.9825094384291517,4.075306446662129,-0.5142203835362632
0.43051194194240683,0.9755956410774776,4.070164242826766,-0.43673034763487595
0.4402678983531816,0.9676382604529311,4.065796939350417,-0.36069911514085606
0.4499442809577109,0.9585590140646265,4.062189948199008,-0.28616150852998257
0.45952987109835713,0.948292232015498,4.059328333113708,-0.21314097304289092
0.4690127934185121,0.9367846403067471,4.057196923383279,-0.14164942754191934
0.4783806398215796,0.9239949897429696,4.05578042910786,-0.07168734504926312
0.4876205897190093,0.9098935477796213,4.055063555657367,-0.0032440399955510485
0.4967195251968055,0.8944614728396288,4.055031115257411,0.06370186413201404
0.5056641399252018,0.8776900917849896,4.055668133898731,0.1291818150721823
0.5144410408430516,0.8595801014528973,4.056959952049453,0.19323658910321662
0.5230368418575806,0.8401407145825649,4.058892317940485,0.2559154541411414
0.5314382490034062,0.8193887692199935,4.061451472481896,0.3172752660874163
0.5396321366956062,0.7973478189546305,4.06462422514277,0.37737952385805396
0.5476056148851525,0.774047219273489,4.068398020381351,0.43629740595532995
0.5553460870778874,0.7495212230633391,4.0727609944409044,0.49410280853343097
0.5628412993085208,0.7238080959812928,4.077702022526239,0.5508734018432179
0.5700793802683337,0.6969492601588309,4.083210756544672,0.6066897188777802
0.577048872869922,0.6689884725919665,4.08927765373345,0.6616342871114456
0.5837387575958417,0.6399710426665104,4.095893996604564,0.7157908115338135
0.5901384680225068,0.6099430916173417,4.103051904719902,0.7692434148031306
0.5962378989386802,0.5789508553508205,4.110744338867933,0.8220759383304166
0.6020274074921884,0.5470400309808443,4.118965098251238,0.8743713064852681
0.6074978078019968,0.5142551666391938,4.12770881131609,0.9262109548948919
0.6126403594683888,0.48063909360653095,4.136970920865039,0.977674322982083
0.6174467504044541,0.44623239954962457,4.14674766409486,1.0288384104342905
0.6219090743999504,0.4110729416135991,4.1570360481992035,1.079777397181874
0.6260198038160864,0.3751953982694126,4.167833822171022,1.1305623266465372
0.6297717577987805,0.338630859114914,4.179139445437487,1.1812608524495212
0.6331580663899297,0.30140645222609624,4.190952053961983,1.2319370493845918
0.6361721309121906,0.2635450091022573,4.203271424455829,1.2826512901975502
0.6388075810032132,0.22506476768932143,4.216097937357804,1.3334601905008088
0.6410582286801064,0.18597911434113282,4.229432539262812,1.3844166249134626
0.6429180198235177,0.14629636582916322,4.2432767055119465,1.4355698181777654
0.6443809834818094,0.10601959257762067,4.257632403693724,1.4869655154874863
0.6454411794075856,0.06514648412804827,4.272502058848599,1.5386462365041134
0.6460926442488661,0.02366925737733793,4.28788852121364,1.590651617476951
0.6463293368226395,-0.018425392650408157,4.30379503738841,1.6430188454843657
0.6461450828961354,-0.06115630086450624,4.320225225843253,1.6957831880615657
0.6455335198874903,-0.10454780183706242,4.337183057723869,1.748978620391279
0.6444880418691197,-0.14862966582719578,4.354672843927782,1.8026385508582976
0.6430017452108477,-0.1934370077884778,4.372699229436365,1.8567966441951784
0.641067375132963,-0.2390101783117269,4.391267195878316,1.9114877397995302
0.6386772733498457,-0.28539464783017665,4.4103820732763115,1.966748861241531
0.635823326871544,-0.3326408977968152,4.430049561888727,2.022620311687471
0.6324969178935759,-0.3808043348278998,4.4502757650056015,2.0791468491400282
0.6286888745452969,-0.4299452458942285,4.471067233497002,2.1363789352392337
0.6243894220863546,-0.48012881445592287,4.492431022849394,2.194374052068113
0.6195881339417953,-0.5314252189344882,4.514374763370076,2.253198083127245
0.6142738817524505,-0.5839098361003123,4.536906744201348,2.312926757511448
0.6084347833914473,-0.6376635728809074,4.560036011776463,2.373647160428559
0.6020581476626382,-0.6927733508801676,4.5837724833807485,2.435459318595808
0.5951304141538365,-0.749332768716426,4.608127076566706,2.498477875756078
0.5876370864666722,-0.807442968368766,4.633111855324267,2.562833881584173
0.5795626567829846,-0.867213733349941,4.658740194140108,2.6286767266223863
0.5708905194494852,-0.9287648490281815,4.685026961406332,2.6961762666532474
0.5616028709592034,-0.9922277591653085,4.711988724072865,2.765525192211884
0.5516805933675503,-1.0577475581250368,4.7396439759949835,2.8369417129868837
0.5411031177862999,-1.1254853656653494,4.7680133931248525,2.910672643011438
0.5298482641296465,-1.1956211412272004,4.797120119554967,2.9869969913133767
0.5178920527173745,-1.268357007666103,4.826990089468101,3.066230184749295
0.5052084826407135,-1.3439211709672776,4.857652391315594,3.1487290759373163
0.4917692709310407,-1.4225725431639928,4.889139682074967,3.234897920503616
0.4775435454994008,-1.5046062009014425,4.921488661280003,3.3251955452932878
0.4624974834903864,-1.5903598420959972,4.954740616732936,3.4201439736333814
0.44659388506942643,-1.6802214376399103,4.98894205646927,3.5203388254687993
0.4297916706930273,-1.7746383126451333,5.024145444723958,3.6264618681167033
0.412045287566576,-1.8741279284952206,5.060410063405125,3.739296153402716
0.39330400828162376,-1.9792906645132522,5.097803024939152,3.859744228890567
0.37351110163649126,-2.0908248988887665,5.136400467228057,3.988849932721535
0.3526028526476036,-2.209544627961044,5.176288966555273,4.12782422811293
0.33050740636799314,-2.336399673605464,5.217567208836402,4.278075315417284
0.3071434096319385,-2.472498080677049,5.260347961990575,4.4412427026350665
0.282418428825168,-2.6191293524509196,5.304760389016925,4.619233683183735
0.25622713530065877,-2.7777852399310077,5.350952725848763,4.814258117270071
0.2284492829013487,-2.9501709962514973,5.399095307021463,5.028852308991921
0.19894757293883372,-3.1381926491922103,5.449383830111382,5.265872787959941
0.16756564644691163,-3.3438918344944697,5.502042557990982,5.528421628666622
0.13412672810196694,-3.56927359121598,5.557326774277648,5.8196289040086
0.09843399218980714,-3.8159254213438936,5.615523063317734,6.142152529708793
0.0602747379763682,-4.084246782458166,5.6769445886148215,6.49714528068398
0.019432270151786543,-4.371994920860493,5.7419160414216615,6.882279315573186
-0.024287679056818383,-4.67175830481078,5.810738834577394,7.2882819023311285
-0.07100526210492619,-4.967132781439114,5.883621653600705,7.693654216814626
-0.12067658991931733,-5.228457354977047,5.960558195768851,8.058736402814246
-0.1729611634690878,-5.41190336587979,6.041145559796993,8.32435832939973
-0.22708019712788569,-5.469328932903751,6.1243891430909905,8.425352043256044
-0.2817734864569232,-5.372317389309276,6.208642663523551,8.323652969383598
-0.33549666035001596,-5.1343695510205425,6.291879193217387,8.038711210846168
-0.38684035586022136,-4.804775358471249,6.372266305325849,7.638642367302868
-0.43488810944493383,-4.438600030788406,6.448652728998877,7.198671698635995
-0.4792741097528179,-4.074360750058393,6.520639445985237,6.770684297828075
-0.5200177172534018,-3.7312836224176107,6.588346288963518,6.379914069467688
-0.557330553477578,-3.415779621444926,6.652145429658194,6.034140140547506
-0.5914883496920272,-3.12780089670638,6.71248683106367,5.7325082489318735
-0.622766358659091,-2.8646788714925213,6.769811913552989,5.470781845439387
-0.6514131473740162,-2.6230090618371484,6.824519732007382,5.243877499564376
-0.6776432379923877,-2.3994592971009374,6.876958507003026,5.046922668987213
-0.701637830963397,-2.19106380481096,6.927427733692898,4.875617676929907
-0.7235484690115066,-1.9952924281792992,6.976183910462197,4.726299321156491
-0.7435013932932996,-1.81003028801905,7.0234469036737615,4.595889717187951
-0.76160169617349,-1.6335277170745512,7.069405800845641,4.481810259282897
-0.7779369733442356,-1.4643454627144283,7.11422390343847,4.381893272962556
-0.79258042797138,-1.301304631434748,7.158042836168096,4.294303160505147
-0.8055934742857275,-1.1434441602852787,7.200985867773147,4.217470083947077
-0.8170279158885803,-0.9899858709863046,7.243160568612618,4.150035788944912
-0.8269277745984434,-0.8403061726347218,7.284660926502067,4.09081002510614
-0.8353308363247905,-0.6939132292801827,7.325569026753128,4.038735817824154
-0.8422699686175924,-0.5504284545255086,7.36595638493137,3.992862001811773
-0.8477742531628475,-0.4095713427961476,7.4058850049494875,3.952321684034867
-0.8518699665908089,-0.27114681513413363,7.445408221789836,3.916315560611165
-0.8545814347421503,-0.13503441565784943,7.484571377395947,3.8840992314487304
-0.8559317788987288,-0.0011788342274137165,7.523412369710434,3.8549738290854623
-0.855943567241003,0.13041864889929367,7.561962108001289,3.828279406844043
-0.8546393807520101,0.2597080969547993,7.600244902069729,3.8033906226156997
-0.852042299782462,0.3865984396233715,7.638278808295886,3.7797143159978366
-0.8481763153862283,0.510964717103553,7.676075951455864,3.756688615738942
-0.8430666682151927,0.6326551091559011,7.7136428376132535,3.7337832386265233
-0.8367401171236337,0.7514977550486182,7.750980669999519,3.710500656601507
-0.8292251395731476,0.8673073230498002,7.788085676565534,3.686377821751823
-0.8205520663426495,0.9798912524688935,7.824949454783052,3.660988153760936
-0.8107531538179606,1.089055568126816,7.861559336320662,3.6339435150668424
-0.7998625981366925,1.1946101570682697,7.89789877147133,3.6048959277982386
-0.7879164965660098,1.2963734001853795,7.9339477307493125,3.5735388244082986
-0.774952762564156,1.394176066206363,7.969683118993395,3.539607670250538
-0.7610110019020924,1.4878644003229358,8.0050791956959,3.50287984921153
-0.746132357898863,1.577302371898708,8.040107994188016,3.4631737599424883
-0.730359334179876,1.6623730819801017,8.07473973178744,3.4203471265765275
-0.7137356033600749,1.7429793682683037,8.108943203053206,3.3742945802789173
-0.6963058096773919,1.8190436795083145,8.142686148855995,3.324944613077513
-0.6781153728823087,1.8905073201119125,8.17593559498677,3.272256040424296
-0.6592102996811896,1.957329187219695,8.208658155391014,3.2162141321357596
-0.6396370078089927,2.019484135193512,8.240820296712371,3.1568265821838444
-0.6194421664570575,2.0769611065055864,8.27238856253421,3.094119486794535
-0.5986725553920017,2.1297611637638854,8.303329757402157,3.0281334889101426
-0.5773749437543628,2.1778955464247143,8.333611092291259,2.958920227379609
-0.5555959882901157,2.2213838592290833,8.363200294565054,2.886539203688507
-0.5333821496978248,2.260252479353313,8.392065686601939,2.8110551500939884
-0.5107796249042917,2.2945332474293103,8.42017623810288,2.732535952951965
-0.48783429242999865,2.3242624855000744,8.4475015976324,2.6510511557043546
-0.4645916675749979,2.3494803638597848,8.474012109189443,2.566671038865507
-0.4410968639364001,2.3702306194708953,8.499678819578099,2.4794662503710647
-0.4173945577416911,2.3865606118070266,8.52447348208181,2.389507939366472
-0.39352895162362084,2.3985216878090494,8.548368561475474,2.2968683301090387
-0.3695437347455304,2.406169816212445,8.571337244776565,2.2016216600836627
-0.3454820365834059,2.4095664427096426,8.5933534613774,2.1038453974857694
-0.3213863721563095,2.4087795110748393,8.61439191535226,2.0036216476385933
-0.2972985770455611,2.4038845912999154,8.634428131828646,1.9010386554172667
-0.27325973113256197,2.394966053782957,8.653438518382819,1.796192311119113
-0.2493100705947324,2.3821182285277005,8.67140044149401,1.6891875702717178
-0.2254888883094554,2.3654464900483694,8.688292317196726,1.5801397034794378
-0.2018344234089717,2.345068212160384,8.70409371423152,1.4691753004718986
-0.17838374128736786,2.3211135420193827,8.71878546723624,1.356432962922705
-0.15517260586717405,2.2937259495846045,8.732349796865467,1.2420636331925679
-0.132235346371328,2.263062517024532,8.744770433197393,1.1262305206713696
-0.10960472120108268,2.229293942283882,8.756032738404107,1.0091086034841956
-0.08731178177824386,2.1926042418370435,8.76612382443895,0.8908837004886239
-0.06538573935987343,2.1531901492142587,8.775032661443836,0.7717511260921402
-0.04385383786773085,2.1112602177613766,8.782750172704757,0.6519139577135554
-0.022741235690117087,2.067033647765622,8.789269312281892,0.5315809618817696
-0.002070899212460866,2.02073886898819,8.79458512190071,0.41096423917455693
0.018136489477421035,1.9726119192271911,8.798694764292454,0.29027665966763166
0.037862608669692946,1.9228946672744356,8.801597530889131,0.16972916863352192
0.0570915553424373,1.871832934103256,8.803294822575467,0.049528046435114395
0.07580988468346986,1.8196745690440963,8.803790103039818,-0.07012779332341909
0.09400663037391083,1.7666675379479169,8.803088825106583,-0.18904938724832354
0.11167330575338999,1.7130580779624658,8.8011983312341,-0.3070601147151148
0.12880388653301464,1.6590889687866803,8.798127730086948,-0.42399783784141737
0.14539477622088143,1.6049979635108753,8.793887751708533,-0.5397167403829775
0.1614447558559902,1.5510164138982316,8.788490584304704,-0.6540888317827898
0.1769549199949725,1.4973681157889078,8.781949695986876,-0.7670050979159626
0.1919286011528616,1.4442683908025478,8.774279645007717,-0.8783762950852422
0.20637128506088706,1.3919234112382213,8.765495882056864,-0.9881333977451724
0.22029051917326928,1.340529766511355,8.755614548079413,-1.096227722634437
0.23369581683838284,1.2902742620119774,8.744652270853068,-1.2026307620327872
0.24659855945850262,1.2413339351865214,8.73262596323274,-1.3073337664879057
0.25901189881036785,1.1938762690838083,8.71955262556786,-1.410347122526647
0.27095066150120595,1.1480595805984635,8.705449154342594,-1.511699573689164
0.2824312573071906,1.1040335591286425,8.690332158605703,-1.6114373339501307
0.293471592898477,1.061939931201415,8.674217785266201,-1.7096231415570513
0.3040909922104912,1.0219132276194387,8.657121553850631,-1.8063352989116794
0.31431012448668555,0.9840816316301958,8.639058200861514,-1.9016667407525532
0.3241509408029875,0.9485678892907482,8.620041533453989,-1.9957241689560503
0.333636619695895,0.915490266382963,8.600084291764428,-2.088627288115303
0.3427915223597246,0.8849635397338745,8.579198018883275,-2.18050817198537
0.35164115775706334,0.8571000144486639,8.55739293716342,-2.2715107871458557
0.36021215790155,0.8320105622352427,8.534677829291962,-2.361790697015504
0.3685322635239024,0.8098056795836842,8.511059922321806,-2.451514966786054
0.37663032031973925,0.7905965679781005,8.486544772653945,-2.5408622879991465
0.3845362859995203,0.7744962414950771,8.461136149773953,-2.6300233403932434
0.39228124841447104,0.7616206700163235,8.434835916370021,-2.7192014082692246
0.39989745511463426,0.7520899687752882,8.40764390228733,-2.8086132688794345
0.40741835480238714,0.7460296469541885,8.379557769598534,-2.8984903710817966
0.414878651271929,0.7435719293688549,8.350572865887717,-2.9890803234682854
0.42231437056561755,0.7448571656324403,8.320682062653034,-3.0806487119825072
0.42976294222194195,0.7500353401062976,8.289875575533209,-3.1734812670709003
0.4372632956230049,0.7592676926804294,8.2581407628625,-3.2678863987079407
0.44485597254980924,0.7727284537995316,8.22546189887542,-3.3641981126979945
0.45258325708780456,0.790606685320402,8.19181991774844,-3.462779311133926
0.46048932394100855,0.8131081988787765,8.1571921246371,-3.5640254600962016
0.4686204059297963,0.8404574909898194,8.12155187003614,-3.6683685728162434
0.4770249808396945,0.8728995821667169,8.084868184307977,-3.776281397519575
0.4857539766613617,0.9107015651490677,8.047105370332782,-3.8882816017649247
0.4948609923128524,0.9541535382063588,8.008222554315132,-4.00493558701283
0.504402527694916,1.0035683976535732,7.968173198445004,-4.126861313615921
0.5144382116714518,1.0592796496003696,7.9269045853088445,-4.254729113492732
0.5250310081674554,1.121635914354401,7.884357294173917,-4.38925883264623
0.5362473673109994,1.190990047889834,7.840464705847454,-4.5312106535570695
0.5481572677898978,1.2676796631872351,7.7951525993118835,-4.6813654155836675
0.5608340644217702,1.3519941220087714,7.748338945156047,-4.84048792643546
0.5743540056418579,1.4441205677121631,7.699934065891693,-5.0092633235912505
0.5887952113189795,1.5440580861899478,7.64984143265578,-5.188191699156745
0.604235792180879,1.6514846339742286,7.597959515664212,-5.377419913984091
0.6207506385206213,1.7655566922051082,7.544185316524371,-5.576482711481151
0.6384062054426723,1.8846192462021067,7.48842048940956,-5.783921277553335
0.6572523979046934,2.005810123189633,7.430581276634026,-5.996755024262694
0.6773104991365897,2.124571309399421,7.370613726391399,-6.209819881199011
0.698556212230584,2.2341521634550645,7.308515527579409,-6.415083532237777
0.7208977338651346,2.325325417505549,7.244364692257031,-6.601232917182318
0.7441509880401901,2.3867150357700746,7.178352363085208,-6.754073579451831
0.7680181383978908,2.4062145116785105,7.1108116272906905,-6.858391687855604
0.7920802835146759,2.373663270047196,7.042227710412134,-6.901507531130197
0.8158169162151478,2.2840611182008432,6.973212635100832,-6.877539416908948
0.8386575273971563,2.1396442962868227,6.904437240931742,-6.790101284815264
0.8600539703600245,1.9493323637904147,6.836536228083589,-6.6514357087449145
0.8795472939979286,1.7257574990827833,6.77002187099614,-6.47832463385352
0.8968048689887564,1.4817073340635667,6.705238624657604,-6.28730279062684
0.9116219423293921,1.2277173680718645,6.642365596751336,-6.091510870106899
0.9238991160101108,0.9712683396957081,6.581450488050267,-5.899747639092511
0.9336117994070678,0.7170740864733158,6.522453011659342,-5.71697388278382
0.940782540271801,0.4677866376174853,6.465283272831504,-5.545337970058999
0.9454604066479758,0.2246996716024144,6.409829893130914,-5.385161342680615
0.947707403364,-0.011707110587209968,6.355978279704108,-5.235684324873812
0.9475903322581278,-0.2413970191491491,6.30362143645537,-5.0955650911322445
0.9451763620666364,-0.4645425694181444,6.252665785544048,-4.963189059213849
0.9405309363724549,-0.6813865422433546,6.2030338949519095,-4.836850607103379
0.9337170709500213,-0.8921642257710976,6.1546653888808756,-4.714855003347289
0.9247954286923104,-1.0970635845108336,6.107516838847403,-4.5955729585522604
0.913824792847202,-1.2962084042372812,6.06156110926188,-4.477468235306257
