th1 (rad),w1 (rad/s),th2 (rad),w2 (rad/s)
2.932323784301714,-0.46648261795293766,2.134192768562071,2.568541523711763
2.927658958122185,-0.48711472054357224,2.1598781837991887,2.5016481425073063
2.922787810916749,-0.5057609361612765,2.184894665224262,2.4352290308533906
2.9177302015551363,-0.5225943698821347,2.209246955532796,2.3693099371364092
2.9125042578563147,-0.5377905365914306,2.23294005490416,2.303930220683239
2.9071263524904003,-0.5515274690146122,2.2559793571109923,2.2391428003534513
2.901611077800254,-0.563985650630821,2.278370785114527,2.175013833200476
2.895971221293946,-0.5753477690454387,2.300120923446532,2.1116221226416347
2.890217743603492,-0.5857982938247704,2.3212371446729483,2.0490582653838736
2.884359760665244,-0.5955228914408127,2.341727727326787,1.9874235568994714
2.878404531750836,-0.6047076982512086,2.3616019628957816,1.9268286856893675
2.872357454768324,-0.6135384797231717,2.3808702497526752,1.8673922560028462
2.866222069971092,-0.6221997098052688,2.399544172312704,1.8092391862266506
2.8600000728730395,-0.6308736079655578,2.41763656417497,1.752499035074584
2.853691336793384,-0.6397391726227292,2.435161554525716,1.6973043094847833
2.8472939450671566,-0.6489712483811368,2.4521345976205637,1.6437888065368442
2.8408042325833454,-0.6587396607467062,2.4685724856859323,1.5920860368161835
2.8342168359758784,-0.6692084461624762,2.4844933460540943,1.542327768853333
2.8275247515142534,-0.6805351977395063,2.4999166237426276,1.4946427241647031
2.8207193995368582,-0.6928705385550457,2.5148630509842747,1.44915544078849
2.813790694151308,-0.7063577254640949,2.5293546053921596,1.4059853108759444
2.806727116896667,-0.7211323776102004,2.543414458500919,1.3652457856650189
2.799515793120565,-0.7373223157291185,2.557066916357569,1.3270437297260795
2.792142569963274,-0.7550474912988003,2.57033735365483,1.291478896269738
2.784592095050286,-0.774419978854422,2.5832521426175274,1.2586434869141552
2.7768478952617417,-0.7955440004898046,2.595838577486669,1.2286217528302044
2.7688924552568435,-0.8185159487426162,2.608124795014971,1.2014895896954334
2.7607072957694174,-0.8434243726873123,2.620139690911925,1.1773140763899834
2.7522730520425442,-0.8703498920967563,2.631912831675825,1.1561529068348568
2.7435695531215765,-0.8993650059647768,2.6434743607441735,1.1380536658142373
2.7345759030619288,-0.9305337645508012,2.654854897402316,1.1230529031307224
2.725270565416421,-0.9639112785421963,2.666085426433623,1.1111749662253583
2.715631452630999,-0.999543045153972,2.6771971760958766,1.1024305597971724
2.7056360221794593,-1.0374640793115548,2.6882214816938483,1.096815012447117
2.6952613813863437,-1.0776978488602904,2.6991896318183195,1.0943062454963064
2.684484402897741,-1.1202550263820594,2.7101326942732826,1.0948624584295252
2.67328185263392,-1.1651320869435622,2.721081318857578,1.0984195692921899
2.6616305317644846,-1.2123098009900937,2.7320655145505,1.1048884768913245
2.6495074337545836,-1.261751694271863,2.7431143993194134,1.11415224431695
2.636889916811865,-1.313402571197776,2.754255921762583,1.126063338765624
2.6237558910998873,-1.367187222634398,2.765516555150239,1.1404410984645668
2.6100840188735432,-1.423009461289364,2.7769209661348846,1.157069629927446
2.5958539242606498,-1.4807516439243775,2.788491662434159,1.1756963627921202
2.581046407821406,-1.540274845522797,2.8002486260620802,1.1960314990566014
2.565643659366178,-1.6014198417620067,2.812208941052646,1.2177485822675909
2.5496294609485584,-1.6640090288466365,2.824386426875322,1.2404863745276913
2.532989370660092,-1.7278493616794923,2.8367912906205985,1.263852161724386
2.515710877043297,-1.7927363229353634,2.8494298122378425,1.2874265106468874
2.4977835138139435,-1.858458850944745,2.8623040773443114,1.3107693813116905
2.479198925304496,-1.924805061456454,2.8754117711574283,1.3334273652097328
2.4599508746899312,-1.9915685088248989,2.8887460448095257,1.3549416915851176
2.4400351896016823,-2.058554659281529,2.9022954617253767,1.3748565382000262
2.4194496430088672,-2.125587205367142,2.916044027107377,1.392727118443706
2.3981937709551957,-2.1925138454946236,2.929971298291814,1.4081270063602989
2.3762686325002496,-2.2592111892456397,2.944052568355417,1.4206542101609398
2.353676520607793,-2.325588523535043,2.9582591104570266,1.4299356079744738
2.3304206353724424,-2.3915902767344366,2.9725584665367712,1.4356295025099013
2.306504732605098,-2.45719713226646,2.98691476156187,1.4374262130599915
2.2819327612824334,-2.522425853781086,3.00128902369247,1.4350467810222116
2.2567085027446225,-2.5873279765105854,3.015639491502692,1.4282399987189707
2.2308352229795165,-2.6519875839943214,3.029921891489882,1.4167780669413832
2.2043153471395733,-2.716518421987246,3.044089672159296,1.4004512385050611
2.177150162919701,-2.781060603372257,3.0580941845443466,1.379061815064235
2.1493395568859786,-2.845777134725168,3.071884802694989,1.3524178401688083
2.1208817855387267,-2.91085045447884,3.085408981096677,1.3203267839539696
2.0917732809939382,-2.9764791224252067,3.0986122489362167,1.2825894554428112
2.062008489769686,-3.042874747593775,3.111438143490645,1.2389943174115499
2.0315797422937485,-3.1102591915675184,3.1238280866647603,1.1893123238592496
2.000477150378073,-3.1788620402398853,3.1357212099033527,1.133292356306148
1.9686885299756742,-3.248918300259309,3.147054133466414,1.0706573048519359
1.9361993469730812,-3.320666246940248,3.1577607065149333,1.0011008236216796
1.9029926845036786,-3.3943453273432915,3.16777171475115,0.9242847870510248
1.8690492312302458,-3.470194004216581,3.17701456262166,0.839837481800632
1.83434729118808,-3.5484474121703515,3.1854129374396667,0.7473525869981178
1.7988628170663765,-3.629334685670847,3.1928864633096476,0.6463890209529096
1.7625694702096681,-3.713075808441357,3.199350353519177,0.5364717634391412
1.7254387121252546,-3.7998778254290646,3.2047150711535686,0.4170937970025656
1.687439933870964,-3.8899302520321477,3.208886009123594,0.28771934622704987
1.6485406313506425,-3.983399511849067,3.2117632025858645,0.14778862779607202
1.6087066362321518,-4.08042223558779,3.213241088863825,-0.003275646827090306
1.5679024138762738,-4.181097262451156,3.2132083323955545,-0.16605975437321419
1.5260914412517623,-4.285476204462596,3.2115477348518224,-0.34114816099930373
1.4832366792071363,-4.3935524675172735,3.2081362532418294,-0.5291101890751186
1.4393011545319636,-4.505248674403936,3.2028451513510783,-0.7304839387471417
1.3942486677879242,-4.620402508410774,3.1955403119636068,-0.945757329750476
1.3480446427038164,-4.738751094289972,3.186082738666102,-1.1753462458610602
1.3006571317609166,-4.859914157400186,3.1743292762074913,-1.4195699262120436
1.2520579901869147,-4.983376349991227,3.1601335769453707,-1.6786239547628121
1.2022242266870025,-5.108469300103823,3.1433473373977425,-1.9525514459134943
1.1511395336859642,-5.234354112934576,3.1238218229386074,-2.241213297266929
1.0987959925566184,-5.360005221377728,3.101409689965938,-2.544258657753761
1.045195940342841,-5.484196622518809,3.0759671033884004,-2.8610970104518385
0.9903539741176529,-5.605491629418331,3.047356133283882,-3.190873458873958
0.9342990578234696,-5.722237294499357,3.0154473986951422,-3.532448898182965
0.877076684878476,-5.832564611889505,2.9801229097133124,-3.88438672245324
0.818751038759581,-5.934395483565239,2.94127904248878,-4.244947557812407
0.7594070839239286,-6.025457256275259,2.898829566910656,-4.612093237607254
0.6991525113611761,-6.103305435720118,2.8527086345345833,-4.983500897804291
0.6381194570039749,-6.1653550013805924,2.8028736255565403,-5.356587741105345
0.576465906990169,-6.20892061327854,2.749307748145487,-5.72854677751609
0.5143767008573836,-6.231265929431515,2.6920222803703258,-6.096393760730098
0.45206404156306845,-6.2296622049468136,2.631058342763025,-6.4570256189316995
0.38976741951360033,-6.201456230634533,2.566488086573708,-6.807290865642453
0.327752857207255,-6.144147349158627,2.498415177917283,-7.14407262427981
0.26631138371566876,-6.055472592528922,2.426974451674485,-7.464384789993309
0.20575665779037955,-5.933497773110286,2.352330603774552,-7.76548124082529
0.1464216800592767,-5.776710583452716,2.274675791366299,-8.044976711312481
0.08865457422474954,-5.584109540748176,2.194226024253174,-8.300975927663163
0.03281347881726778,-5.355280294647002,2.1112162649765427,-8.53220509745376
-0.020739324129202243,-5.0904489629762635,2.025894214002005,-8.738137363200607
-0.07164381375896488,-4.790501447393735,1.938512840369999,-8.919102122708097
-0.11954882823290224,-4.456958714539588,1.849321819142918,-9.076368015419279
-0.1641184153782981,-4.0919010892712375,1.7585581389887253,-9.21219150824682
-0.2050374262710105,-3.6978394392990066,1.6664362239062571,-9.329827558276216
-0.24201582066400057,-3.2775368740312434,1.5731379483234949,-9.43350532804231
-0.274791189404313,-2.8337899257101484,1.4788028950430718,-9.5283793488555
-0.3031290886614145,-2.3691817418472274,1.3835191015545167,-9.620473537702917
-0.3268209060798868,-1.8858206030682834,1.2873143661774875,-9.716640843981361
-0.3456791121105696,-1.3850749133186797,1.190147957737674,-9.824564207754808
-0.3595298612437564,-0.8673116297295577,1.0919023156601257,-9.952824458567234
-0.36820297754105197,-0.33164131253135454,0.9923740710744534,-10.111056835296193
-0.3715193906663655,0.22432555902950746,0.8912635027214915,-10.310206482894037
-0.36927613507607043,0.8046892911287252,0.7881614378925511,-10.562863571137454
-0.3612292421647832,1.415360144494693,0.6825328021811765,-10.883579960649902
-0.34707564071983626,2.0638116552723393,0.5736970025746775,-11.288861710455228
-0.32643752416711286,2.7578557152409133,0.4608083854701252,-11.795996565016605
-0.2988589670147037,3.501846658133103,0.34284841981995917,-12.418562715148266
-0.2638405004333727,4.286670192968999,0.21866279266847652,-13.153611444654782
-0.2209737985036827,5.066952606763126,0.08712667822192868,-13.951334599716292
-0.17030427243605145,5.722213440149541,-0.052386667775234236,-14.662123881949903
-0.11308213803455605,6.0371407910499775,-0.19900790659473327,-15.00825396277353
-0.052710730124056276,5.817104221022269,-0.34909044622246854,-14.738375985522541
0.005460312086166416,5.125438740274395,-0.496474206077694,-13.944517609960332
0.056714699488910364,4.241676508889434,-0.6359193821772973,-12.996692780197055
0.0991314645778047,3.372963555617368,-0.7658863099792679,-12.15506662209582
0.1328611001339784,2.5851842856539786,-0.8874369762002261,-11.489570554812856
0.1587129429905182,1.8781512752950915,-1.0023326817483547,-10.986760143415202
0.17749445574346912,1.2351604966354,-1.1122002831825066,-10.61566309051596
0.18984606070982313,0.6393636348937949,-1.2183569140876662,-10.347849045411483
0.19623969705876107,0.07740790776662809,-1.321835404541781,-10.160870613725892
0.19701377613642734,-0.46045050494112794,-1.42344411067904,-10.037488798004572
0.19240927108701605,-0.9809507362816644,-1.5238189986590858,-9.964271492414214
0.18259976372419942,-1.4884294351456713,-1.6234617135832279,-9.9304022729449
0.1677154693727427,-1.9852883259464762,-1.722765736312677,-9.926812444916678
0.14786258611327793,-2.4723428900065265,-1.8220338607618438,-9.945590508142523
0.12313915721321267,-2.949095752221704,-1.921489765843269,-9.979607188191837
0.09364819969099564,-3.413975075137106,-2.021285837725187,-10.022306765482297
0.05950844893962458,-3.8645677335356257,-2.12150890538001,-10.067627791129626
0.020862771604268318,-4.297864970654998,-2.222185183291306,-10.110022724363127
-0.02211587810228166,-4.710525902991955,-2.3232854105349374,-10.144547159574937
-0.06922113713220121,-5.09915249916936,-2.424730882130687,-10.166987564178108
-0.12021266212389481,-5.460559915036337,-2.526400757772468,-10.173994779515372
-0.17481826127425817,-5.792020100483805,-2.628140705567622,-10.1631916672477
-0.23273846227909623,-6.091455855817851,-2.7297726222400986,-10.13322891342105
-0.29365302083727474,-6.357567353610001,-2.831104911374309,-10.083773170161852
-0.35722869437337473,-6.589882374611639,-2.931942643075928,-10.015424669591626
-0.4231275181194911,-6.788732651759387,-3.0320968897718443,-9.929574237897203
-0.491014844637085,-6.9551688219998145,-3.1313926321508165,-9.828219250980395
-0.5605665328570831,-7.090833168251424,-3.2296748246606204,-9.713762557096226
-0.6314748645395973,-7.197811520082858,-3.3268124502315826,-9.588817474448694
-0.7034529797404259,-7.27848373965052,-3.4227006249760694,-9.45603691069093
-0.7762378171369311,-7.335387525444743,-3.517260994082979,-9.317977523517648
-0.8495916923913786,-7.371104520092706,-3.6104407693181555,-9.177002701185112
-0.9233027375923056,-7.388172341794116,-3.702210796330007,-9.035222427805916
-0.9971844610102468,-7.389022033162584,-3.792563020608066,-8.894464440157003
-1.0710746813418726,-7.375937814342906,-3.881507665009636,-8.756269430621037
-1.1448340594853017,-7.351034797970741,-3.9690703593158463,-8.621902954816345
-1.2183444074650092,-7.31625012101196,-4.05528938886401,-8.492377585133932
-1.2915069086751287,-7.273343382324207,-4.140213164715349,-8.368480192565308
-1.364240342498371,-7.223903014681924,-4.223897966641002,-8.250800660162112
-1.43647937264519,-7.16935603325076,-4.306405973242623,-8.139759605564349
-1.5081729329776976,-7.110979351006203,-4.387803569298267,-8.035633714160062
-1.5792827264877596,-7.049911470701396,-4.468159906439868,-7.938578038757839
-1.6497818411947736,-6.987163836503308,-4.547545686827447,-7.848645133113298
-1.7196534795598066,-6.92363146739795,-4.62603213815858,-7.765801202261375
-1.788889794233786,-6.86010272214049,-4.703690150181194,-7.689939622770133
-1.8574908214551908,-6.797268187939373,-4.780589546408895,-7.6208922557780685
-1.9254635033345846,-6.73572876609526,-4.856798468966676,-7.558438981173588
-1.992820790995537,-6.676003067080218,-4.9323828587784115,-7.502315849402596
-2.0595808216663394,-6.618534239968437,-5.007406017272437,-7.452222196825102
-2.125766164066024,-6.563696357393682,-5.081928239240688,-7.4078270133941775
-2.1914031276399606,-6.511800464513472,-5.15600650937463,-7.3687747949125715
-2.256521132285095,-6.463100383369891,-5.2296942573237555,-7.334691060010368
-2.321152136118794,-6.417798345235605,-5.303041167923859,-7.305187665797431
-2.38533011957115,-6.3760505044492275,-5.376093044581833,-7.279868016025758
-2.4490906246156423,-6.3379723685370815,-5.448891724742091,-7.258332220976278
-2.5124703483010133,-6.303644161341713,-5.521475046951854,-7.24018223831571
-2.5755067899144306,-6.273116118531195,-5.593876869335011,-7.22502699802476
-2.6382379510997427,-6.246413698360512,-5.666127139315258,-7.212487491546829
-2.700702088083348,-6.223542675119018,-5.738252014230727,-7.202201785194407
-2.762937514834538,-6.204494068694967,-5.810274032082671,-7.193829900523967
-2.824982455521488,-6.1892488516269175,-5.882212331087911,-7.187058490058203
-2.886874944037757,-6.177782365494767,-5.954082915988493,-7.181605225796754
-2.9486527676927046,-6.1700683721571945,-6.0258989682464605,-7.1772228109061045
-3.0103534514142765,-6.166082662733855,-6.097671196355521,-7.1737025222917215
-3.072014278041615,-6.165806148777317,-6.169408221578438,-7.170877193779063
-3.133672339529388,-6.1692273659711105,-6.241116993516228,-7.168623556489801
-3.195364613189099,-6.1763443308295845,-6.312803229081126,-7.166863864527279
-3.257128056497395,-6.187165704851987,-6.384471867726399,-7.165566749786539
-3.318999713545915,-6.2017112376820975,-6.456127535224264,-7.16474726876719
-3.3810168259227362,-6.220011480073153,-6.527775007911936,-7.164466125614172
-3.4432169407234676,-6.242106777706591,-6.5994196691680775,-7.1648280779868125
-3.5056380085005334,-6.268045576941984,-6.671067949947946,-7.165979554443366
-3.5683184642699532,-6.297882092209426,-6.742727745492379,-7.168105532573449
-3.6312972851920473,-6.331673400977571,-6.814408800818113,-7.171425745047569
-3.694614019201823,-6.369476045275414,-6.8861230582685895,-7.17619029530101
-3.758308779654577,-6.411342228165157,-6.9578849612216,-7.182674775301979
-3.8224222019362286,-6.457315699251072,-7.02971170897462,-7.191174984724182
-3.8869953589287394,-6.5074274254903255,-7.101623458821862,-7.202001354167722
-3.9520696331836427,-6.56169114275375,-7.17364347236354,-7.215473175471084
-4.0176865446111805,-6.620098880481749,-7.24579820411825,-7.2319127404716514
-4.083887533415998,-6.682616547219515,-7.318117331522966,-7.25163948675294
-4.150713698888193,-6.7491796596339055,-7.3906337263904955,-7.274964245907283
-4.218205495484532,-6.819689292562138,-7.463383368849568,-7.302183687464141
-4.286402388410154,-6.894008323296218,-7.5364052057242095,-7.333575050481685
-4.355342471643116,-6.971958039999825,-7.609740956229026,-7.3693912551551835
-4.425062052043114,-7.053315181927431,-7.683434868780578,-7.409856488566287
-4.495595203862389,-7.137809477691625,-7.757533433666241,-7.45516236137358
-4.566973298639305,-7.225121746605321,-7.832085057279977,-7.50546473489123
-4.639224516105358,-7.31488262620858,-7.907139704628889,-7.56088131927379
-4.712373342367444,-7.406671985309545,-7.982748517821627,-7.621490141712059
-4.78644006222054,-7.500019074857295,-8.058963419238747,-7.6873289766528154
-4.861440252969112,-7.594403457230962,-8.135836709005275,-7.758395815912816
-4.937384287541422,-7.689256736562294,-8.213420667164403,-7.834650432957316
-5.0142768549070444,-7.783965087090628,-8.291767171493976,-7.916017060479774
-5.092116505777951,-7.877872542088238,-8.370927342098774,-8.00238815199674
-5.170895231198833,-7.970284961762929,-8.450951223618741,-8.093629135223992
-5.250598080816462,-8.060474544424187,-8.53188751497098,-8.189583987005193
-5.331202826260704,-8.147684681418882,-8.613783354841033,-8.290081366893938
-5.4126796730748925,-8.231134884019845,-8.696684168509972,-8.394940940555243
-5.494991021915091,-8.310025431629654,-8.780633577915523,-8.50397940751808
-5.578091276231388,-8.383541308466965,-8.865673371990704,-8.617015624284084
-5.661926689316057,-8.450854914734276,-8.951843528233544,-8.733874088527914
-5.7464352384634,-8.51112696408621,-9.039182269118823,-8.85438592977496
-5.831546508104262,-8.563504919987503,-9.127726128416572,-8.978386445035204
-5.917181557304137,-8.607118289904843,-9.217509992866924,-9.105708135453115
-6.003252740203186,-8.641070102518634,-9.308567074221456,-9.236168156814069
-6.089663441228372,-8.664423958608982,-9.400928755789597,-9.369549112904945
-6.176307680814462,-8.676186197056756,-9.494624246918645,-9.50557222446134
-6.26306954278503,-8.675282988174276,-9.589679969163258,-9.643862137204176
-6.349822372666773,-8.660532601906757,-9.6861185905353,-9.783903044405136
-6.43642769868584,-8.630613752334758,-9.78395762097935,-9.924986463673267
-6.522733836209188,-8.58403185133112,-9.883207485616083,-10.066152011187508
-6.608574154722499,-8.519086265051863,-9.983869005727959,-10.206123953158173
-6.693765017373018,-8.433843277436578,-10.08593024525954,-10.343248261194864
-6.778103450147383,-8.326121371552508,-10.189362727871488,-10.47543737103646
-6.861364663862908,-8.19349745244321,-10.294117101581852,-10.600132722294472
-6.94329963838734,-8.033344349754813,-10.400118428804797,-10.714298081482985
-7.023633081884888,-7.842910665881899,-10.507261409619627,-10.814458912915022
-7.102062188543708,-7.619452790902486,-10.615405998748777,-10.896803536823356
-7.178256716452733,-7.360424538449716,-10.72437403411701,-10.95735903381033
-7.25186096183723,-7.0637214142309555,-10.833947624455114,-10.992247348895972
-7.32249817597954,-6.727963892043359,-10.943870097944073,-10.99801403272665
-7.389777814899974,-6.352788734423732,-11.05385023827134,-10.972004390538036
-7.4533057022442115,-5.939102993375944,-11.16357028217672,-10.912742828113707
-7.512696732177971,-5.489247314525862,-11.272697710457857,-10.820256723768722
-7.567589205323229,-5.0070191434993525,-11.380900277695543,-10.696283080297484
-7.617659396758223,-4.4975253272780815,-11.487863108498518,-10.54430944065106
-7.662634650031004,-3.9668650171157185,-11.593306202905028,-10.369429781024682
-7.7023033002021615,-3.421679405601597,-11.697000500715275,-10.178034326114993
-7.736520094258178,-2.8686331536582212,-11.798780843976424,-9.977387758806136
