th1 (rad),w1 (rad/s),th2 (rad),w2 (rad/s),a1 (rad/s^2),a2 (rad/s^2)
2.7101776371611144,-2.1853788068916735,0.1431582554600687,2.539164877001825,-8.256130515016377,-5.7329807983039665
2.6883238490921975,-2.2679401120418374,0.16854990423008695,2.481835069018785,-8.266760341869801,-5.3671771135809445
2.665644447971779,-2.3506077154605354,0.1933682549202748,2.4281632978829757,-8.250693888431963,-4.925586861353399
2.642138370817174,-2.433114654344855,0.21764988789910455,2.3789074292694417,-8.219138075088146,-4.4203484464131595
2.6178072242737254,-2.5153060350957364,0.24143896219179897,2.33470394480531,-8.1820912399801,-3.8617831125197246
2.592654163922768,-2.5971269474955374,0.26478600163985205,2.2960861136801127,-8.148329020217698,-3.258272884929758
2.5666828944478124,-2.6786102376977143,0.2877468627766532,2.2635033848308153,-8.125492561921556,-2.6162623948430923
2.5398967920708353,-2.7598651633169298,0.31038189662496135,2.2373407608823843,-8.12024290990919,-1.9403357857726542
2.512298140437666,-2.841067592416022,0.3327553042337852,2.2179374030246577,-8.138453880725159,-1.233329528622875
2.4838874645135056,-2.9224521312232734,0.35493467826403174,2.205604107738429,-8.185424194928256,-0.4964516305531737
2.454662943201273,-3.004306373172556,0.37699071934141604,2.200639591432897,-8.266097108999503,0.2706139712735332
2.4246198794695473,-3.086967344262551,0.398997115255745,2.2033457311456326,-8.385281871019215,1.069632646167456
2.3937502060269216,-3.1708201629727433,0.42103057256720133,2.214042057607307,-8.547876049723426,1.903784324013008
2.362042004397194,-3.2562989234699775,0.4431709931432744,2.233079900847437,-8.759091370708306,2.7776764807577443
2.329479015162494,-3.3438898371770605,0.4655017921517488,2.2608566656550146,-9.02468841048052,3.6974113209512485
2.2960401167907234,-3.434136721281866,0.48811035880829895,2.297830778864527,-9.351227588318205,4.670713421175128
2.2616987495779046,-3.527648997165048,0.5110886665969442,2.344537913076278,-9.746345490750262,5.707124502464944
2.226422259606254,-3.6251124520725506,0.534534045727707,2.4016091581009276,-10.219066605431466,6.818272415534697
2.190171135085529,-3.727303118126865,0.5585501373087163,2.4697918822562746,-10.780160634634681,8.018220887247226
2.1528981039042603,-3.835104724473212,0.5832480561312791,2.549974091128747,-11.44255368792237,9.323903336323417
2.114547056659528,-3.9495302613524355,0.6087477970425665,2.643213124491981,-12.221795621017097,10.755634751393652
2.0750517540460036,-4.0717482175626065,0.6351799282874864,2.7507694720059175,-13.136571095337223,12.337673642319443
2.0343342718703776,-4.203113928515979,0.6626876230075456,2.874146208429112,-14.20920956307481,14.098758453574105
1.9923031325852179,-4.3452060241467265,0.6914290850918366,3.015133792964853,-15.466081411477287,16.072444007157547
1.9488510723437507,-4.499866838261499,0.7215804230214852,3.1758582330364282,-16.937628477938507,18.296863232435953
1.9038524039611358,-4.669243123040884,0.7533390053518495,3.3588268653607876,-18.657497492387446,20.813139273837745
1.8571599727307269,-4.855818097964758,0.7869272740054574,3.566958258099165,-20.6596903290323,23.660883581765006
1.8086017917510793,-5.062415001255081,0.822596856586449,3.803567093916815,-22.971564849203627,26.867684622854018
1.7579776417385284,-5.292130649747118,0.8606325275256171,4.072243940145355,-25.598484382395245,30.42661607550026
1.7050563352410573,-5.54811549357107,0.9013549669270707,4.376510100900357,-28.492325306021353,34.250739780123475
1.6495751803053467,-5.833038746631284,0.9451200679360743,4.719017498701592,-31.49064793820796,38.08599897080771
1.5912447928390339,-6.147945226013364,0.9923102429230902,5.099877488409669,-34.208622046757114,41.357375140832005
1.5297653405789002,-6.490031446480935,1.0433090178071869,5.513451239817989,-35.87519564157649,42.936743813757964
1.464865026114091,-6.8487834028967,1.0984435302053668,5.942818677955569,-35.17090105711763,40.91446424977774
1.396377192085124,-7.2004924134678765,1.1578717169849224,6.351963320453346,-30.322259481950166,32.73649037513582
1.3243722679504453,-7.5037150082873785,1.2213913501894558,6.6793282242047045,-19.98140112483517,16.455865516900612
1.2493351178675716,-7.70352901953573,1.2881846324315027,6.84388687937371,-5.061825661250641,-6.658151349688804
1.1722998276722143,-7.754147276148236,1.35662350122524,6.777305365876822,10.257011008006062,-30.679498998274163
1.094758354910732,-7.651577166068176,1.424396554884008,6.47051037589408,21.0323065495841,-48.5466711694233
1.0182425832500503,-7.441254100572335,1.4891016586429489,5.985043664199847,25.425024524589777,-57.54530079713614
0.943830042244327,-7.187003855326437,1.5489520952849474,5.4095906562284855,24.930821059131908,-59.68505032839164
0.8719600036910626,-6.937695644735118,1.6030480018472322,4.812740152944569,21.9085509549187,-58.241209559776486
0.8025830472437114,-6.718610135185932,1.651175403376678,4.230328057346804,18.028962081003552,-55.556844119489945
0.7353969458918521,-6.538320514375896,1.693478683950146,3.6747596161519045,14.140470093160893,-52.83143544960833
0.6700137407480932,-6.396915813444287,1.730226280111665,3.1464452616558214,10.584436696144362,-50.549690244703875
0.6060445826136502,-6.291071446482843,1.7616907327282232,2.6409483592087826,7.4592997709039714,-48.8462144328873
0.5431338681488218,-6.216478448773803,1.788100216320311,2.1524862148799095,4.765116722288369,-47.706150447247175
0.48096908366108376,-6.16882728155092,1.8096250784691101,1.6754247104074378,2.470590303639187,-47.05850248674671
0.41928081084557456,-6.144121378514527,1.8263793255731846,1.2048396855399708,0.5412003230223482,-46.81541573920088
0.3578395970604293,-6.138709375284304,1.8384277224285843,0.736685528147962,-1.0502847309384002,-46.887034490761934
0.29645250330758627,-6.149212222593688,1.845794577710064,0.2678151832403426,-2.3208805890610598,-47.18609161159491
0.2349603810816494,-6.172421028484298,1.8484727295424674,-0.2040457328756065,-3.277628222758727,-47.62860349841491
0.17323617079680642,-6.205197310711886,1.8464322722137114,-0.6803317678597556,-3.9191457089432413,-48.13346788415359
0.11118419768968757,-6.244388767801318,1.8396289545351139,-1.1616664467012914,-4.2377426727463225,-48.62216375453141
0.048740310011674386,-6.286766194528782,1.828012290068101,-1.6478880842466055,-4.221802318956803,-49.01903035898649
-0.014127351933613426,-6.328984217718349,1.811533409225635,-2.1380783878364706,-3.858297457160203,-49.25225447550573
-0.07741719411079692,-6.367567192289951,1.7901526253472704,-2.630600932591528,-3.135341901318875,-49.255505306724544
-0.14109286603369642,-6.39892061130314,1.763846616021355,-3.1231559856587734,-2.0446659709612702,-48.97003928908496
-0.2050820721467278,-6.419367271012753,1.7326150561647673,-3.612856378549623,-0.5838852664318641,-48.34702655756162
-0.26927574485685535,-6.4252061236770714,1.696486492379271,-4.09632664412524,1.2415730332211146,-47.34982451535653
-0.3335278060936261,-6.41279039334486,1.6555232259380186,-4.569824889278805,3.417004169442249,-45.95594367756954
-0.39765571002707467,-6.378620351650437,1.6098249770452306,-5.0293843260545,5.917500500789947,-44.15851116984835
-0.46144191354357905,-6.319445346642538,1.5595311337846856,-5.470969437752983,8.707602916056143,-41.967120919259955
-0.5246363670100045,-6.232369317481976,1.5048214394071557,-5.890640646945583,11.741530054507905,-39.40804109896609
-0.5869600601848243,-6.114954016936897,1.4459150329377,-6.2847210579352435,14.963973682771503,-36.52380355364277
-0.6481096003541933,-5.965314280109182,1.3830678223583475,-6.649959093471671,18.31145989861256,-33.37221281173989
-0.7077627431552851,-5.782199681123057,1.3165682314236307,-6.9836812215890705,21.714298931115213,-30.024789042385134
-0.7655847399665157,-5.565056691811905,1.2467314192077399,-7.283929112012922,25.099157791076106,-26.564624386415154
-0.8212353068846348,-5.314065113901144,1.1738921280876107,-7.5495753558770735,28.392264728145644,-23.083620435841233
-0.8743759580236462,-5.0301424666196874,1.0983963745288399,-7.7804115602354855,31.523178009894497,-19.67911655305515
-0.9246773826898431,-4.714910686520742,1.020592258926485,-7.977202725766037,34.42893094496265,-16.45002428090696
-0.9718264895550506,-4.3706213770711155,0.9408202316688247,-8.141702968575107,37.05823161443496,-13.492733332084041
-1.0155327033257617,-4.000039060926766,0.8594032019830736,-8.276630301895947,39.37529707638724,-10.8972048378648
-1.0555330939350294,-3.6062860901628935,0.7766368989641141,-8.385602350274596,41.36288437250805,-8.74376298952138
-1.0915959548366583,-3.192657246437813,0.6927808754613682,-8.47303998016981,43.02416959806237,-7.101094700259334
-1.1235225273010363,-2.762415550457189,0.6080504756596701,-8.544050927172403,44.383311667858884,-6.025857478010287
-1.1511466828056083,-2.3185824337786003,0.522609966387946,-8.604309501952507,45.48477442970265,-5.5641038500206035
-1.1743325071433943,-1.8637346894815738,0.43656687136842093,-8.659950540452712,46.39170375864162,-5.754506124618327
-1.19296985403821,-1.3998176518951577,0.3499673659638938,-8.717495601698895,47.183797977606645,-6.633155622208237
-1.2069680305571617,-0.9279796721190913,0.26279240994690484,-8.783827157920976,47.955112748750224,-8.239528065942784
-1.2162478272783526,-0.44842854463158904,0.17495413836769508,-8.866222438580404,48.81204601439068,-10.622989962965066
-1.2207321127246684,0.039691915512317766,0.08629191398189102,-8.972452338210054,49.87124408805694,-13.848774168620889
-1.2203351935695452,0.5384043563928872,-0.0034326094002095214,-9.110940079896263,51.25608081121388,-18.0012181913834
-1.2149511500056163,1.050965164505026,-0.09454201019917216,-9.290952261810098,53.08800514003691,-23.179210107277132
-1.204441498360566,1.581845215905395,-0.18745153281727314,-9.52274436288287,55.46384103869785,-29.47194871124362
-1.1886230462015122,2.1364836262923736,-0.28267897644610185,-9.817463849995306,58.39865891305033,-36.88747556381089
-1.1672582099385884,2.720470215422877,-0.3808536149460549,-10.186338605633415,61.6900515530329,-45.17327374037405
-1.1400535077843597,3.337370730953206,-0.48271700100238907,-10.638071343037154,64.61871846712853,-53.410053935284466
-1.1066798004748275,3.983557915624491,-0.5890977144327606,-11.17217188239,65.37171430961101,-59.21574973410121
-1.0668442213185827,4.6372750587206015,-0.7008194332566606,-11.764329379731011,60.263642126278846,-57.64868640687705
-1.0204714707313767,5.23991147998339,-0.8184627270539707,-12.340816243799782,43.883240812171906,-41.34479702608327
-0.9680723559315427,5.678743888105109,-0.9418708894919685,-12.754264214060616,13.321379121107203,-6.236789260396923
-0.9112849170504916,5.811957679316182,-1.0694135316325746,-12.816632106664585,-23.53317390196631,37.1525418732996
-0.8531653402573298,5.576625940296519,-1.1975798526992205,-12.445106687931588,-50.270875271203835,66.94435422493568
-0.7973990808543646,5.07391718758448,-1.3220309195785365,-11.77566314568223,-59.80871902681283,74.15862076694857
-0.7466599089785199,4.475829997316352,-1.4397875510353588,-11.034076938012745,-58.086622775390516,67.19927986644839
-0.7019016090053564,3.8949637695624473,-1.5501283204154863,-10.362084139348262,-52.40488496532221,55.833718032260535
-0.6629519713097319,3.370914919909225,-1.653749161808969,-9.803746959025657,-46.41700596434826,44.70868523663624
-0.6292428221106396,2.9067448602657424,-1.7517866313992256,-9.356660106659294,-41.29883812615353,35.15292271010656
-0.6001753735079822,2.4937564790042073,-1.8453532324658186,-9.005130879558228,-37.23718067451284,27.236967586468225
-0.5752378087179402,2.121384672259079,-1.935404541261401,-8.732761203693546,-34.11921425070681,20.690093111635147
-0.5540239619953494,1.780192529752011,-2.022732153298336,-8.525860272577194,-31.774879078619346,15.206905551479565
-0.5362220366978293,1.4624437389658174,-2.1079907560241082,-8.373791217062399,-30.048312860238887,10.529169866084748
-0.5215975993081712,1.1619606103634283,-2.1917286681947323,-8.268499518401551,-28.81235437711975,6.456829961483594
-0.5099779932045369,0.8738370665922308,-2.274413663378748,-8.203931218786716,-27.96606329531294,2.8403358616419867
-0.5012396225386145,0.5941764336391014,-2.356452975566615,-8.175527860170297,-27.42825138210448,-0.42959382170339927
-0.4952978582022235,0.31989391981805665,-2.438208254168318,-8.17982379838733,-27.13088588175356,-3.430406824462418
-0.49209891900404296,0.04858506100052107,-2.520006492152191,-8.214127866631955,-27.013258309987016,-6.213605006965296
-0.49161306839403773,-0.22154752209934908,-2.6021477708185103,-8.276263916701607,-27.016923987986946,-8.808338344211542
-0.4938285436150312,-0.49171676197921854,-2.6849104099855263,-8.364347300143722,-27.081226622087776,-11.223160665627969
-0.49874571123482336,-0.7625290282000963,-2.7685538829869634,-8.476578906800002,-27.139271656564123,-13.446411591046953
-0.5063710015168243,-1.0339217447657374,-2.853319672054963,-8.611043022710472,-27.1143615581662,-15.445705145540504
-0.5167102189644818,-1.3050653603473994,-2.939430102282068,-8.765500074165876,-26.91712178458151,-17.1670980174949
-0.5297608725679558,-1.5742365781932146,-3.0270851030237265,-8.937171054340826,-26.443823008165605,-18.534701158680868
-0.5455032383498879,-1.8386748082748707,-3.116456813567135,-9.122518065927634,-25.57672852157405,-19.45177623887044
-0.5638899864326367,-2.094442093490611,-3.2076819942264114,-9.317035828316339,-24.18760904075522,-19.804662547596482
-0.5848344073675428,-2.3363181838981633,-3.3008523525095748,-9.515082453792303,-22.145738839659124,-19.47106834444055
-0.6081975892065244,-2.5577755722947546,-3.396003177047498,-9.709793137236709,-19.331489725541232,-18.334085827516084
-0.633775344929472,-2.751090469550167,-3.493101108419865,-9.89313399551187,-15.655776492185197,-16.302423160874554
-0.6612862496249736,-2.9076482344720187,-3.5920324483749835,-10.056158227120614,-11.08384510250537,-13.335520637697368
-0.6903627319696938,-3.018486685497072,-3.6925940306461897,-10.189513433497588,-5.659327153655258,-9.469506332520625
-0.7205475988246645,-3.075079957033625,-3.7944891649811656,-10.284208496822794,0.47815007686284766,-4.837114293343938
-0.7512983983950007,-3.0702984562649966,-3.8973312499493935,-10.332579639756233,7.089744589411566,0.3267197517832351
-0.7820013829576506,-2.999401010370881,-4.000657046346956,-10.3293124422384,13.85470236547194,5.700107357287305
-0.8119953930613595,-2.8608539867161613,-4.10395017076934,-10.272311368665527,20.40881894802334,10.911234025709524
-0.8406039329285211,-2.656765797235928,-4.206673284455995,-10.163199028408432,26.397081965299897,15.590309857985124
-0.8671715909008804,-2.392794977582929,-4.308305274740079,-10.007295929828581,31.527338073721694,19.423270823131404
-0.8910995406767097,-2.0775215968457124,-4.4083782340383655,-9.813063221597266,35.61062027334244,22.192768565441796
-0.9118747566451668,-1.721415394112288,-4.506508866254338,-9.591135535942849,38.57849951968748,23.796632590629283
-0.9290889105862897,-1.3356303989154132,-4.602420221613766,-9.353169210036556,40.47604694156076,24.242086982946365
-0.9424452145754438,-0.9308699294998056,-4.695951913714132,-9.110748340207092,41.436564951747414,23.621466058293755
-0.9517539138704418,-0.5165042799823315,-4.787059397116203,-8.874533679624154,41.64804678458732,22.07897194511827
-0.9569189566702652,-0.10002381213645828,-4.875804733912445,-8.65374396017297,41.320801148412315,19.777616501483177
-0.9579191947916298,0.3131841993476649,-4.962342173514175,-8.45596779515814,40.66240217105881,16.872381606116093
-0.9547873527981532,0.719808221058253,-5.046901851465757,-8.287243979096978,39.86227117733215,13.491888635593005
-0.9475892705875707,1.1184309328315745,-5.129774291256727,-8.152325092741048,39.085293271193585,9.727961388492307
-0.936404961259255,1.5092838655435104,-5.211297542184137,-8.055045478856124,38.47241694358653,5.630901485517131
-0.9213121226038199,1.8940080349793758,-5.291847996972698,-7.998736464000953,38.14593789960034,1.2078702347629287
-0.9023720422540261,2.275467413975379,-5.371835361612708,-7.986657761653324,38.21761312751328,-3.577978888419982
-0.8796173681142724,2.657643545250512,-5.451701939229241,-8.022437550537523,38.798411577460776,-8.809447932003174
-0.8530409326617673,3.0456276610251196,-5.5319263147346165,-8.110532029857556,40.009231724993406,-14.619522061266771
-0.8225846560515161,3.445719978275054,-5.613031635033192,-8.256727250470224,41.99196748378908,-21.19815751144136
-0.7881274562687656,3.865639653112945,-5.695598907537894,-8.468708825584637,44.919244429027145,-28.79987151395277
-0.7494710597376362,4.314832097403216,-5.78028599579374,-8.756707540724165,48.99727851876074,-37.744812016730414
-0.706322738763604,4.804804882590823,-5.867853071200981,-9.13415566089147,54.44491552383867,-48.39027009805188
-0.6582746899376958,5.34925403782921,-5.959194627809896,-9.618058361871988,61.40027916249604,-61.0059148736337
-0.6047821495594037,5.963256829454171,-6.055375211428616,-10.228117510608325,69.62320978543984,-75.37023628382734
-0.545149581264862,6.659488927308569,-6.157656386534699,-10.981819873446598,77.67040292688144,-89.63751842238587
-0.4785546919917763,7.436192956577384,-6.267474585269165,-11.878195057670457,80.96504649828438,-97.6609570821367
-0.40419276242600244,8.245843421560227,-6.386256535845869,-12.854804628491824,68.94960198683876,-85.00528665678605
-0.32173432821040016,8.935339441428615,-6.514804582130788,-13.704857495059684,27.79090624013683,-32.61359183173928
-0.23238093379611402,9.213248503829984,-6.651853157081384,-14.030993413377077,-36.48513848718002,51.21127145643405
-0.14024844875781417,8.848397118958184,-6.792163091215155,-13.518880698812737,-83.11255197347141,110.52121380820459
-0.051764477568232325,8.01727159922347,-6.927351898203282,-12.413668560730692,-91.23928738484143,117.46670996052259
0.028408238424002377,7.104878725375055,-7.051488583810589,-11.239001461125465,-79.97930012517904,98.81644924502814
0.09945702567775293,6.3050857241232645,-7.163878598421844,-10.250836968675184,-66.17116091545329,77.42714438565055
0.16250788291898557,5.643374114968732,-7.266386968108596,-9.476565524818678,-54.817938829197516,59.77654164255403
0.2189416240686729,5.095194726676757,-7.361152623356783,-8.878800108393138,-46.31779645425571,46.15498776138217
0.26989357133544045,4.6320167621342,-7.449940624440714,-8.417250230779317,-40.102908448220965,35.637300522378276
0.31621373895678245,4.23098767765199,-7.534113126748507,-8.060877225555535,-35.586112206408814,27.334108252681123
0.3585236157333024,3.875126555587902,-7.614721899004063,-7.787536143028723,-32.32158176422222,20.585103771406533
0.3972748812891814,3.55191073794568,-7.69259726043435,-7.581685105314658,-29.99209883744276,14.92992360443203
0.4327939886686382,3.251989749571252,-7.7684141114874965,-7.4323858692703375,-28.371389555611856,10.053910100774479
0.46531388616435077,2.9682758540151335,-7.8427379701802,-7.331846768262593,-27.291430661060577,5.746494336668571
0.4949966447045021,2.6953615474045276,-7.916056437862825,-7.274381824895907,-26.61766653602062,1.8748542619914994
0.5219502601785474,2.4291848820443214,-7.988800256111785,-7.255633282275992,-26.23010423537158,-1.6306472864923158
0.5462421089989906,2.1668838396906054,-8.061356588934544,-7.271939755140916,-26.008297807653076,-4.782985458848776
0.5679109473958966,1.9068008616140746,-8.134075986485954,-7.319769609729404,-25.8194027558448,-7.540424948705893
0.5869789560120374,1.6486068340556266,-8.207273682583248,-7.395173859216463,-25.5100221161198,-9.807768874591334
0.6034650243525936,1.3935066128944285,-8.281225421175412,-7.493251547962377,-24.904316436948193,-11.441910995928856
0.6174000904815379,1.1444634485249465,-8.356157936655036,-7.607670657921665,-23.81239506087784,-12.267932219456844
0.6288447249667873,0.9063394979161681,-8.432234643234253,-7.730349980116234,-22.05321850470713,-12.111740996856065
0.637908119945949,0.6858073128690968,-8.509538143035416,-7.851467390084794,-19.49327332755943,-10.851105473671037
