th1 (rad),w1 (rad/s),th2 (rad),w2 (rad/s),a1 (rad/s^2),a2 (rad/s^2)
2.0409576736152992,1.4344726406316308,4.843890617375123,-1.39093293508205,-7.485583749855363,1.9713597670486158
2.0553024000216156,1.3596168031330773,4.829981288024302,-1.371219337411564,-7.2686867024333175,2.2843010523797678
2.0688985680529464,1.286929936108744,4.8162690946501865,-1.3483763268877662,-7.065561695608037,2.587443438757775
2.0817678674140336,1.2162743191526637,4.802785331381309,-1.3225018925001883,-6.87779036743921,2.8775803957424824
2.09393061060556,1.1474964154782716,4.789560312456307,-1.2937260885427635,-6.706268447270984,3.1525173667261863
2.105405574760343,1.0804337310055618,4.776623051570879,-1.2622009148755016,-6.551332944571063,3.4108809666116566
2.1162099120703988,1.0149204015598512,4.764001042422124,-1.228092105209385,-6.4128813668202715,3.651942368943615
2.126359116085997,0.9507915878916484,4.75172012137003,-1.1915726815199488,-6.290478263993488,3.8754612168079867
2.1358670319649136,0.8878868052517135,4.739804394554831,-1.1528180693518688,-6.18344695041337,4.0815527130771425
2.1447459000174307,0.8260523357475797,4.728276213861312,-1.1120025422210973,-6.090946057872043,4.27057798909727
2.1530064233749067,0.7651428751688594,4.717156188439101,-1.0692967623301246,-6.012031737032876,4.443056235683841
2.160657852126595,0.7050225577985306,4.7064632208158,-1.0248661999732862,-5.945706986634326,4.599596190149798
2.1677080777045803,0.6455654879321874,4.696214558816067,-0.9788702380717882,-5.890959888970117,4.740844201382953
2.174163732583902,0.5866558890424862,4.686425856435349,-0.9314617960579586,-5.846792583761215,4.867446066828472
2.180030291474327,0.528187963204874,4.67711123847477,-0.8827873353896739,-5.812242714269654,4.980020014706451
2.1853121711063754,0.4700655360621775,4.668283365120873,-0.8329871352426094,-5.786398898105187,5.079138493406841
2.1900128264669974,0.4122015470811256,4.659953493768446,-0.7821957503085409,-5.768411558124677,5.165316760937299
2.1941348419378084,0.35451743149987885,4.652131536265361,-0.7305425826991679,-5.757500226748311,5.239006598397626
2.197680016252807,0.2969424292323957,4.644826110438369,-0.6781525167151917,-5.752958228064584,5.300593778546004
2.2006494405451313,0.23941284695174989,4.638044585271217,-0.6251465789297317,-5.754155455695043,5.350398191802225
2.203043569014649,0.18187129239479946,4.6317931194819195,-0.5716425970117094,-5.760539804204834,5.388675763712669
2.204862281938597,0.12426589435275112,4.626076693511802,-0.5177558393745827,-5.7716376779714365,5.415621491030468
2.2061049408821245,0.06654951757303676,4.620899135118056,-0.463599624464278,-5.7870538919155425,5.431373081842527
2.206770436057855,0.008678978653881335,4.616263138873413,-0.4092858936458527,-5.806471190389622,5.43601481351575
2.2068572258443937,-0.049385733250014885,4.612170279936954,-0.3549257455106952,-5.829649540466248,5.429581325878206
2.2063633685118935,-0.10768222865467736,4.608621022481848,-0.30062993225191315,-5.856425300518626,5.412061151064695
2.205286546225347,-0.1662464816598636,4.605614723159329,-0.2465093207412662,-5.886710321176505,5.383399850486261
2.203624081408748,-0.22511358487162866,4.603149629951917,-0.19267532223640357,-5.920491000577239,5.34350268756992
2.2013729455600317,-0.2843184948774011,4.601222876729553,-0.13924029536070437,-5.957827286694735,5.292236815907401
2.1985297606112577,-0.3438967677443484,4.5998304737759454,-0.08631792720163035,-5.998851594045292,5.229433009475985
2.195090792933814,-0.4038852836848013,4.598967294503929,-0.03402359710687051,-6.043767578060612,5.154887007549522
2.1910519400969664,-0.4643229594654074,4.59862705853286,0.017525272968624717,-6.092848685844498,5.068360594480734
2.1864087105023122,-0.5252514463238523,4.5988023112625465,0.06820887891343205,-6.146436374935148,4.969582586261712
2.1811561960390735,-0.5867158100732038,4.599484400051681,0.11790470477604917,-6.20493786016452,4.858249954177564
2.1752890379383416,-0.648765188674849,4.600663447099442,0.16648720431782482,-6.2688232108388,4.734029383501951
2.168801386051593,-0.711453420783237,4.60232831914262,0.21382749815284433,-6.3386215743715715,4.596559644634307
2.161686851843761,-0.7748396365269528,4.6044665941241485,0.2597930945991874,-6.414916246346609,4.445455247951265
2.1539384554784915,-0.8389887989904189,4.6070645250701405,0.30424764707870006,-6.4983382390749735,4.280311964441518
2.1455485674885875,-0.9039721813811686,4.610107001540928,0.34705076672311524,-6.589557919656848,4.1007149240803225
2.1365088456747756,-0.9698677605777372,4.613577509208159,0.3880579159639185,-6.6892741935673286,3.9062501543070782
2.126810168068998,-1.0367605025134103,4.617458088367798,0.42712041750698926,-6.798200601077626,3.6965205919621233
2.116442563043864,-1.1047425085241867,4.6217292925428675,0.46408562342661047,-6.917047573261107,3.471167791378082
2.1053951379586224,-1.1739129842567977,4.626370148777133,0.4987973013403913,-7.046499966301624,3.229900753127734
2.0936560081160542,-1.244377983919814,4.631358121790537,0.5310963088716686,-7.187188865420134,2.972533500849309
2.081212228276856,-1.3162498725740153,4.636669084879254,0.5608216438801616,-7.339656536329408,2.6990332183620214
2.0680497295511158,-1.3896464379373095,4.642277301318056,0.5878119760637819,-7.504313323259992,2.409580895808358
2.0541532651717427,-1.4646895711699095,4.648155421078694,0.6119077850218655,-7.681385278197708,2.104646477234453
2.0395063694600437,-1.5415034239518866,4.654274498928912,0.63295424979421,-7.870851397627022,1.785080390050809
2.024091335220525,-1.6202119379281568,4.660604041426854,0.6508050536947181,-8.07236959597729,1.4522229848103072
2.0078892158412436,-1.7009356338879296,4.667112091963801,0.6653272835428211,-8.28519102873233,1.1080327138490278
1.9908798595023642,-1.7837875441752529,4.673765364799229,0.6764076106813114,-8.508063175328692,0.7552326997300822
1.9730419840606117,-1.8688681759285397,4.680529440906042,0.6839599376786122,-8.73912329251064,0.3974735447728253
1.9543533023013264,-1.956259408853646,4.687369040282828,0.6879346731263405,-8.975785538469697,0.0395076692987243
1.93479070821279,-2.046017264238343,4.694248387014092,0.6883297498193277,-9.214627308187488,-0.31263297070491414
1.9143305355704066,-2.138163537320218,4.701131684512285,0.6852034201122785,-9.45128311719863,-0.6514682755908522
1.8929489001972044,-2.2326763684922044,4.707983718713408,0.67868873735637,-9.680357634437723,-0.9679281203012947
1.8706221365122824,-2.3294799448365815,4.714770606086972,0.669009456153357,-9.895372959678784,-1.2512603914494926
1.8473273370639165,-2.428433674433369,4.721460700648506,0.6564968522388621,-10.088768538983665,-1.4890175158094188
1.8230430003195828,-2.529321359823206,4.728025669170894,0.6416066770807679,-10.251974559917755,-1.6671542269012998
1.7977497867213508,-2.6318411054223834,4.734441735941702,0.6249351348117549,-10.375580398413451,-1.7702709069566929
1.771431375667127,-2.735596909406518,4.740691087289819,0.6072324257421879,-10.449617690657728,-1.7820342021147308
1.7440754065730617,-2.840093086313095,4.74676341154724,0.5894120837210406,-10.463971886148242,-1.6857980643469905
1.7156744757099307,-2.9447328051745774,4.75265753238445,0.5725541030775707,-10.40892598596838,-1.4654326188749396
1.686227147658185,-3.048822065034261,4.758383073415226,0.5578997768888213,-10.275825457789075,-1.106344876668165
1.6557389270078424,-3.151580319612152,4.763962071184114,0.5468363281221397,-10.05783482082656,-0.5966453309298251
1.6242231238117208,-3.2521586678204173,4.7694304344653355,0.5408698748128414,-9.750735984288527,0.07161924105557735
1.5917015371335166,-3.349666027663303,4.774839133213464,0.5415860672233972,-9.35369905532208,0.9012791258778736
1.5582048768568835,-3.4432030182165234,4.780254993885698,0.5505988584821759,-8.86994172959324,1.8890388869720882
1.5237728466747182,-3.531902435512456,4.78576098247052,0.5694892473518968,-8.307187438550297,3.024807373688753
1.4884538223195938,-3.614974309897959,4.791455874944039,0.5997373210887843,-7.677838451193361,4.291500517357226
1.452304079220614,-3.6917526944098924,4.797453248154927,0.6426523262623566,-6.998800004783851,5.66542416370032
1.4153865522765152,-3.761740694457731,4.8038797714175505,0.6993065678993597,-6.290925059483305,7.117287795300714
1.3777691453319378,-3.824649945052564,4.810872837096544,0.7704794458523669,-5.578093673270812,8.613824870743029
1.3395226458814122,-3.8804308817852724,4.818577631555067,0.8566176945597972,-4.885990840269306,10.119911569361701
1.3007183370635595,-3.9292907901879657,4.827143808500665,0.9578168102534143,-4.240694186954295,11.600997036120592
1.26142542916168,-3.9716977320575086,4.836721976603199,1.0738267806146202,-3.667219175064774,13.025600740013944
1.221708451841105,-4.008369923808156,4.847460244409345,1.2040827880147598,-3.1881859804060286,14.367610642188653
1.1816247526030235,-4.0402517836122165,4.8595010722894925,1.3477588944366463,-2.822763508552747,15.608138039380641
1.1412222347669012,-4.068479418697744,4.872978661233859,1.5038402748304527,-2.586011741880734,16.736750375017273
1.1005374405799238,-4.094339536116552,4.888017063982163,1.6712077785806254,-2.4886896698877474,17.752000643449023
1.0595940452187582,-4.119226432815429,4.9047291417679695,1.8487277850151156,-2.5375335968581467,18.661281663631527
1.0184017808906038,-4.14460176878401,4.923216419618121,2.035340601651431,-2.735953163388254,19.4801330554067
0.9769557632027638,-4.171961300417893,4.943569825634635,2.2301419322054983,-3.0850519200570785,20.231199624363246
0.9352361501985849,-4.202811819618463,4.96587124495669,2.4324539284491307,-3.584862828826069,20.94307251964233
0.8932080320024002,-4.2386604479067245,4.990195784241182,2.641884653645554,-4.235697412647469,21.64924033027864
0.8508214275233329,-4.281017422033199,5.016614630777638,2.85837705694834,-5.039535744464086,22.387346534524216
0.8080112533030009,-4.33141277947784,5.045198401347121,3.0822505222935823,-6.001425358114989,23.198907237023914
0.7646971255082226,-4.3914270330589895,5.076020906570057,3.3142395946638215,-7.130902474104728,24.129603341562657
0.7207828551776326,-4.462736057800036,5.109163302516695,3.555535628079448,-8.44349214588494,25.230234334403956
0.6761554945996323,-4.547170979258886,5.14471865879749,3.8078379714234876,-9.962379972534213,26.558409865001092
0.6306837848070435,-4.646794778984228,5.182797038511724,4.073422070073499,-11.720370621140423,28.181053636145585
0.5842158370172011,-4.763998485195632,5.223531259212459,4.355232606434955,-13.762243211428185,30.177778400306874
0.5365758521652448,-4.901620917309914,5.267083585276809,4.657010390438024,-16.147542468526623,32.64510232655851
0.4875596429921457,-5.0630963419951796,5.313653689181189,4.983461413703608,-18.95360856078693,35.70117269680666
0.43692867957219395,-5.252632427603049,5.363488303318225,5.340473140671675,-22.277998949106227,39.48979305908526
0.38440235529616346,-5.475412417094112,5.416893034724942,5.735371071262527,-26.237775581961078,44.18025414719631
0.32964823112522235,-5.737790172913723,5.474246745437568,6.1771736127344905,-30.958906945588286,49.95363610706637
0.2722703293960851,-6.047379242369606,5.536018481564913,6.6767099738051545,-36.53863935607204,56.951809111025355
0.21179653697238904,-6.412765635930326,5.602785581302964,7.2462280649154085,-42.93900456870955,65.13092514471131
0.14766888061308578,-6.842155681617421,5.675247861952118,7.897537316362522,-49.715995579638985,73.88612229693344
0.07924732379691156,-7.339315637413811,5.754223235115743,8.636398539331855,-55.400520588401555,81.18984770970323
0.005854167422773449,-7.893320843297826,5.840587220509062,9.448297016428889,-56.351206161446314,81.98983704412267
-0.07307904101020482,-8.45683290491229,5.9350701906733505,10.268195386870115,-45.74010212122357,66.78700242473685
-0.15764737005932772,-8.914233926124526,6.0377521445420514,10.936065411117484,-16.592826208617375,25.87691821762489
-0.24678970932057298,-9.0801621882107,6.147112798653226,11.194834593293733,26.050209063467307,-33.67122929054921
-0.33759133120268,-8.819660097576026,6.2590611445861635,10.85812230038824,59.757317820160466,-80.5950735889562
-0.42578793217844024,-8.222086919374421,6.3676423675900455,10.052171564498678,70.22708517441696,-95.1251574720114
-0.5080088013721844,-7.519816067630251,6.468164083235032,9.100919989778564,65.070065808283,-87.98833795528687
-0.5832069620484869,-6.869115409547421,6.559173283132818,8.221036610225696,55.32609414602937,-74.53485087238109
-0.6518981161439611,-6.315854468087127,6.641383649235075,7.475688101501885,46.011704049791696,-61.686000577407206
-0.7150566608248323,-5.85573742758921,6.716140530250094,6.858828095727813,38.36403992749787,-51.122913419114546
-0.7736140351007245,-5.472097028314231,6.784728811207372,6.347598961536668,32.351813279266416,-42.78214077410964
-0.8283350053838667,-5.148578895521567,6.848204800822739,5.919777553795571,27.66427679948324,-36.22196767224076
-0.8798207943390824,-4.871936127526735,6.9074025763606945,5.5575578770731635,23.9953089434439,-31.011316479750143
-0.9285401556143498,-4.6319830380922955,6.9629781551314265,5.247444712275662,21.102415027910798,-26.80881781240327
-0.9748599859952727,-4.420958887813187,7.015452602254183,4.97935653415163,18.80528732650034,-23.3595813643546
-1.0190695748734047,-4.232906014548184,7.065246167595699,4.745760720508084,16.972240490841106,-20.47596659686671
-1.0613986350188864,-4.063183609639773,7.11270377480078,4.541001054539417,15.507134085276926,-18.01947605419892
-1.1020304711152842,-3.908112268787004,7.158113785346174,4.3608062939974275,14.339221172672547,-15.886994903074411
-1.1411115938031542,-3.7647200570602783,7.201721848286148,4.201936344966684,13.41573401651118,-14.001060052194982
-1.178758794373757,-3.6305627168951666,7.243741211735815,4.061925744444734,12.696525391162835,-12.303204661187205
-1.2150644215427087,-3.5035974629835382,7.284360469180262,3.938893697832862,12.150142376268319,-10.74951631744497
-1.250100396172544,-3.382096039220855,7.323749406158591,3.8313985346584123,11.750871408059378,-9.307758216685784
-1.2839213565647527,-3.2645873251402615,7.362063391505175,3.7383209524915544,11.47644577765507,-7.955577045974877
-1.3165672298161553,-3.149822867363711,7.399446601030091,3.6587651820318055,11.30623135918633,-6.679432830623329
-1.3480654584897924,-3.0367605537718476,7.436034252850408,3.5919708537255723,11.219807378109024,-5.473942897424028
-1.3784330640275109,-2.9245624799907572,7.471953961387664,3.537231424751332,11.195941469445344,-4.341351667391343
-1.4076786888274184,-2.8126030652963037,7.507326275635177,3.4938179080774185,11.212020978452966,-3.290842410113634
-1.4358047194803814,-2.700482855511774,7.542264454715951,3.460909483976282,11.244036551002074,-2.337423498346784
-1.462809548035499,-2.588042490001753,7.576873549555714,3.4375352489928144,11.267205022387762,-1.5001799576914432
-1.4886899729355165,-2.4753704397778753,7.6112489020456415,3.4225334494159,11.257252794849837,-0.7998057249567346
-1.5134436773332953,-2.362797911829377,7.6454742365398,3.4145353921663326,11.192256488928122,-0.2555278816552909
-1.5370716564515892,-2.2508753469400955,7.6796195904614635,3.4119801133497796,11.054776576873264,0.11822892270900236
-1.55958040992099,-2.1403275811713627,7.713739391594961,3.4131624025768694,10.833872464947714,0.314881910943192
-1.5809836857327035,-2.0319888565218855,7.7478710156207296,3.416311221686301,10.526521916590669,0.3377919761456909
-1.6013035742979225,-1.9267236373559788,7.782034127837592,3.419689141447758,10.13803921506606,0.20089594036461955
-1.6205708106714822,-1.8253432452053182,7.81623101925207,3.4216981008514042,9.68130194941719,-0.07235456790318262
-1.6388242431235354,-1.7285302257111463,7.8504480002605845,3.4209745551723723,9.174895898150972,-0.45155431410633945
-1.656109545380647,-1.6367812667296366,7.884657745812309,3.416459012031309,8.640563749754959,-0.902838219364867
-1.6724773580479433,-1.5503756292320872,7.918822335932622,3.4074306298376604,8.100493161096441,-1.392549766872631
-1.687981114340264,-1.4693706976211227,7.952896642230998,3.3935051321689342,7.5749569288488345,-1.8903769634448073
-1.7026748213164753,-1.3936211283326343,7.986831693552688,3.374601362534486,7.080653092008515,-2.3714919073726692
-1.7166110325998016,-1.3228145974125491,8.020577707178033,3.3508864434607597,6.629867312530866,-2.817548174972069
-1.729839178573927,-1.2565159242872406,8.05408657161264,3.322710961711039,6.23037982711686,-3.216664616085282
-1.7424043378167995,-1.194212126016072,8.08731368122975,3.290544315550186,5.885917110788749,-3.5626854224960116
-1.7543464590769602,-1.1353529549081847,8.120219124385251,3.254917461325226,5.596912799070619,-3.854046656159742
-1.765699988626042,-1.0793838269174785,8.152768298998504,3.2163769947636283,5.361371015160574,-4.092532767808585
-1.7764938268952168,-1.0257701167658728,8.184932068946141,3.1754516670855426,5.175685285113082,-4.282119551826337
-1.7867515280628756,-0.974013263914742,8.216686585616996,3.1326304715672793,5.035330177046682,-4.428010324842961
-1.7964916607020232,-0.9236599621442751,8.248012890332669,3.08835036831885,4.935394679019073,-4.535901077406309
-1.805728260323466,-0.8743060153540845,8.278896394015858,3.042991357544787,4.870960803024168,-4.611464302337466
-1.8144713204770067,-0.8255964073238428,8.309326307591306,2.996876714521412,4.8373493822551925,-4.660017448666355
-1.8227272845502451,-0.7772229135012908,8.339295074736519,2.9502765400347486,4.830261779949965,-4.6863341693211815
-1.830499513685258,-0.7289202957017912,8.368797840136867,2.903413198341537,4.845845790218533,-4.6945582902993035
-1.837788716642276,-0.6804618377996059,8.397831972120283,2.856467615438544,4.880709990558877,-4.688186745855956
-1.844593335020272,-0.6316547378940172,8.426396648274668,2.8095857479799844,4.931905592727015,-4.6700953694935965
-1.850909882399212,-0.582335681966747,8.454492505754468,2.7628847942850485,4.996889780946579,-4.642588634260529
-1.8567332392188796,-0.5323667841572812,8.482121353697318,2.7164589079424433,5.073480240400374,-4.607460428532779
-1.8620569070604525,-0.4816319817532775,8.509285942776742,2.6703843036571153,5.159807238676945,-4.566057556379759
-1.8668732268779853,-0.43003390936650804,8.535989785813314,2.6247237280933176,5.254267172896257,-4.5193409832272895
-1.8711735659716504,-0.37749123763754544,8.562237023094246,2.5795303182610447,5.355479785193759,-4.467942141266628
-1.874948478348026,-0.3239364397856078,8.588032326276856,2.5348508968483783,5.462250108690497,-4.412213114469474
-1.878187842745882,-0.26931393869870285,8.61338083524534,2.4907287657036834,5.573535480460503,-4.352270460369368
-1.8808809821328691,-0.2135785838940978,8.638288122902377,2.4472060610999895,5.688417521696333,-4.28803297079924
-1.8830167679718102,-0.1566944086771345,8.662760183513377,2.4043257313919972,5.806078742874261,-4.219253958263181
-1.8845837120585816,-0.09863362124839188,8.686803440827298,2.3621331918093653,5.925783314226205,-4.145548772792811
-1.8855700482710656,-0.03937578810612983,8.710424772745391,2.320677704081437,6.046861501205829,-4.066418270962556
-1.8859638061521269,0.02109282690592846,8.733631549786205,2.2800135213718113,6.168697268581797,-3.9812689175902354
-1.8857528778830677,0.08277979959174643,8.756431684999923,2.240200832195909,6.290718584290421,-3.8894301296215423
-1.8849250798871502,0.14568698543465064,8.778833693321882,2.2013065308996933,6.412389992083227,-3.790169388407565
-1.8834682100328037,0.20981088535548292,8.800846758630879,2.1634048370156176,6.53320706248177,-3.6827055616793865
-1.881370101179249,0.27514295598030064,8.822480807001035,2.1265777813988236,6.65269237027805,-3.5662207961362418
-1.878618671619446,0.34166987968308116,8.843746584815024,2.0909155734374614,6.7703926817153475,-3.439871268981299
-1.8752019728226152,0.40937380650023464,8.864655740549399,2.0565168607476485,6.8858770648615035,-3.3027970235105775
-1.871108234757613,0.4782325771488497,8.885220909156875,2.0234888905125428,6.998735662669904,-3.1541310605066255
