th1 (rad),w1 (rad/s),th2 (rad),w2 (rad/s)
3.311345298566101,-2.0916506734349656,2.6344620089560964,-0.700340294027992
3.290428791831751,-2.058770523583301,2.6274586060158165,-0.7461635247548909
3.269841086595918,-2.027538475015674,2.6199969707682675,-0.7928876389877911
3.249565701845761,-1.9980110043087769,2.61206809437839,-0.8403530833011659
3.2295855918026732,-1.9702432788032982,2.603664563545378,-0.8884088186040394
3.20988315901464,-1.9442888279470818,2.5947804753593378,-0.936912355904977
3.1904402707351696,-1.9201993209084525,2.585411351800288,-0.9857296556259934
3.171238277526085,-1.8980244456692126,2.5755540552440284,-1.0347348948816633
3.152258033069393,-1.8778118817558591,2.5652067062952115,-1.083810111464295
3.133479914251834,-1.8596073564085427,2.5543686051805685,-1.1328447366576062
3.1148838406877486,-1.8434547723420176,2.5430401578139925,-1.1817350313962545
3.0964492929643286,-1.829396394295916,2.53122280750003,-1.230383441723527
3.0781553290213695,-1.817473081240977,2.5189189730827946,-1.2786978900564934
3.0599805982089596,-1.8077245513163278,2.5061319941822298,-1.3265910185674892
3.041903352695796,-1.8001896672199513,2.492866083996555,-1.3739794001754724
3.0239014560235966,-1.7949067307559479,2.4791262899948,-1.4207827313606656
3.0059523887160373,-1.7919137764583624,2.4649184626811933,-1.4669230194170388
2.9880332509514536,-1.7912488555724473,2.450249232487023,-1.5123237749732468
2.970120762395729,-1.7929503031038827,2.4351259947372905,-1.5569092187598277
2.95219125936469,-1.7970569820830926,2.4195569025496924,-1.6006035097751885
2.934220689543859,-1.8036085005884495,2.4035508674519406,-1.6433300002816875
2.9161846045379747,-1.8126453983953685,2.3871175674491236,-1.6850105215042224
2.898058150554021,-1.8242093013460694,2.3702674622340814,-1.7255647025496648
2.8798160575405602,-1.8383430426543865,2.3530118152085846,-1.7649093239461675
2.8614326271140165,-1.8550907513655497,2.335362721969123,-1.8029577063374007
2.842881719600361,-1.8744979090810003,2.3173331449057493,-1.8396191342725572
2.8241367405095508,-1.896611376834176,2.2989369535630235,-1.8747983147196716
2.805170626741209,-1.9214793946663715,2.2801889704158267,-1.9083948699079563
2.7859558327945453,-1.9491515570025464,2.261105021716747,-1.9403028643867901
2.76646431722452,-1.9796787673624316,2.2417019930728794,-1.970410366791068
2.7466675295508955,-2.0131131762547207,2.221997889404969,-1.9985990477475764
2.7265363977883483,-2.049508106276602,2.202011898927493,-2.0247438166766285
2.706041316725582,-2.0889179684528956,2.1817644607607267,-2.048712501981153
2.685152137041053,-2.1313981736612084,2.161277335740915,-2.070365581331639
2.663838155304441,-2.177005042547374,2.140573679927599,-2.0895559715308214
2.6420681048789674,-2.2257957165621103,2.1196781202122907,-2.106128890885711
2.619810147713346,-2.277828071538911,2.0986168313034335,-2.119921811272323
2.5970318669979573,-2.333160633439754,2.0774176131907103,-2.130764522344394
2.5737002606635597,-2.391852493324168,2.0561099679672665,-2.138479336868798
2.549781735730318,-2.4539632149888,2.0347251745985786,-2.1428814743065283
2.52524210358043,-2.519552723736116,2.0132963598555134,-2.143779669943459
2.500046576343069,-2.588681157914739,1.9918585631560788,-2.1409770696871098
2.4741597647639217,-2.661408655651716,1.9704487924592078,-2.134272486827271
2.4475456782074048,-2.7377950368306014,1.949106067590935,-2.123462117552141
2.420167727839099,-2.8178993239316057,1.9278714464154136,-2.1083418379921324
2.391988734599783,-2.9017790237013044,1.9067880280354923,-2.0887102384566356
2.3629709443627696,-2.989489063399937,1.885900925650926,-2.0643725920014364
2.33307605372877,-3.081080239035417,1.8652571997309118,-2.035146006348755
2.3022652513384156,-3.176596986902713,1.8449057396674242,-2.000866072281374
2.2704992814693887,-3.2760742324319994,1.8248970789446104,-1.9613953993118334
2.237738539145069,-3.379533000974506,1.805283124951492,-1.9166345208398947
2.203943209135324,-3.486974394398914,1.786116779743093,-1.8665357537322584
2.169073465191335,-3.5983714489156617,1.7674514222057705,-1.8111207040039607
2.133089750702178,-3.713658302492696,1.749340215165731,-1.7505022052806656
2.0959531676772514,-3.832716032771695,1.7318351931129243,-1.684911530281393
2.0576260073495343,-3.9553545110251482,1.7149860778101105,-1.61473167651347
2.018072462239283,-4.081289707723472,1.6988387610449758,-1.540537313763048
1.9772595651620481,-4.210116161442914,1.6834333879073453,-1.4631414710249615
1.935158403547619,-4.341274896349319,1.6688019731970958,-1.3836480693846593
1.8917456545841258,-4.474018077841744,1.654965492503249,-1.3035077810328977
1.8470054738057085,-4.607373254136952,1.6419304146929201,-1.224572240716065
1.8009317412643389,-4.740112180467853,1.6296846922857595,-1.149138318008687
1.7535306194596603,-4.870731779373373,1.6181933091056726,-1.0799702748570024
1.7048233016659264,-4.9974571727264285,1.6073936063571026,-1.0202840807462465
1.654848729938662,-5.118277797031191,1.5971907655496402,-0.9736766520099063
1.60366595196835,-5.231025765621044,1.587453999029541,-0.9439857534970791
1.5513556943121396,-5.333499298352405,1.5780141414945703,-0.9350761062015323
1.4980207013286155,-5.423622809197829,1.568663380432555,-0.9505644858500544
1.4437844732366372,-5.499621279788724,1.5591577355740545,-0.9935180928517953
1.38878826043875,-5.56017504963118,1.5492225546455365,-1.0661784954856768
1.3331865099424383,-5.604518664003011,1.5385607696906798,-1.1697681760079788
1.277141323302408,-5.632457911451417,1.5268630879306,-1.3044219840173734
1.2208167441878939,-5.644300360667112,1.5138188680904263,-1.46925465624265
1.1643737405812227,-5.640718069892038,1.4991263215279997,-1.662540335525934
1.1079665598823023,-5.622576760871544,1.4825009181727404,-1.8819555040084073
1.0517407922735869,-5.590768287188342,1.4636813631326564,-2.124831293023688
0.9958331094017034,-5.546074382234912,1.4424330502024194,-2.388372819225134
0.9403723655793543,-5.489075699305975,1.4185493220101681,-2.6698231588539763
0.8854816085862945,-5.420107371165046,1.3918510904216284,-2.9665684910712287
0.831280534874644,-5.339254161441037,1.3621854055109162,-3.2761934606490795
0.7778879932602336,-5.246375087998576,1.3294234709044255,-3.596501085049106
0.7254242423802478,-5.141147740538756,1.2934584600539345,-3.9255113993904756
0.6740127649748603,-5.023124633526929,1.2542033460600297,-4.261449964726922
0.623781518639591,-4.891796534863759,1.2115888464127604,-4.602733277163485
0.5748635532909534,-4.746660131079458,1.1655615136411255,-4.947954065099402
0.5273969519801588,-4.587289469549041,1.1160819729901315,-5.295865808719988
0.4815240572846684,-4.413412485577334,1.0631233149029315,-5.645362497031225
0.43738993242889507,-4.224995827564614,1.0066696899326193,-5.995446393836843
0.3951399741532489,-4.022343389974013,0.9467152259942508,-6.345173112824201
0.35491654025350877,-3.806216593229287,0.8832634948660089,-6.693559395849228
0.3168543743212159,-3.5779873582299344,0.8163279009075166,-7.039434759874123
0.28107450073891654,-3.339837096312278,0.7459335533087754,-7.381214528588659
0.24767612977579376,-3.09501470266661,0.6721214080228888,-7.716571316990696
0.21672598274912766,-2.848158839697452,0.5949556948529818,-8.041990710986175
0.18824439435215315,-2.6056662555387975,0.51453578774312,-8.352225829063475
0.16218773179676518,-2.3760363010478973,0.4310135294524853,-8.639731300454303
0.1384273687862862,-2.1700323316284544,0.34461621644794227,-8.89427446879735
0.11672704547000165,-2.000386141900246,0.2556734717599688,-9.103076002107489
0.0967231840509992,-1.8807054777064252,0.1646427117388939,-9.251929280519624
0.07791612927393494,-1.8233843707713053,0.07212341893369764,-9.327580917217258
0.05968228556622189,-1.8368106194756537,-0.02115239023847494,-9.321024271701345
0.04131417937146535,-1.9228755792716106,-0.1143626329554884,-9.230443273541056
0.022085423578749246,-2.0761019076496914,-0.20666706569089896,-9.062153964005955
0.0013244045022523313,-2.2850161147076955,-0.2972886053309585,-8.828798534505282
-0.021525756644824624,-2.535069161533101,-0.38557659067601135,-8.545743653237901
-0.046876448260155634,-2.8116424069656465,-0.4710340272083904,-8.227556640728126
-0.0749928723298121,-3.1020458465486827,-0.5533095936156717,-7.8858792553484
-0.10601333079529893,-3.3962987719891835,-0.6321683861691557,-7.528858639344287
-0.13997631851519077,-3.6870649125150203,-0.7074569725625985,-7.16158308267265
-0.17684696764034097,-3.969208103720949,-0.779072803389325,-6.7869017027511
-0.21653904867755047,-4.239281230081392,-0.8469418204168361,-6.406237519305342
-0.2589318609783644,-4.495089717117586,-0.9110041956098895,-6.020233943512148
-0.30388275814954024,-4.735363737053738,-0.971206535045011,-5.629209682899832
-0.3512363955200776,-4.959525716683819,-1.0274986318740094,-5.233452208353345
-0.40083165268691584,-5.16752624683072,-1.0798331539575428,-4.833392500269525
-0.452506915155223,-5.359722640193618,-1.128167078960238,-4.4296998242870735
-0.5061041415571592,-5.536779896323322,-1.1724640772031087,-4.023327523374117
-0.5614719405203924,-5.699579392312566,-1.2126973524368498,-3.6155339854147224
-0.6184677344435181,-5.849124842090212,-1.248852692290997,-3.2078981150691126
-0.6769589828644202,-5.986437818072715,-1.2809316734416882,-2.8023454763500277
-0.7368233610451473,-6.112436804867513,-1.3089551282051886,-2.4011989537601424
-0.7979477290938225,-6.227795124971492,-1.33296711774279,-2.007265139201104
-0.8602256803435374,-6.332775399989608,-1.353039769134801,-1.6239629547769368
-0.9235534343434335,-6.427043477842702,-1.3692793986825704,-1.2554915852122197
-0.9878238691218605,-6.5094758068219924,-1.3818343145346925,-0.9070168093430012
-1.0529186271900803,-6.577994177979412,-1.3909044826281225,-0.584824218927096
-1.1186985689698745,-6.629491524157155,-1.3967527248173934,-0.2963438175221562
-1.184993484211446,-6.6599451577606965,-1.399716162992615,-0.04990377287495598
-1.251592935789053,-6.664826606885352,-1.4002152007213644,0.1459447144998844
-1.3182412018579064,-6.6398691692533465,-1.3987557535763655,0.28361517279145865
-1.3846398935504398,-6.582109592379778,-1.395919601848451,0.3580547894620679
-1.4504609894742375,-6.490907562903536,-1.3923390539538303,0.3682506012948866
-1.5153700651032729,-6.368507224298885,-1.3886565479408814,0.31802650284652556
-1.5790551373462618,-6.21981729304942,-1.385476282912416,0.2156526969972865
-1.641253310276756,-6.0514566343838245,-1.3833197559424433,0.07233732256199754
-1.7017678766205941,-5.87048127234553,-1.3825963827168233,-0.09978013334136726
-1.7604726893440494,-5.683291323574059,-1.383594184050237,-0.2893832046956222
-1.81730560257979,-5.495002850255716,-1.3864880160971933,-0.4870390577187147
-1.8722556310823473,-5.309287040537625,-1.3913584066743805,-0.6855435444500653
-1.9253485014877236,-5.128517962763565,-1.3982138421188812,-0.8797763472286214
-1.9766336811153593,-4.9540532232415195,-1.4070116055911674,-1.0663267485677745
-2.0261742133477747,-4.7865273500296635,-1.4176748730768451,-1.2430744813777814
-2.074039486848071,-4.626099957369846,-1.4301056178906228,-1.4088196801364852
-2.12030048642177,-4.472642712492351,-1.4441938146919877,-1.5629928037325815
-2.1650269135466935,-4.325869912798354,-1.4598237427293135,-1.7054426587927676
-2.2082856126746773,-4.1854245773114584,-1.4768781693172413,-1.8362882665623044
-2.250139858447792,-4.050932305875096,-1.4952410519828643,-1.9558183834388796
-2.290649181506543,-3.9220330110011,-1.514799235817253,-2.064424734872653
-2.329869511616554,-3.7983980368028707,-1.5354434831659796,-2.1625583006507085
-2.3678534919845826,-3.6797379366596674,-1.5570690661724866,-2.250701003749401
-2.4046508713511794,-3.565804475892847,-1.5795760762099806,-2.3293475260137586
-2.4403089161101077,-3.456389213170681,-1.6028695514701181,-2.398993701310623
-2.4748728082418143,-3.3513201849999055,-1.6268594884832244,-2.4601291414035433
-2.5083860100918134,-3.25045766368533,-1.6514607798972598,-2.513232567325452
-2.5408905867286666,-3.153689594596403,-1.6765931055705143,-2.558768863815546
-2.5724274826746307,-3.060927081041713,-1.7021807942086697,-2.597187232504447
-2.603036753485048,-2.9721001313749746,-1.7281526665337141,-2.628920052177488
-2.632757754798798,-2.8871537841759474,-1.754441867055489,-2.654382203778075
-2.6616292926405576,-2.8060446643583057,-1.7809856890932698,-2.6739707123379604
-2.6896897392841406,-2.728737983373248,-1.8077253962166495,-2.688064616801256
-2.716977119117873,-2.6552049721919944,-1.8346060423846622,-2.6970250144023113
-2.743529168839793,-2.585420721197632,-1.8615762925286854,-2.7011952472272993
-2.769383376051769,-2.5193623930716353,-1.8885882450009583,-2.700901210334325
-2.7945769999824854,-2.457007770981927,-1.9155972571043016,-2.6964517669209407
-2.8191470776923047,-2.398334103388739,-1.942561774773511,-2.6881392588394775
-2.843130418726192,-2.3433172075947724,-1.969443167361906,-2.676240101758175
-2.8665635908021394,-2.2919307961096265,-1.9962055683794877,-2.6610154543823037
-2.8894828987632355,-2.244145992517339,-2.0228157229233106,-2.6427119509502965
-2.9119243586884087,-2.1999310065125206,-2.0492428424328137,-2.6215624860313707
-2.933923668753534,-2.1592509408831146,-2.0754584672931276,-2.5977870406441723
-2.955516178162365,-2.1220677063116495,-2.1014363376995693,-2.5715935389631492
-2.976736855225482,-2.0883400228361007,-2.1271522730892007,-2.5431787253923943
-2.997620255453843,-2.058023489586557,-2.1525840603431248,-2.5127290525415074
-3.0182004903497086,-2.0310707069530305,-2.17771135086854,-2.4804215715906746
-3.038511197419239,-2.007431437622712,-2.202515566584447,-2.446424817629319
-3.058585511795466,-1.9870527949484937,-2.2269798147607403,-2.4108996837378975
-3.078456039744951,-1.9698794488843498,-2.251088811598119,-2.374000278800111
-3.0981548342337946,-1.9558538412667401,-2.27482881438612,-2.3358747652305065
-3.117713372646462,-1.9449164035611384,-2.298187562038425,-2.2966661739323246
-3.1371625366820735,-1.9370057713598685,-2.3211542237777483,-2.2565131948200845
-3.156532594395672,-1.9320589909445378,-2.3437193557259492,-2.215550942114612
-3.1758531843051174,-1.930011714146034,-2.3658748651470956,-2.1739116943157
-3.195153301446578,-1.9307983785776912,-2.3876139820902527,-2.1317256092574848
-3.2144612852323546,-1.9343523711092108,-2.4089312381828276,-2.089121414940267
-3.2338048089434466,-1.9406061732112028,-2.4298224523322305,-2.0462270769050246
-3.2532108706755585,-1.9494914875470586,-2.4502847231012805,-2.0031704427776282
-3.272705785551029,-1.9609393459270446,-2.470316427529057,-1.9600798642728585
-3.2923151790102994,-1.9748801994677823,-2.4899172261717855,-1.9170847964374436
-3.312063981004977,-1.9912439925092726,-2.50908807413616,-1.8743163732597066
-3.3319764209300695,-2.0099602225141826,-2.527831237868757,-1.831907958022921
-3.3520760231552114,-2.0309579887859788,-2.546150317448986,-1.7899956659796423
-3.372385603043071,-2.05416603336356,-2.5640502741087827,-1.7487188561304747
-3.3929272633767065,-2.0795127778458546,-2.5815374626700875,-1.7082205881619161
-3.413722391155165,-2.106926360133766,-2.5986196685517067,-1.6686480399939156
-3.434791654756503,-2.136334675112286,-2.615306148951646,-1.6301528809658155
-3.456155001507626,-2.1676654230988732,-2.631607677761304,-1.592891595500439
-3.4778316557386146,-2.2008461694273214,-2.6475365937163087,-1.5570257521708812
-3.4998401174328877,-2.2358044177999874,-2.6631068512380174,-1.5227222134793408
-3.5221981616108877,-2.2724676990175565,-2.678334073372811,-1.490153282350107
-3.5449228386010634,-2.310763675390309,-2.693235606196312,-1.4594967823261373
-3.5680304753549663,-2.3506202595694523,-2.707830574019573,-1.4309360697033389
-3.591536677950661,-2.3919657447488922,-2.7221399347166066,-1.404659977277006
-3.61545633539815,-2.4347289412299253,-2.7361865344893768,-1.3808626909255879
-3.6398036248104493,-2.4788393122806234,-2.7499951613986324,-1.3597435618121805
-3.6645920179332556,-2.5242271001357506,-2.7635925970167543,-1.3415068584224559
-3.689834288934613,-2.5708234309556866,-2.777007665600979,-1.3263614638492327
-3.71554252324417,-2.6185603856787845,-2.7902712802394714,-1.3145205245487201
-3.741728127100958,-2.667371022040725,-2.8034164854849584,-1.3062010571114342
-3.768401837321365,-2.717189331666087,-2.8164784960560727,-1.3016235193110524
-3.7955737306380257,-2.7679501151155326,-2.8294947312491834,-1.3010113507445757
-3.823253231789181,-2.81958875713195,-2.842504844756629,-1.3045904867204832
-3.8514491193605003,-2.872040884085786,-2.8555507496238337,-1.312588846692444
-3.880169528201358,-2.925241885769708,-2.8686766380907582,-1.325235795522488
-3.909421947059055,-2.9791262842161,-2.8819289960459833,-1.3427615722803412
-3.939213209901216,-3.0336269330783576,-2.895356611768787,-1.3653966772763557
-3.9695494792319996,-3.088674032296862,-2.9090105785415505,-1.3933712037511827
-4.0004362195549685,-3.1441939442378537,-2.9229442905790624,-1.426914096303191
-4.031878158997347,-3.2001077992389684,-2.9372134315420944,-1.4662523139460206
-4.063879236989736,-3.2563298805341554,-2.9518759546815545,-1.5116098718945643
-4.096442535795078,-3.3127657809101443,-2.9669920534005003,-1.563206733035439
-4.12957019360418,-3.369310326250808,-2.9826241207308546,-1.6212575178203545
-4.163263296866688,-3.4258452644783994,-2.998836695909058,-1.6859700003165654
-4.1975217495114725,-3.4822367224642288,-3.015696395912224,-1.7575433586651492
-4.232344116736114,-3.5383324384522976,-3.0332718294988754,-1.83616615056369
-4.267727441120638,-3.593958783638894,-3.0516334910045124,-1.9220139889562502
-4.303667028957027,-3.6489175940112224,-3.070853630894075,-2.0152469002529605
-4.340156204897139,-3.702982842591913,-3.0910060998966045,-2.116006357501984
-4.377186033323058,-3.7558971930525114,-3.1121661634716244,-2.2244119943877796
-4.414745005253583,-3.8073684883695966,-3.134410283415502,-2.340558023100748
-4.4528186901372795,-3.857066242817545,-3.1578158636465097,-2.4645094003301358
-4.491389352565455,-3.9046182219845855,-3.182460957649811,-2.5962978110913273
-4.530435534785301,-3.9496072133203737,-3.2084239357607243,-2.7359175698714946
-4.569931606918505,-3.9915681083672223,-3.235783111459439,-2.8833215725013366
-4.609847288002177,-4.029985436365387,-3.2646163271844526,-3.0384174697734503
-4.650147142365831,-4.06429150605206,-3.2950005018821873,-3.2010642742905526
-4.6907900574263515,-4.093865326473939,-3.327011144625093,-3.3710696540506513
-4.731728710691091,-4.118032486349209,-3.3607218411655992,-3.548188208067868
-4.772909035554584,-4.136066172374058,-3.396203723246278,-3.7321210585644904
-4.814269697278324,-4.147189496952361,-3.4335249338319227,-3.9225171281245235
-4.855741592247848,-4.1505792820102085,-3.472750105113168,-4.118976495430143
-4.89724738506795,-4.14537140473837,-3.5139398700674693,-4.321056236330799
-4.938701099115334,-4.130667750543388,-3.5571504324307774,-4.528279154579005
-4.980007776620767,-4.105544736248384,-3.6024332239765675,-4.74014578558351
-5.021063223983251,-4.0690632621144545,-3.649834681832403,-4.956150014841885
-5.061753856604396,-4.020279826060825,-3.6993961819808217,-5.175798589578655
-5.101956654865004,-3.958258391895973,-3.7511541678766083,-5.398634718635367
-5.141539238783964,-3.882082453488612,-3.805140515062962,-5.62426585499308
-5.18036006331885,-3.790866591347959,-3.8613831736128925,-5.852395642330474
-5.21826872923233,-3.683766695696211,-3.919907130036197,-6.082859886946574
-5.255106396189292,-3.559987957187265,-3.980735728905663,-6.315666291542205
-5.290706275761164,-3.418789740324739,-4.043892391821085,-6.551037550832314
-5.324894173164411,-3.2594866100511615,-4.109402767329408,-6.789457232733745
-5.357489039264923,-3.0814451635419013,-4.177297339656746,-7.031717582478462
-5.388303490900342,-2.884077066276259,-4.24761451548153,-7.278967839169083
-5.417144261563105,-2.666830045629958,-4.3204041938732205,-7.532760543619324
-5.443812562019405,-2.4291809898161274,-4.395731799309414,-7.795091065342904
-5.468104371917566,-2.170639522998375,-4.4736827099628425,-8.068421103645608
