th1 (rad),w1 (rad/s),th2 (rad),w2 (rad/s)
2.6027261373398667,2.1994674265751843,2.1743683938354055,-2.8976159257401357
2.6247208116056187,2.1309493579070202,2.1453922345780043,-2.895878700623264
2.6460303051846887,2.0640554845934465,2.116433447571772,-2.8978437320787327
2.666670860030623,1.9988029274697432,2.0874550102509843,-2.903777616063234
2.6866588893053205,1.9351149711376077,2.058417234090352,-2.913817661853936
2.7060100390166966,1.8728431862168418,2.0292790574718125,-2.928005729455818
2.724738470878865,1.811786641867261,1.9999990001772543,-2.946317730578861
2.7428563372975376,1.75170753766621,1.9705358228714658,-2.9686878776112113
2.7603734126741997,1.6923432664985025,1.9408489440953536,-2.9950277345295997
2.7772968453391846,1.6334152819896433,1.9108986667500576,-3.025240634240184
2.793630998159081,1.5746352894892708,1.8806462604076557,-3.059232228154122
2.809377351053974,1.51570929674789,1.8500539381261145,-3.096917951851765
2.824534444021453,1.4563400118415382,1.8190847586075969,-3.138228114853394
2.839097844139868,1.396228001096503,1.7877024774590629,-3.1831112090453497
2.853060124150833,1.3350719411423668,1.7558713653686093,-3.231535910949243
2.8664108435622566,1.272568227950119,1.7235560062591169,-3.2834921434438997
2.8791365258417576,1.2084101462845773,1.6907210848246779,-3.338991468848776
2.8912206273046035,1.1422867562906327,1.6573311701361901,-3.398067008340991
2.90264349486751,1.073881619086767,1.6233505000527801,-3.460773020883373
2.9133823110583776,1.0028714587535528,1.5887427698439465,-3.5271842255959474
2.923411025645913,0.9289248423915469,1.553470927587987,-3.5973949120570317
2.9327002740698287,0.8517009515705369,1.5174969784674166,-3.671517850845591
2.941217283585534,0.7708485163555803,1.4807817999589608,-3.749682989582048
2.9489257687490897,0.6860049862959476,1.4432849700631403,-3.8320358960503698
2.9557858186120494,0.5967960206403828,1.4049646111026366,-3.918735888353844
2.961753778818453,0.5028353920791166,1.365777252219098,-4.0099537715235805
2.9667821327392443,0.4037254140431802,1.3256777145038623,-4.105869080006533
2.970819386879676,0.2990580204857879,1.2846190237037969,-4.2066667058737455
2.973809967084534,0.18841664840130226,1.2425523566450594,-4.312532773762116
2.975694133568547,0.0713790960119787,1.1994270289074382,-4.423649606441523
2.976407924528667,-0.05247844808802611,1.155190532843023,-4.540189611174035
2.9758831400477868,-0.18357598996286573,1.1097886367312826,-4.662307909321752
2.974047380148158,-0.32232270141121266,1.063165557638065,-4.790133533716279
2.970824153134046,-0.4691080469096483,1.015264222300902,-4.923759035204319
2.9661330726649493,-0.624290851881695,0.9660266319488588,-5.0632283780588105
2.9598901641461324,-0.7881861392627265,0.9153943481682707,-5.208523071531244
2.952008302753505,-0.9610496384839877,0.8633091174529582,-5.359546590722902
2.9423978063686653,-1.1430599945842583,0.8097136515457293,-5.516107293409661
2.9309672064228227,-1.3342988857760174,0.7545525786116327,-5.67790024839507
2.9176242175650624,-1.5347295037277884,0.697773576127682,-5.844488659529293
2.9022769225277845,-1.7441741647969826,0.6393286895323891,-6.015285894523094
2.8848351808798145,-1.9622921952214638,0.5791758305871582,-6.189539494062848
2.8652122589276,-2.188559646444392,0.5172804356465297,-6.3663189126423045
2.843326662463156,-2.4222528056218775,0.45361724652010665,-6.544509075089784
2.8191041344069374,-2.6624378047265327,0.3881721557692088,-6.7228120465925
2.792479756359672,-2.907968810879147,0.32094403530328386,-6.899759115156697
2.7634000682508804,-3.157497198044247,0.25194644415171685,-7.0737352736622645
2.731825096270438,-3.4094936577118378,0.18120909141509423,-7.243017379825599
2.6977301596933194,-3.662284337706767,0.10877891761683824,-7.40582612976577
2.6611073163162517,-3.914100804160045,0.03472065631918053,-7.560390449669603
2.621966308274651,-4.163141999030367,-0.0408832481775155,-7.705021143547881
2.5803348882843475,-4.407644621489698,-0.11793345961299431,-7.838188897557324
2.5362584420694505,-4.64595679544346,-0.19631534858856756,-7.958600374748317
2.489798874115016,-4.876608833909826,-0.27590135233605073,-8.06526548513715
2.4410327857759175,-5.098374661887219,-0.35655400718742225,-8.157549237831901
2.3900490391570455,-5.310318160508452,-0.43812949956574126,-8.235202940930058
2.336945857551961,-5.511820290917758,-0.5204815289750419,-8.29837174110287
2.2818276546427834,-5.702585081553994,-0.6034652463860706,-8.347578203973267
2.2248018038272432,-5.882625005395773,-0.6869410284258033,-8.383684324715354
2.1659755537732854,-6.0522284856468955,-0.7707778716729569,-8.407836538656877
2.1054532689168166,-6.211913883202194,-0.8548562370595256,-8.42139963195673
2.0433341300847947,-6.3623751383016325,-0.9390702333790929,-8.425885809931625
1.9797103787017785,-6.504424255874119,-1.0233290914784092,-8.422884662063906
1.9146661361430373,-6.6389351919028465,-1.1075579380990483,-8.41399862146092
1.8482767842240089,-6.766792658421927,-1.1916979243136576,-8.400787069488775
1.7806088576397896,-6.888848172388632,-1.2757057950085453,-8.384720777182807
1.7117203759159032,-7.005884539116699,-1.3595530027803733,-8.367147117903622
1.6416615305247362,-7.118589021298237,-1.4432244739594096,-8.349265545567638
1.570475640311754,-7.2275347614106185,-1.5267171294150859,-8.33211223581865
1.4982002926976477,-7.333169599627984,-1.6100382517732723,-8.316552497315193
1.424868596701368,-7.435811223956427,-1.6932037767464243,-8.30327950730776
1.3505104844618037,-7.535647549357432,-1.776236571819502,-8.292818031441348
1.2751540089682294,-7.632741291296904,-1.8591647521339154,-8.285531980910498
1.1988265960552604,-7.727037826981038,-1.9420200719430203,-8.281634884375446
1.1215562177854501,-7.818375586453973,-2.024836420786775,-8.281202568007586
1.0433724619209104,-7.906498359581088,-2.107648446466851,-8.284187520603409
0.9643074783250996,-7.991069028006822,-2.190490321672885,-8.290434560052057
0.8843967880450313,-8.071684325937028,-2.2733946672734056,-8.299697509610176
0.8036799447856611,-8.147890298463269,-2.3563916423695073,-8.311656640449318
0.7222010418010284,-8.219198163510956,-2.4395082087740003,-8.325936647536546
0.6400090601659189,-8.285100298197808,-2.522767575249366,-8.342124907921049
0.5571580571839407,-8.345086068590762,-2.6061888243285765,-8.359789733707338
0.4737071964980331,-8.398657210185927,-2.6897867216656497,-8.378498286296953
0.38972062439617383,-8.445342451409855,-2.773571704528619,-8.397833773255938
0.3052671998820753,-8.48471105995198,-2.8575500422611784,-8.417411512747686
0.2204200892825555,-8.516384986727578,-2.9417241573886552,-8.436893429689706
0.1352562394152797,-8.540049288448857,-3.0260930916855524,-8.456000547594325
0.049855746530791126,-8.5554605294525,-3.110653097161496,-8.474523063222358
-0.03569885876373387,-8.562452897411205,-3.1953983277937192,-8.492327638198788
-0.12132338773784593,-8.560941815200033,-3.280321604175707,-8.50936161081896
-0.20693280588984625,-8.550924890529691,-3.3654152202838965,-8.52565391855508
-0.2924420547951432,-8.532480112958986,-3.450671759469447,-8.541312621723312
-0.377766855924733,-8.50576128078903,-3.5360848856866802,-8.55651902473281
-0.46282446873262334,-8.47099071404581,-3.6216500759340082,-8.571518496194138
-0.5475343758730814,-8.428449380358117,-3.7073652608959495,-8.586608186081095
-0.6318188696766626,-8.378464624759115,-3.7932313427567603,-8.60212192130758
-0.7156035159242538,-8.321395750108532,-3.879252561969836,-8.61841262641239
-0.798817473425339,-8.257617741280772,-3.96543668823396,-8.635832661762821
-0.8813936508381468,-8.187503464638862,-4.051795014851589,-8.65471249876797
-0.9632686854845354,-8.11140470776099,-4.138342139839269,-8.675338164018505
-1.0443827325621453,-8.029632458070145,-4.225095521479454,-8.697927889079617
-1.1246790571428467,-7.942436859938929,-4.31207480037025,-8.722608409759085
-1.204103425742236,-7.849987346388867,-4.3993008844678405,-8.749391380344319
-1.2826032992061247,-7.752353522656058,-4.4867947982712835,-8.778150418404785
-1.3601268344326853,-7.649487492958258,-4.574576302455331,-8.808599388392919
-1.436621709362268,-7.541208474520093,-4.662662296339261,-8.840272679814337
-1.5120337941074689,-7.4271907348197095,-4.7510650231374045,-8.872508445906925
-1.5863057014556659,-7.3069561108790095,-4.839790107596474,-8.904436040619737
-1.659375262564456,-7.179872601912267,-4.928834468002671,-8.934969210324823
-1.7311739885835786,-7.045160729739625,-5.018184160105919,-8.962806927106065
-1.8016255958809748,-6.901909474516816,-5.10781222937698,-8.986444031411242
-1.870644690626143,-6.749103533574401,-5.197676669691092,-9.004193992018065
-1.938135725961887,-6.58566331818245,-5.287718609611273,-9.014225971123038
-2.0039923591437114,-6.410498393827083,-5.377860869322504,-9.014617866313046
-2.0680973430819822,-6.222573905582645,-5.468007047985634,-9.003425964519701
-2.1303230821378087,-6.020987897199819,-5.558041307630831,-8.97877021569287
-2.190532961109807,-5.805055427100344,-5.64782900978776,-8.938931956444335
-2.2485835153808105,-5.574393251955049,-5.737218329352203,-8.882458391613614
-2.304327447900361,-5.3289969905333585,-5.826042913268339,-8.808265671611286
-2.357617417805695,-5.069301607082975,-5.914125569984452,-8.715730544099772
-2.4083104338765247,-4.79621626758456,-6.001282875425449,-8.604759922077708
-2.4562725965523704,-4.511126451614944,-6.087330474646226,-8.475828782939818
-2.5013838610685197,-4.215859630393171,-6.172088762475624,-8.329979752857586
-2.5435424573724514,-3.9126153919739473,-6.2553885600042,-8.168782225502161
-2.582668611292191,-3.6038657610105735,-6.337076382259222,-7.99425413061695
-2.618707268902297,-3.2922355933426313,-6.417018923565392,-7.808754430559997
-2.6516296248357234,-2.980375417807256,-6.4951064678709916,-7.614858023944131
-2.681433379013796,-2.6708394499444372,-6.571255048110433,-7.415226260246461
-2.7081417735132405,-2.365979768151833,-6.645407310712898,-7.212485551804106
-2.731801571194759,-2.067864376141293,-6.717532166230939,-7.009123999147707
-2.752480214956172,-1.7782229159023248,-6.787623406222416,-6.807412287749164
-2.770262444115195,-1.4984199935961928,-6.855697529099907,-6.609351239811272
-2.785246644051157,-1.2294530743965457,-6.92179104149802,-6.416645041303929
-2.7975411747951227,-0.9719700077076434,-6.985957491911059,-6.230696751097464
-2.807260874872199,-0.7263004699911707,-7.048264459422034,-6.052621363494123
-2.8145238795721106,-0.49249575192476525,-7.108790673056975,-5.88327132260536
-2.8194488370913584,-0.2703720647546333,-7.167623386283029,-5.723269726288955
-2.822152557738905,-0.059553592547997275,-7.224856083545919,-5.573047223525158
-2.822748093664385,0.14048737195148542,-7.28058655578117,-5.432879551621226
-2.82134321994487,0.3303948618259512,-7.334915351297382,-5.302923595645053
-2.8180392713266107,0.5108990727823868,-7.387944587253832,-5.183250671389402
-2.812930280598787,0.682791822183235,-7.439777093967726,-5.073876384441781
-2.8061023623769548,0.8469074333697746,-7.490515857812144,-4.974786892773654
-2.797633288043257,1.0041085914847392,-7.540263726739881,-4.885961713673925
-2.7875922021284096,1.155276577752622,-7.58912334387662,-4.807393392391526
-2.7760394363508833,1.3013052252252972,-7.637197277800536,-4.7391044135638705
-2.76302638409863,1.4430979109870834,-7.684588321936174,-4.681161704236197
-2.7485954049887593,1.5815668707668948,-7.731399938978536,-4.6336889539429365
-2.73277973628109,1.7176340541397008,-7.777736828517965,-4.596876751636244
-2.7156033957396932,1.8522325883785866,-7.823705596034328,-4.570990178391025
-2.6970810698559076,1.986307629618188,-7.869415497818238,-4.556372936811762
-2.677217993559726,2.1208148716023003,-7.914979227186356,-4.553446240974434
-2.6560098448437026,2.2567141414264125,-7.9605136895961,-4.562699379219258
-2.6334427034294383,2.3949541819515447,-8.006140683388292,-4.584666875888784
-2.609493161609923,2.5364427061185495,-8.05198735214718,-4.619884237299172
-2.584128734548737,2.6819929184341786,-8.09818619452017,-4.668810094428815
-2.5573088053643955,2.8322338996616185,-8.14487429546446,-4.731697087349268
-2.5289864663677792,2.9874680628156165,-8.192191266337952,-4.808387783103897
-2.4991117857396232,3.147456268916755,-8.24027514416899,-4.89800799919218
-2.4676372230504557,3.3111151748401646,-8.289255224160913,-4.998535163376344
-2.434526071302054,3.4761323288215626,-8.339240575794676,-5.106248321793592
-2.399764748013838,3.6385588080925935,-8.390303059012613,-5.2151421996419565
-2.3633791599329124,3.792541153521439,-8.442454481009033,-5.316530745956956
-2.325453748397698,3.9304862051211717,-8.495619788468602,-5.3992514154236915
-2.2861488863464863,4.0440099080129865,-8.549612302622839,-5.450964330253629
-2.2457087872663566,4.125800095820763,-8.604121945925375,-5.460734056000547
-2.204450786308149,4.171906882360532,-8.65872928648538,-5.422220923621749
-2.1627317174845437,4.183317871094389,-8.712951495721597,-5.335889208940505
-2.1208985387736,4.165775549991452,-8.766310387811002,-5.208775261278362
-2.0792407832736854,4.12789540677567,-8.818398140423785,-5.0518923824991875
-2.037961829205929,4.078742564175697,-8.868917064248777,-4.8768804494608125
-1.9971744035641719,4.0260582185952565,-8.917685868743385,-4.693553842548878
-1.9569138213782193,3.9755434693455056,-8.964621407168874,-4.508910906973708
-1.9171583866847643,3.9309354652799433,-9.009710516238611,-4.327235381127044
-1.877849032031965,3.894439018541188,-9.052982870049881,-4.150684536265274
-1.8389046418465531,3.8672080307866294,-9.094489715412534,-3.9799424426943264
-1.8002325615386867,3.8497420385944663,-9.134289139839478,-3.8147539467016576
-1.761735141152742,3.8421696812777664,-9.172436679306495,-3.654301886877977
-1.7233134443399643,3.8444352946638296,-9.208979698175275,-3.49745088646649
-1.684869091393326,3.856415097211291,-9.24395420703994,-3.342894812507232
-1.6463049404212131,3.877986319180347,-9.277383155165012,-3.189240485369145
-1.6075250772294096,3.909066327346263,-9.309275560018703,-3.035051509198792
-1.568434413955947,3.9496330831183983,-9.33962607511069,-2.878868323066743
-1.528938083124763,3.9997340282570617,-9.368414758341357,-2.719214930492096
-1.4889407428421924,4.059487595868105,-9.395606907646279,-2.554599059405138
-1.4483458668835114,4.129079637808066,-9.42115289824033,-2.3835102317181587
-1.4070550705054308,4.208755815444274,-9.444988000557512,-2.2044189202796742
-1.3649675123509881,4.298810181885124,-9.467032189760308,-2.0157792974935758
-1.321979410532137,4.399569639775044,-9.487189982735245,-1.8160377928457598
-1.2779837141343866,4.511373607474941,-9.505350360663703,-1.6036496008932326
-1.2328699780596373,4.634548038492818,-9.521386856672637,-1.3771052743054777
-1.1865244976747091,4.769372926409437,-9.535157909415691,-1.1349694618285155
-1.1388307684106147,4.916042634973889,-9.546507604033977,-0.8759335611772217
-1.0896703420608758,5.074618887416088,-9.55526693964575,-0.5988833883769678
-1.0389241531867148,5.244977101986532,-9.561255773529519,-0.30298175014901413
-0.9864743821668495,5.426748019353571,-9.564285591031009,0.012236092393378362
-0.9322069019733138,5.61925821043849,-9.564163230107075,0.34675870481690085
-0.8760143198689289,5.821474936564264,-9.560695643058907,0.6999943517135758
-0.8177995705032862,6.031962641747628,-9.553695699541771,1.0706776886346532
-0.75747994408581,6.248859588651302,-9.542988922655425,1.4568013143991343
-0.694991348199297,6.4698831807458905,-9.528420909511434,1.8555874558408432
-0.630292516391838,6.692370762963859,-9.509865034953025,2.2635136452336777
-0.5633688087621994,6.913358885303998,-9.487229898500688,2.6764014764852444
-0.4942352199091594,7.129698447230433,-9.460465883735836,3.089569475594892
-0.4229382354368551,7.33819682047092,-9.429570188979886,3.4980409984196497
-0.3495562672321459,7.5357725297777245,-9.39458977899569,3.896788110543147
-0.27419854193436866,7.719604984933676,-9.355621897890257,4.280985271377216
-0.1970024920850319,7.887262168273812,-9.312812045176486,4.646244464748897
-0.11812987040229378,8.036793104021337,-9.266349600528997,4.9888069057684765
-0.037761939362080416,8.166778275129955,-9.216461531471312,5.305674583856942
0.04390584338921914,8.276338139724887,-9.163404785632743,5.5946753292724765
0.12666922478646803,8.36510577811487,-9.107458032340018,5.854465090452293
0.21032028256761673,8.433173332449797,-9.048913381435495,6.084478546240346
0.2946520158921147,8.481023005115832,-8.988068595973091,6.284843062730706
0.37946224594327305,8.509452407575697,-8.925220165345785,6.456271503496827
0.46455677001903,8.5195018240537,-8.860657450310816,6.599947436752514
0.549751788259567,8.512388316472595,-8.794657975943291,6.717413023995752
0.634875671424293,8.48944917558262,-8.727483845703334,6.81046634406693
0.7197701631801192,8.452095356475802,-8.659379182262665,6.88107178533195
0.8042911167448772,8.40177431359959,-8.590568464409346,6.931284751458598
0.888308859880873,8.339940999411995,-8.52125561689476,6.963190326016514
0.971708269874993,8.268035567801073,-8.451623713634595,6.97885462151774
1.0543886255530037,8.187466374541211,-8.381835167419418,6.980287128884665
1.136263289298416,8.099597063142134,-8.312032296130571,6.9694123110853425
1.2172592599298373,8.005736772662942,-8.242338173019718,6.9480488067084
1.2973166276564667,7.907132746618156,-8.172857684952634,6.91789482167167
1.3763879551226483,7.804964828863354,-8.103678736735917,6.8805185228781145
1.4544376034112818,7.700341492268958,-8.034873551507136,6.837352468279049
1.5314410183339713,7.594297159640024,-7.966500026824345,6.789691295732833
1.6073839899303715,7.487790650312099,-7.898603113867017,6.738692043469301
1.6822618964334923,7.381704629037298,-7.831216193432324,6.685376590390665
1.7560789427238652,7.276845955110449,-7.764362427528417,6.630635790755338
1.8288474022749697,7.173946836983664,-7.698056069620864,6.57523494183711
1.9005868706448064,7.073666697078193,-7.632303720202493,6.519820271308998
1.9713235376155882,6.976594647646862,-7.567105517489402,6.464926168628292
2.041089484092057,6.883252474375851,-7.50245625580312,6.410982915527261
2.1099220088358157,6.794098021699272,-7.438346426647847,6.3583246975067915
2.1778629890528083,6.709528873337442,-7.374763179672779,6.307197702584699
2.2449582777861825,6.6298862234881915,-7.311691202646932,6.257768136249276
2.3112571400210644,6.55545883809545,-7.249113521284439,6.210130002832866
2.3768117284020187,6.486487011150046,-7.1870122212561105,6.164312523233227
2.4416765985135194,6.423166427416814,-7.125369096023778,6.120287076799142
2.5059082627876874,6.3656518497226635,-7.064166225255787,6.077973570967442
2.569564781284914,6.314060555464885,-7.003386489546112,6.037246155670052
2.6327053868395627,6.268475452920621,-6.9430140279894115,5.997938210530416
2.695390141368769,6.228947813018561,-6.883034645884107,5.95984654150785
2.7576796194989543,6.1954995563863795,-6.823436180469029,5.92273473016748
2.819634615062818,6.168125038773745,-6.764208833167355,5.8863355835690205
2.8813158654505555,6.146792280573582,-6.705345477331664,5.850352636470906
2.9427837882562913,6.131443588462743,-6.646841950966955,5.814460660907611
3.0040982241409186,6.1219955196364015,-6.588697344357879,5.778305142180349
3.065318179337283,6.118338142350174,-6.5309142929360755,5.741500686087994
3.1265015607607847,6.120333551323212,-6.473499286075196,5.703628331263165
3.187704896274017,6.127813604030959,-6.416463002762565,5.664231754540072
3.2489830323143263,6.14057685534897,-6.359820685217164,5.62281237853806
3.310388800867816,6.158384685078126,-6.303592561431783,5.5788234217523325
3.3719726477185974,6.180956637705933,-6.24780432721426,5.531662975611528
3.4337822140956566,6.207965028974247,-6.192487697458144,5.480666253995098
3.495861864385399,6.239028922629186,-6.137681034918193,5.425097242957337
3.558252153611691,6.273707646860161,-6.08343006248862,5.3641400865933795
3.6209892300802924,6.3114941075046636,-6.029788661622686,5.296890683731964
3.684104171155339,6.351808268202011,-5.9768197547853665,5.222349143149546
3.747622253837359,6.39399130965463,-5.924596263353871,5.139413953626439
