th1 (rad),w1 (rad/s),th2 (rad),w2 (rad/s),a1 (rad/s^2),a2 (rad/s^2)
3.2401934079663532,-2.721688518261782,1.786394635323789,0.23956557179631818,1.0728799554191115,-2.3414070804229667
3.2129765227837352,-2.7109597187075907,1.7887902910417521,0.21615150099208852,0.852780861169308,-2.4221857260213784
3.185866925596659,-2.7024319100958976,1.790951806051673,0.19192964373187474,0.6329085901076046,-2.483735317937955
3.1588426064957003,-2.6961028241948215,1.7928711024889916,0.1670922905524952,0.4122788837592171,-2.526168474150345
3.131881578253752,-2.691980035357229,1.7945420253945166,0.14183060581099174,0.1899498117324749,-2.5494903275932974
3.1049617779001797,-2.6900805372399046,1.7959603314526265,0.11633570253505877,-0.034983292684130494,-2.553606497589609
3.0780609725277808,-2.690430370166746,1.797123688477977,0.09079963755916268,-0.26339286931227907,-2.5383303502212047
3.0511566688261134,-2.6930642988598685,1.7980316848535687,0.06541633405695063,-0.4961241911432806,-2.5033895686323593
3.024226025837515,-2.6980255407713014,1.7986858481941381,0.040382438370627036,-0.7340005006642759,-2.448432077003284
2.9972457704298017,-2.705365545777944,1.7990896725778445,0.015898117600594192,-0.9778282711108022,-2.373031388576341
2.970192114972022,-2.7151438284890523,1.7992486537538503,-0.007832196285169218,-1.2284026296894954,-2.2766914818758828
2.9430406766871315,-2.7274278547859474,1.7991703317909986,-0.030599111103928045,-1.4865129594371422,-2.158851353897036
2.915766398139272,-2.742292984380319,1.7988643406799594,-0.0521876246428984,-1.752948664919793,-2.0188894592067217
2.8883434682954685,-2.759822471029517,1.7983424644335304,-0.07237651923496562,-2.0285050410008387,-1.856128325616454
2.8607452435851735,-2.7801075214395254,1.7976186992411807,-0.09093780249113016,-2.3139891185075943,-1.6698397483223346
2.832944168370778,-2.8032474126246014,1.7967093212162695,-0.1076361999743535,-2.6102252688770844,-1.4592511158856063
2.8049116942445322,-2.829349665313372,1.7956329592165259,-0.12222871113320957,-2.918060222104214,-1.2235536276694847
2.7766181975913984,-2.858530267534414,1.7944106721051938,-0.13446424740990442,-3.2383669751880477,-0.9619134430470943
2.7480328949160544,-2.8909139372862946,1.7930660296310947,-0.14408338184037536,-3.572046823441902,-0.6734871844757361
2.7191237555431913,-2.926634405520714,1.791625195812691,-0.1508182536851327,-3.9200284095760654,-0.35744373515465044
2.689857411487984,-2.9658346896164747,1.7901170132758397,-0.1543926910366792,-4.283262221882124,-0.01299497496587781
2.6601990645918194,-3.008667311835296,1.788573086365473,-0.15452264078633798,-4.662708338829951,0.36056095211782146
2.6301123914734665,-3.055294395223595,1.7870278599576095,-0.15091703126515976,-5.059314355592998,0.7637789706387247
2.5995594475212305,-3.105887538779525,1.785518689644958,-0.1432792415587725,-5.473979266689861,1.196982438922197
2.568500572133435,-3.1606273314464235,1.7840858972293703,-0.13130941716955052,-5.907497532956277,1.6601457442804457
2.5368942988189707,-3.2197023067759862,1.7827728030576748,-0.11470795972674606,-6.360475538726383,2.1527324368215424
2.504697275751211,-3.28330706216325,1.7816257234604074,-0.09318063535853063,-6.8332100666497295,2.6734735780051126
2.4718642051295783,-3.351639162829747,1.7806939171068221,-0.0664458995784795,-7.325515256501132,3.2200666023916567
2.438347813501281,-3.4248943153947584,1.7800294581110374,-0.03424523355456294,-7.8364808800557855,3.788770080597396
2.404098870347333,-3.503259124195316,1.7796870057754919,0.0036424672514110204,-8.364141055677027,4.37386498200803
2.36906627910538,-3.5869005347520866,1.779723430448006,0.04738111707149132,-8.905029700687166,4.9669498547710464
2.333197273757859,-3.6759508317589584,1.780197241618721,0.09705061561920178,-9.453599027591752,5.55603872030812
2.296437765440269,-3.7704868220348757,1.781167747774913,0.152611002822283,-10.00148381949794,6.124441759059745
2.2587328972199203,-3.870501660229855,1.782693857803136,0.21385542041288044,-10.536613102519576,6.649438909160663
2.220027880617622,-3.975867791255051,1.7848324120072647,0.28034980950448707,-11.042211324086065,7.100818625394082
2.1802692027050714,-4.086289904495912,1.7876359101023096,0.35135799575842785,-11.49580521536343,7.439465461797902
2.1394063036601123,-4.201247956649546,1.7911494900598939,0.42575265037640686,-11.868471743767872,7.616357159987116
2.0973938240936167,-4.319932674087225,1.795407016563658,0.501916221976278,-12.124728760479696,7.572576211661829
2.0541944973527446,-4.441179961692022,1.8004261787834208,0.5776419840928964,-12.223655838915587,7.241211357318206
2.009782697735824,-4.563416520081178,1.8062025986243497,0.6500540976660785,-12.121952975301227,6.552195466358039
1.9641485325350123,-4.68463604983419,1.8127031396010105,0.7155760523296588,-11.779532036336349,5.440953425749109
1.9173021720366703,-4.802431370197554,1.819858900124307,0.7699855865871499,-11.167666475766088,3.8608916001367195
1.8692778583346947,-4.914108034955214,1.8275587559901785,0.8085945025885171,-10.278560827912235,1.798048218940546
1.8201367779851425,-5.0168936432343365,1.8356447010160637,0.8265749847779226,-9.133668098258019,-0.716032472917086
1.769967841552799,-5.108230324216917,1.8439104508638429,0.8194146600487517,-7.787006347862809,-3.598742464426209
1.7188855383106298,-5.186100387695546,1.8521045974643304,0.7834272354044897,-6.320304269698453,-6.722911871235589
1.6670245344336745,-5.24930343039253,1.8599388698183754,0.7161981166921337,-4.829638443382157,-9.93602212890562
1.614531500129749,-5.297599814826351,1.8671008509852967,0.6168378954030775,-3.4072165165312676,-13.086945706390562
1.5615555019814855,-5.331671979991664,1.8732692299393274,0.4859684383391719,-2.124557466550462,-16.051132590079334
1.5082387821815688,-5.352917554657169,1.8781289143227191,0.3254571124383786,-1.0225590416477062,-18.74610431071111
1.4547096066349972,-5.3631431450736455,1.881383485447103,0.13799606933126748,-0.11037637655373501,-21.134185836729685
1.4010781751842607,-5.364246908839183,1.8827634461404157,-0.07334578903602937,0.6287758720121064,-23.21495862282286
1.3474357060958688,-5.357959150119062,1.8820299882500553,-0.30549537526425796,1.2286505976196351,-25.01275342401742
1.293856114594678,-5.345672644142866,1.8789750344974128,-0.5556229095044322,1.7312046310178852,-26.564112832895255
1.2403993881532493,-5.3283605978326865,1.8734188054023684,-0.8212640378333846,2.179921528195641,-27.9080736330463
1.1871157821749225,-5.30656138255073,1.8652061650240346,-1.1003447741638477,2.6156493375864094,-29.080046082035288
1.1340501683494153,-5.280404889174866,1.854202717282396,-1.3911452349842006,3.0745320761479884,-30.108811335920215
1.0812461194576666,-5.249659568413386,1.840291264932554,-1.6922333483434029,3.5873400387153156,-31.01571797328488
1.0287495237735327,-5.213786168026233,1.82336893144912,-2.0023905280762517,4.179566932140299,-31.815207392566016
0.9766116620932703,-5.1719904987048295,1.8033450261683575,-2.320542602001912,4.871844831283152,-32.51602994922021
0.9248917571062221,-5.123272050391998,1.7801396001483383,-2.645702901494114,5.68040990492574,-33.12275294747206
0.873659036602302,-5.066467951342741,1.7536825711333972,-2.9769304309688347,6.617488791472703,-33.63734100515845
0.8229943570888746,-5.000293063428014,1.723913266823709,-3.313303841020419,7.691564108333298,-34.06070116767586
0.7729914264545944,-4.923377422344681,1.6907802284135047,-3.6539108526971775,8.9075288069598,-34.39414398296793
0.7237576522311476,-4.834302134275084,1.654241119886533,-3.997852292526857,10.266765056558645,-34.64073544107194
0.6754146308883968,-4.731634483709497,1.6142625969612645,-4.3442596469375765,11.767192786118615,-34.806517535638925
0.6280982860513018,-4.613962555848311,1.5708200004918886,-4.6923248222939655,13.403330676793852,-34.901566622906486
0.5819586604928186,-4.479929249080373,1.523896752268949,-5.04134048852303,15.16639967885941,-34.940843677617444
0.5371593680020149,-4.328265252291779,1.4734833473837188,-5.390748925299205,17.04447478246716,-34.94476990194411
0.4938767154790971,-4.157820504467107,1.4195758581307267,-5.740196624318646,19.02265110651008,-34.939431567309626
0.45229851043442604,-3.9675939934020064,1.3621738918875403,-6.089590939991742,21.08312870279102,-34.95627046547249
0.41262257050040596,-3.7567627063740963,1.3012779824876228,-6.439153644646467,23.205025582948792,-35.03103359406628
0.375054943436665,-3.5247124505446084,1.2368864460411582,-6.78946398058713,25.36358180990834,-35.20160768980451
0.3398078189312189,-3.271076632445525,1.1689918062352869,-7.141480057485175,27.528189283686046,-35.50410230339174
0.3070970526067637,-2.9957947396086646,1.097577005660435,-7.496521080519093,29.658328066624538,-35.96609673607447
0.27713910521067703,-2.699211458942419,1.022611794855244,-7.856182047879837,31.695958117800387,-36.59524017749125
0.25014699062125284,-2.3822518777644155,0.9440499743764457,-8.22213444965475,33.55218338676833,-37.36032987203952
0.22632447184360868,-2.046730043896732,0.8618286298798982,-8.595737748375145,35.08522528433272,-38.16074477204358
0.20585717140464135,-1.6958777910534049,0.7758712523961467,-8.97734519609558,36.06665220738776,-38.779607130282436
0.1888983934941073,-1.3352112689795272,0.686097800435191,-9.365141267398405,36.13571350047117,-38.819319111827255
0.17554628080431203,-0.9738541339748155,0.592446387761207,-9.753334458516678,34.75307016658225,-37.63269343965349
0.16580773946456387,-0.626323432308993,0.4949130431760402,-10.129661392913212,31.194526325997394,-34.30171902496756
0.15954450514147395,-0.31437816904901905,0.39361642924690804,-10.472678583162887,24.67563940664731,-27.78426041987828
0.15640072345098377,-0.06762177498254596,0.2888896434152792,-10.75052118736167,14.7255663520124,-17.389021065106466
0.1557245057011583,0.07963388853757805,0.18138443154166245,-10.924411398012735,1.7883510162747298,-3.5557613644926622
0.1565208445865341,0.09751739870032536,0.0721403175615351,-10.95996901165766,-12.388095232313233,11.638458735098558
0.15749601857353734,-0.026363553622806984,-0.037459372555041504,-10.843584424306675,-25.264788694176936,25.15333107522161
0.15723238303730927,-0.2790114405645764,-0.14589521679810824,-10.59205111355446,-34.83675428263623,34.69640554103589
0.1544422686316635,-0.6273789833909387,-0.2518157279336528,-10.245087058144101,-40.54724746382886,39.84428287133408
0.1481684787977541,-1.0328514580292274,-0.3542665985150938,-9.84664422943076,-43.03400894887855,41.628910614045346
0.13783996421746184,-1.4631915475180128,-0.4527330408094014,-9.430355123290306,-43.32939278390474,41.46924842628213
0.12320804874228171,-1.8964854753570601,-0.5470365920423045,-9.015662639027486,-42.31669711018146,40.49403153076532
0.10424319398871111,-2.319652446458875,-0.6371932184325794,-8.610722323719832,-40.58304946221731,39.394301539293316
0.08104666952412236,-2.725482941081048,-0.7233004416697777,-8.216779308326899,-38.46989657500265,38.519420678104645
0.05379184011331188,-3.1101819068310745,-0.8054682347530466,-7.831585101545852,-36.162058113669026,38.00718768309024
0.022690021045001136,-3.4718024879677647,-0.8837840857685052,-7.45151322471495,-33.757512874569656,37.87925861377618
-0.012028003834676514,-3.809377616713461,-0.9582992180156547,-7.072720638577188,-31.310998323115708,38.098632562085335
-0.050121780001811125,-4.122487599944618,-1.0290264244014264,-6.691734312956335,-28.858385933476267,38.60147376435596
-0.0913466560012573,-4.4110714592793805,-1.0959437675309898,-6.305719575312775,-26.429208883344003,39.31422533223592
-0.1354573705940511,-4.675363548112821,-1.1590009632841176,-5.912577321990415,-24.05238737640977,40.16292377383524
-0.18221100607517932,-4.915887421876919,-1.2181267365040218,-5.510948084252063,-21.758180514635626,41.078506158214175
-0.2313698802939485,-5.133469227023275,-1.2732362173465424,-5.100163022669921,-19.578113598443693,42.00001514227018
-0.28270457256418124,-5.329250363007712,-1.3242378475732415,-4.680162871247219,-17.54389495134516,42.876575520811414
-0.33599707619425834,-5.504689312521164,-1.3710394762857137,-4.251397116039105,-15.68592136903139,43.66848821282678
-0.39104396931947,-5.661548526211478,-1.4135534474461047,-3.8147122339108375,-14.031723608928859,44.34753635105275
-0.4476594545815848,-5.801865762300766,-1.451700569785213,-3.3712368704003097,-12.60453537104908,44.89648888148968
-0.5056781122045925,-5.9279111160112565,-1.485412938489216,-2.922271981585413,-11.422034256902462,45.30773916566507
-0.564957223364705,-6.042131458580281,-1.5146356583050702,-2.469194589928762,-10.495176536554755,45.58097735415
-0.6253785379505078,-6.147083223945828,-1.5393276042043578,-2.013384816387262,-9.82691448175861,45.719728548980584
-0.6868493701899661,-6.245352368763415,-1.5594614523682304,-1.5561875308974562,-9.41043448382972,45.72646647424747
-0.7493028938776002,-6.339456713601712,-1.575023327677205,-1.0989228661549815,-9.226378993303465,45.59581967511311
-0.8126974610136173,-6.431720503534747,-1.5860125563387548,-0.6429646694038503,-9.238323835457,45.30513964205326
-0.8770146660489647,-6.524103741889316,-1.5924422030327934,-0.18991327298331767,-9.38563426991488,44.80149374504476
-0.9422557034678579,-6.617960084588465,-1.5943413357626266,0.25810166446712995,-9.572913896311775,43.984275176319144
-1.0084353043137426,-6.713689223551583,-1.5917603191179552,0.6979444162303214,-9.656088893609619,42.68381304937202
-1.0755721965492584,-6.8102501124876795,-1.584780874955652,1.1247825467240418,-9.427776083735912,40.64010302090772
-1.1436746976741352,-6.904527873325039,-1.5735330494884117,1.531183576933119,-8.610584156449113,37.49433503454001
-1.2127199764073855,-6.99063371488953,-1.5582212137190805,1.906126927278519,-6.877345645443558,32.82052900214327
-1.2826263135562808,-7.059407171343965,-1.5391599444462953,2.2343322172999516,-3.9274420050960073,26.238664296694648
-1.3532203852697204,-7.098681591394925,-1.5168166222732957,2.496718860266898,0.36050288046557283,17.63713681563725
-1.4242072011836697,-7.095076562590269,-1.4918494336706267,2.6730902284232707,5.738735358551174,7.446385851793446
-1.4951579668095725,-7.037689209004758,-1.465118531386394,2.747554086941205,11.506313039647592,-3.2433947929109825
-1.56553485889962,-6.922626078608282,-1.4376429905169819,2.715120139012095,16.69674558106122,-12.959366776941682
-1.6347611196857028,-6.75565862279767,-1.410491789126861,2.585526471242678,20.496439974495303,-20.458618425148387
-1.7023177059136796,-6.550694223052717,-1.384636524414434,2.380940286991194,22.582630988255584,-25.226033448969257
-1.7678246481442068,-6.324867913170161,-1.3608271215445222,2.1286799525015017,23.130323699429322,-27.491844102172614
-1.8310733272759083,-6.093564676175868,-1.3395403220195072,1.8537615114797754,22.57382054397491,-27.887460662860278
-1.892008974037667,-5.8678264707361185,-1.3210027069047094,1.5748869048511727,21.36481524947682,-27.08904663280877
-1.9506872387450283,-5.6541783182413505,-1.3052538378561978,1.3039964385230849,19.85078538045393,-25.632294978218916
-2.007229021927442,-5.455670464436811,-1.292213873470967,1.0476734887408958,18.255683546122352,-23.87674929705432
-2.06178572657181,-5.2731136289755876,-1.281737138583558,0.8089059957703526,16.705755051913375,-22.03851048888159
-2.114516862861566,-5.1060560784564535,-1.2736480786258546,0.5885208908815367,15.262702973057381,-20.236194761246953
-2.1655774236461305,-4.95342904872588,-1.2677628697170393,0.3861589432690672,13.949961689578817,-18.528516711082908
-2.215111714133389,-4.813929431830092,-1.2639012802843486,0.20087377615823812,12.770083967750844,-16.939782475498216
-2.26325100845169,-4.686228592152583,-1.2618925425227663,0.03147595140325596,11.715206037417818,-15.4756405589593
-2.310113294373216,-4.569076531778404,-1.2615777830087338,-0.12328045418633704,10.772971628154746,-14.132290673524242
-2.3558040596909997,-4.4613468154968565,-1.2628105875505973,-0.26460336092157943,9.92971840014293,-12.901660005106987
-2.4004175278459683,-4.362049631495427,-1.265456621159813,-0.3936199609726493,9.172093837773533,-11.774207575938217
-2.4440380241609225,-4.270328693117692,-1.2693928207695395,-0.5113620367320315,8.487801308126715,-10.740373919644906
-2.4867413110920995,-4.185450680036425,-1.2745064411368598,-0.6187657759284806,7.865879856802951,-9.791274492220118
-2.5285958178924637,-4.1067918814683955,-1.2806940988961446,-0.7166785208506817,7.2967440799424335,-8.918980839571171
-2.5696637367071475,-4.033824440668971,-1.2878608841046515,-0.8058683292463934,6.772108355367908,-8.116584319559832
-2.6100019811138373,-3.9661033571152915,-1.2959195673971153,-0.8870341724419917,6.284862165842302,-7.378151269729642
-2.6496630146849904,-3.9032547354568683,-1.3047899091215354,-0.9608156851392881,5.828931267373594,-6.698629577309029
-2.688695562039559,-3.8449654227831322,-1.3143980659729282,-1.0278019809123784,5.399141922786763,-6.073738931227276
-2.7271452162673904,-3.790974003555265,-1.3246760857820519,-1.088539370224651,4.99109596677806,-5.499861487662833
-2.765054956302943,-3.7410630438874843,-1.3355614794842985,-1.1435379851012795,4.60105949526796,-4.973941025565064
-2.802465586741818,-3.695052448934805,-1.3469968593353112,-1.19327739535693,4.225865461019573,-4.4933939211862715
-2.839416111231166,-3.652793794324609,-1.3589296332888805,-1.2382113345687926,3.86282928262141,-4.056032731786776
-2.875944049174412,-3.614165501498395,-1.3713117466345683,-1.2787716618866605,3.5096761089748796,-3.6600018814959614
-2.912085704189396,-3.5790687404086463,-1.384099463253435,-1.31537168070162,3.1644782806760468,-3.3037243366404594
-2.9478763915934825,-3.547423957601886,-1.397253180060451,-1.3484089240680246,2.825601604277497,-2.985857930812778
-2.9833506311695013,-3.519167941559111,-1.4107372693011313,-1.3782675033761524,2.4916592040497374,-2.705259974067737
-3.0185423105850924,-3.494251349518614,-1.4245199443348928,-1.4053201031168299,2.161471885876299,-2.4609588557609032
-3.0534848240802783,-3.4726366306598506,-1.438573145366061,-1.4299296916744388,1.834034113464557,-2.2521314707419924
-3.0882111903868767,-3.454296289525205,-1.4528724422828054,-1.4524510063818588,1.508484846827421,-2.07808543316745
-3.122754153282129,-3.4392114410569308,-1.467396952346624,-1.4732318607135333,1.184082623357001,-1.9382451747226612
-3.1571462676926982,-3.427370614823361,-1.4821292709537592,-1.4926143124607598,0.8601843729920183,-1.8321411462640638
-3.1914199738409317,-3.4187687710934407,-1.4970554140783667,-1.5109357239234005,0.5362275529563051,-1.7594014500431616
-3.2256076615518663,-3.4134064955638777,-1.5121647713176007,-1.528529738423832,0.2117152669267075,-1.7197453224738208
-3.2597417265075053,-3.4112893428946105,-1.527450068701839,-1.5457271916485704,-0.11379589906563138,-1.7129779648854002
-3.2938546199364516,-3.4124273018852667,-1.5429073406183247,-1.5628569712974245,-0.44070553376067606,-1.738986282575432
-3.3279788929553042,-3.416834357222873,-1.558535910331299,-1.5802468341231788,-0.7693767100797625,-1.797735141764355
-3.362147236527533,-3.424528124323671,-1.574338378672531,-1.5982241855408224,-1.1001410613219038,-1.8892637909287933
-3.3963925177707694,-3.43552953493689,-1.5903206205279392,-1.6171168234501103,-1.433301698324456,-2.0136821186711122
-3.4307478131201385,-3.449862551920135,-1.6064917887624404,-1.6372536446368215,-1.7691340049274409,-2.1711664360273
-3.46524643863934,-3.467553891969409,-1.6228643252088086,-1.6589653089970946,-2.107884315113313,-2.3619544782210387
-3.4999219775590342,-3.488632735120542,-1.6394539782987796,-1.682584853779305,-2.449766443809755,-2.586339320719398
-3.5348083049102397,-3.51313039955864,-1.6562798268365726,-1.7084482469864988,-2.7949560145714196,-2.844661898546784
-3.569939608905826,-3.541079959704354,-1.6733643093064376,-1.7368948659719665,-3.1435825015487,-3.1373018078785444
-3.6053504085028694,-3.572515784719841,-1.6907332579661574,-1.768267884050752,-3.495718880991034,-3.4646660569430954
-3.6410755663500676,-3.6074729735297515,-1.708415936806665,-1.8029145446201829,-3.851368770051817,-3.827175421535346
