th1 (rad),w1 (rad/s),th2 (rad),w2 (rad/s),a1 (rad/s^2),a2 (rad/s^2)
1.9338853483658949,-0.3184260467796869,0.5792136097449111,2.8258648635823134,-12.790502734225536,-2.5222783298990286
1.930701087898098,-0.4463310741219423,0.6074722583807343,2.800642080283323,-12.693757222859718,-2.2900823955443825
1.9262377771568784,-0.5732686463505394,0.6354786791835675,2.777741256327879,-12.616754546265058,-2.01391787569017
1.920505090693373,-0.69943619181319,0.6632560917468463,2.7576020775709775,-12.56244910338292,-1.693663595339995
1.913510728775241,-0.8250606828470192,0.690832112522556,2.7406654416175775,-12.53378915221161,-1.3288193336349816
1.9052601219467709,-0.9503985743691352,0.7182387669387318,2.7273772482812277,-12.533736041649533,-0.9185056872891714
1.8957561362030795,-1.0757359347856306,0.745512539421544,2.718192191408336,-12.565277174343835,-0.46147854098056107
1.8849987768552232,-1.201388706529069,0.7726944613356275,2.7135774059985303,-12.631427021062393,0.04383476319676808
1.8729848897899326,-1.3277029767396928,0.7998302353956128,2.714015753630498,-12.735207850586233,0.5992664232154996
1.8597078600225356,-1.4550550552455552,0.8269703929319178,2.720008417862653,-12.879597833644183,1.206789246478055
1.8451573094700802,-1.583851033581997,0.8541704771105443,2.7320763103274333,-13.0674282200669,1.8683219636319448
1.82931879913426,-1.714525315782666,0.8814912402138186,2.750759529963753,-13.301202557477714,2.5854203018661805
1.8121735459764334,-1.8475373413574432,0.9089988355134562,2.7766137329824145,-13.582798385016568,3.358797293802794
1.793698172562859,-1.9833653252076089,0.9367649728432803,2.8102017059204423,-13.912994363631952,4.187591284239402
1.773864519310783,-2.1224952688439283,0.9648669899024848,2.8520776187628365,-14.290742569025754,5.068266959572363
1.7526395666223435,-2.2654026945341856,0.9933877660901131,2.90276028835856,-14.712077224457746,5.992994282239011
1.7299855396770016,-2.412523466778763,1.0224153689736988,2.96269023118095,-15.168521852864192,6.947308713774172
1.705860305009214,-2.564208685307405,1.0520422712855082,3.032163318318692,-15.64483987456239,7.906832349436791
1.68021821815614,-2.7206570840530286,1.082363904468695,3.11123164181306,-16.116000341441005,8.832874024362917
1.6530116473156098,-2.8818170874674385,1.1134762208868256,3.1995603820566894,-16.543364684029047,9.666917844570872
1.6241934764409354,-3.047250734307729,1.1454718247073925,3.296229560502398,-16.870454793975714,10.324514013496213
1.593720969097858,-3.215955282247486,1.1784341203124165,3.3994747006373602,-17.019397525643015,10.690130628448214
1.561561416275383,-3.386149257503916,1.21242886731879,3.5063760069218426,-16.8903880466733,10.616298943556808
1.527699923700344,-3.555053137970649,1.2474926273880085,3.6125389963574106,-16.368123017648227,9.93267554605697
1.4921493923206375,-3.7187343681471314,1.2836180173515825,3.7118657518179803,-15.340165064343639,8.472098351077143
1.4549620486391661,-3.872136018790568,1.3207366748697624,3.7965867353287517,-13.730318911768345,6.118083759948789
1.4162406884512604,-4.009439207908251,1.3587025422230499,3.8577675729282395,-11.542399677212346,2.867344140568426
1.3761462963721778,-4.124863204680374,1.3972802179523323,3.886441014333924,-8.896535614983382,-1.1178487235005947
1.334897664325374,-4.213828560830208,1.4361446280956716,3.875262527098918,-6.0305925243869,-5.506289314137971
1.292759378717072,-4.274134486074077,1.4748972533666607,3.820199633957538,-3.249394047621195,-9.868295498015826
1.2500180338563311,-4.306628426550289,1.513099249706236,3.72151667897738,-0.837461482651801,-13.798334934432098
1.2069517495908282,-4.315003041376807,1.5503144164960099,3.5835333296330587,1.0192163680108481,-17.025938009199567
1.1638017191770602,-4.304810877696698,1.5861497497923405,3.413273949541063,2.262803837006085,-19.458894368667522
1.1207536104000932,-4.282182839326637,1.6202824892877512,3.218685005854388,2.9415675337631635,-21.153822210043664
1.0779317820068268,-4.252767163989006,1.652469339346295,3.007146783753951,3.162862828815223,-22.251169804120146
1.0354041103669367,-4.221138535700853,1.6825408071838346,2.7846350857127495,3.0495606921731504,-22.91441716935977
0.9931927250099282,-4.190642928779122,1.710387158040962,2.5554909140191517,2.713055030326566,-23.292065955817026
0.951286295722137,-4.163512378475856,1.7359420671811534,2.3225702544609814,2.2423003429222472,-23.501863926951007
0.9096511719373784,-4.141089375046634,1.7591677697257633,2.0875516151914715,1.7029653240312714,-23.62914018655275
0.8682402781869121,-4.124059721806321,1.780043285877678,1.851260213325944,1.1411530149120255,-23.731565631767996
0.8269996809688489,-4.112648191657201,1.7985558880109374,1.613944557008264,0.5882652370579871,-23.84557936357986
0.7858731990522769,-4.106765539286622,1.81469533358102,1.3754887633724655,0.06542391167101143,-23.992263562870605
0.7448055436594108,-4.106111300169911,1.8284502212147447,1.1355661277437594,-0.41305477777498395,-24.181956208650146
0.7037444306577116,-4.110241847947662,1.8398058824921824,0.893746565657258,-0.8371364783310502,-24.417591731452347
0.662642012178235,-4.118613212730972,1.848743348148755,0.6495706483427345,-1.1993244169594655,-24.69700611607346
0.6214558800509253,-4.1306064569005665,1.8552390546321824,0.40260058718199987,-1.4934999831752749,-25.014481098079898
0.5801498154819197,-4.145541456732319,1.8592650605040024,0.15245577620120088,-1.7141833579038508,-25.36176388965372
0.5386944009145965,-4.1626832903113575,1.8607896182660144,-0.10116186269533634,-1.8560908238178486,-25.728743764194075
0.49706756801148294,-4.181244198549536,1.859777999639061,-0.35844930033727707,-1.9139021543297086,-26.103917020383864
0.45525512602598756,-4.200383220092833,1.8561935066356883,-0.6194884705411157,-1.882179419444984,-26.474732994255262
0.4132512938250592,-4.219205014287283,1.849998621930277,-0.8842358004836683,-1.7553980172988815,-26.827885272137802
0.37105924368218635,-4.2367589944602715,1.8411562639254404,-1.1525146532050463,-1.528063388200787,-27.149591681057167
0.32869165373758363,-4.252039628342279,1.82963111739339,-1.424010570015618,-1.1948944181210666,-27.42589156436213
0.28617125745416083,-4.26398857252349,1.8153910116932337,-1.6982694856592393,-0.7510584308815818,-27.642977370145346
0.24353137172892592,-4.271499156832306,1.7984083168366414,-1.9746992593606927,-0.19244402394721252,-27.787568363214532
0.20081638016060285,-4.273423597071778,1.7786613242430345,-2.252574942992838,0.48404231240540974,-27.84732650991709
0.1580821441898851,-4.268583173947724,1.756135574813106,-2.531048208092009,1.280171154793441,-27.811307872145846
0.11539631245040785,-4.25578146239979,1.730825092732186,-2.8091612868134677,2.196093780535707,-27.670437060886442
0.07283849782640994,-4.233820524594433,1.7027334798640512,-3.085865657422332,3.2300732740225193,-27.417987500996055
0.03050029258046561,-4.201519791854208,1.671874823289828,-3.360045532432293,4.378263194134171,-27.05004660337757
-0.011514905338076468,-4.157737159912866,1.638274367965505,-3.6305459984660686,5.63455444957029,-26.565942616077226
-0.05309227693720513,-4.101391615417163,1.6019689079808443,-3.896205424626841,6.990510589935126,-25.96860911457841
-0.09410619309137676,-4.031486509517812,1.563006853734576,-4.155891515772625,8.435410058763901,-25.26486395925996
-0.13442105818655486,-3.947132408930173,1.5214479385768498,-4.408540155365225,9.956410880548464,-24.46558224771549
-0.1738923822758566,-3.8475683001246885,1.4773625370231975,-4.65319597784238,11.53884862658076,-23.58574746456879
-0.2123680652771035,-3.732179813858881,1.4308305772447738,-4.889053452488068,13.166672275408153,-22.644371793906313
-0.24968986341569233,-3.6005130911047996,1.3819400427198931,-5.1154971704271315,14.82301486866597,-21.664285430303345
-0.28569499432674034,-3.45228294241814,1.3307850710156217,-5.332140024730165,16.49088702806871,-20.67180553206529
-0.3202178237509217,-3.2873740721374527,1.27746367076832,-5.538858080050819,18.153972124252874,-19.69630772095673
-0.3530915644722963,-3.105834350894924,1.222075089967812,-5.735821157260386,19.79749315882323,-18.769735850705086
-0.38414990798124554,-2.907859419306692,1.164716878395208,-5.923518515767436,21.409114401204313,-17.92609779480969
-0.41322850217431245,-2.693768275294649,1.1054816932375335,-6.102779493715533,22.979836572539057,-17.2010044767541
-0.44016618492725895,-2.463969909569258,1.0444538983003782,-6.274789538483074,24.50484340406797,-16.631314153702665
-0.46480588402295153,-2.2189214755285787,0.9817060029155474,-6.441102680020101,25.984259077411664,-16.25494150997375
-0.4869950987782373,-1.959078884754462,0.9172949761153464,-6.603652095119838,27.42377777116166,-16.110877964721514
-0.5065858876257819,-1.6848411070428453,0.851258455164148,-6.7647608747670525,28.83512251112231,-16.239440055228243
-0.5234342986962104,-1.3964898819316223,0.7836108464164775,-6.927155275319335,30.236269708133655,-16.682705847337786
-0.5373991975155266,-1.0941271848502856,0.7143392936632842,-7.093982333792713,31.651317818343976,-17.484992553496554
-0.5483404693640295,-0.7776140066668458,0.643399470325357,-7.268832259327678,33.10974569864961,-18.693025624670756
-0.556116609430698,-0.44651654968034965,0.5707111477320803,-7.455762515574386,34.644527181396185,-20.35505685840026
-0.5605817749275015,-0.10007127786638781,0.49615352257633644,-7.659313084158389,36.28800806095984,-22.51742155939401
-0.5615824877061654,0.2628088027432106,0.41956039173475257,-7.884487299752329,38.063359239814936,-25.215530739291925
-0.5589543996787333,0.6434423951413599,0.3407155187372293,-8.136642607145248,39.96736000493085,-28.453451967807474
-0.5525199757273197,1.0431159951906683,0.25934909266577677,-8.421177126823324,41.936612168368825,-32.16112212161053
-0.542088815775413,1.4624821168743565,0.17513732139754354,-8.74278834803943,43.78366329785668,-36.11021099204907
-0.5274639946066695,1.9003187498529233,0.08770943791714925,-9.10389045795992,45.08410099277705,-39.76146626084727
-0.5084608071081402,2.351159759780694,-0.003329466662449959,-9.501505120568392,45.00330958390551,-42.02535889641814
-0.48494920951033327,2.801192855619749,-0.09834451786813389,-9.921758709532574,42.11540561561329,-41.00339595372031
-0.45693728095413577,3.2223469117758823,-0.19756210496345963,-10.331792669069777,34.47263033335193,-34.05912738709421
-0.42471381183637696,3.5670732151094016,-0.30088003165415744,-10.67238394294072,20.509597267400732,-19.019845190149265
-0.38904307968528296,3.7721691877834087,-0.40760387108356466,-10.862582394842212,1.095796183263076,3.053308065039919
-0.35132138780744887,3.7831271496160395,-0.5162296950319868,-10.832049314191813,-19.091357101487134,26.019171545056608
-0.3134901163112885,3.592213578601168,-0.624550188173905,-10.571857598741248,-34.176906126510715,42.21662337830047
-0.2775679805252768,3.250444517336061,-0.7302687641613175,-10.149691364958244,-41.73762380954693,48.691896749560016
-0.24506353535191622,2.8330682792405915,-0.8317656778108999,-9.662772397462644,-43.374153224706326,47.80761725476924
-0.2167328525595103,2.399326746993528,-0.9283934017855264,-9.184696224914951,-41.82758189681978,43.28127874097386
-0.192739585089575,1.9810509280253303,-1.020240364034676,-8.751883437505212,-39.068492577382536,37.67966914857295
-0.1729290758093217,1.590366002251505,-1.1077591984097281,-8.375086746019482,-36.105156551899086,32.24769062154061
-0.15702541578680665,1.2293144367325142,-1.191510065869923,-8.052609839804076,-33.34881438990216,27.442753980104065
-0.1447322714194815,0.8958262928334926,-1.2720361642679636,-7.778182300003035,-30.921879309942966,23.35922510217294
-0.13577400849114657,0.5866074997340629,-1.349817987267994,-7.544590048981306,-28.825713094585453,19.951027776625697
-0.12990793349380594,0.29835036878820836,-1.4252638877578072,-7.345079771215048,-27.018226472909987,17.13022714735746
-0.12692442980592386,0.028168104059108467,-1.4987146854699578,-7.173777499741473,-25.44670921310179,14.806019703830845
-0.12664274876533277,-0.22629898807190946,-1.5704524604673726,-7.025717302703165,-24.06057750445947,12.89796459792939
-0.12890573864605187,-0.4669047631165042,-1.6407096334944042,-6.896737656723871,-22.815602908879406,11.338847388803615
-0.13357478627721692,-0.6950607922052983,-1.709677010061643,-6.783349182835835,-21.67472052683566,10.073740784122284
-0.1405253941992699,-0.9118079974736548,-1.7775105018900013,-6.682611774994612,-20.607588466740363,9.057941740013742
-0.14964347417400645,-1.1178838821410584,-1.8443366196399473,-6.592032357594475,-19.589791322767756,8.254818547500246
-0.16082231299541702,-1.3137817953687358,-1.910256943215892,-6.509484172119472,-18.602030582397777,7.63392339045082
-0.17396013094910437,-1.4998021011927136,-1.9753517849370867,-6.433144938214964,-17.62941311808478,7.169456711322088
-0.1889581519610315,-1.6760962323735615,-2.0396832343192366,-6.361450371101743,-16.66085496696929,6.839070414048146
-0.2057191142847671,-1.8427047820432545,-2.103297738030254,-6.293059666961261,-15.68858309650901,6.622966136610963
-0.22414616210519966,-1.9995906130083445,-2.1662283346998668,-6.2268300055951515,-14.707708712576736,6.503240011069963
-0.24414206823528312,-2.146667700134112,-2.2284966347558184,-6.161797605484452,-13.715847046044903,6.463429025394071
-0.26560874523662426,-2.283826170594561,-2.290114610810663,-6.097163315230511,-12.712763959057819,6.488219515778976
-0.28844700694256986,-2.410953810185139,-2.351086243962968,-6.032281120072722,-11.700036254763098,6.563283175793154
-0.31255654504442126,-2.52795417273277,-2.4114090551636953,-5.96664828831479,-10.680718912504336,6.675209852019273
-0.337836086771749,-2.6347613618578136,-2.471075538046843,-5.899896189794597,-9.659017931573452,6.811509576241369
-0.3641837003903271,-2.7313515411735483,-2.530074499944789,-5.831781094032183,-8.639971692702911,6.960659200871435
-0.3914972158020626,-2.8177512581005772,-2.588392310885111,-5.762174502023469,-7.629146567218349,7.112172031371705
-0.41967472838306835,-2.8940427237727606,-2.6460140559053453,-5.691052781709752,-6.6323538977453635,7.256672201637158
-0.44861515562079596,-2.960366262750214,-2.7029245837224427,-5.618486059693381,-5.655395554173793,7.38595925138176
-0.4782188182482981,-3.016920218291952,-2.7591094443193764,-5.5446264671795635,-4.703844261208628,7.493052320413172
-0.5083880204312177,-3.063958660904038,-2.814555708991172,-5.469695943975432,-3.7828631075436694,7.572207352391149
-0.5390276070402581,-3.1017872919794747,-2.869252668430926,-5.3939738704515205,-2.897066427042702,7.618904437969648
-0.5700454799600528,-3.1307579562499015,-2.923192407135441,-5.317784826071824,-2.050421925279249,7.629805678639844
-0.6013530595225518,-3.151262175502694,-2.9763702553961595,-5.241486769285426,-1.2461917959804718,7.602686533966327
-0.6328656812775787,-3.163724093462499,-3.0287851230890137,-5.165459903945762,-0.486908838850317,7.536345428462165
-0.6645029222122036,-3.168593181851002,-3.0804397221284714,-5.09009644966114,0.22561762924698786,7.430497433416508
-0.6961888540307136,-3.166337005558532,-3.131340686625083,-5.015791475326975,0.8902719516466685,7.2856581759215695
-0.7278522240862989,-3.157434286042065,-3.1814986013783524,-4.9429348935677595,1.5065844462322027,7.103023890601548
-0.7594265669467195,-3.142368441579743,-3.23092795031403,-4.871904654661744,2.074671651038565,6.88435287672131
-0.790850251362517,-3.121621725069357,-3.2796469968606474,-4.803061125894531,2.5951697322304206,6.631852715908071
-0.8220664686132105,-3.095670027747053,-3.327677608119593,-4.73674259873545,3.0691655299176093,6.3480765892720346
-0.8530231688906811,-3.0649783724478765,-3.3750450341069476,-4.67326183284273,3.498128874950257,6.035831024590318
-0.8836729526151599,-3.029997083698374,-3.4217776524353747,-4.6129035225968265,3.883848966735786,5.698096488151616
-0.9139729234521436,-2.991158594031016,-3.467906687661343,-4.55592255771531,4.228376820223904,5.337961462458733
-0.9438845093924538,-2.948874825828777,-3.5134659132384964,-4.502542943090723,4.533975107879076,4.958570042107964
-0.9733732576507416,-2.903535074749986,-3.5584913426694036,-4.452957242669643,4.803076157462987,4.563082635256156
-1.0024086083982415,-2.855504313175356,-3.6030209150961,-4.4073264163170816,5.038248420288273,4.154649060940015
-1.0309636515299951,-2.8051218289724735,-3.647094179259271,-4.365779925707681,5.242171387125193,3.736393157338245
-1.05901486981972,-2.752700115101222,-3.690751978516348,-4.328415994134299,5.417618682451201,3.3114079322943355
-1.0865418709707322,-2.69852392827671,-3.7340361384576912,-4.295301914811356,5.567448890246527,2.8827602630126408
-1.1135271102534994,-2.6428494393742445,-3.776989157605805,-4.266474312181229,5.694603532060607,2.453504155224866
-1.1399556046472419,-2.5859034040536386,-3.819653900727617,-4.24193927062898,5.8021115059687665,2.026701572944013
-1.1658146386877783,-2.527882288993951,-3.862073293433907,-4.22167225489954,5.893099178690672,1.6054498189867392
-1.1910934615777178,-2.4689512972070444,-3.9042900159829026,-4.205617756709672,5.970805178178138,1.1929143552152206
-1.2157829745497881,-2.4092432454252632,-3.9463461935499993,-4.19368861315752,6.03859873633793,0.7923657714611982
-1.2398754070040408,-2.348857258061884,-3.9882830796815743,-4.185764955442909,6.10000015777934,0.40721931475018736
-1.2633639795846596,-2.2878572564840907,-4.030140729236003,-4.181692762295406,6.158701618623733,0.04107494766452061
-1.2862425521495005,-2.226270240297853,-4.071957656858958,-4.1812820128187616,6.2185860110846285,-0.30224470894776856
-1.308505254552479,-2.1640843801870067,-4.1137704769871455,-4.1843044599082395,6.283740933572728,-0.6186619965977327
-1.330146098354349,-2.1012469708512795,-4.155613521586228,-4.190491079874217,6.358464184629153,-0.9038218468800078
-1.3511585680628617,-2.037662329004988,-4.19751843238497,-4.199529298343017,6.4472562763727,-1.153085027458367
-1.3715351913529117,-1.9731897662412607,-4.2395137253684005,-4.211060148617601,6.55479459802895,-1.3615438925429695
-1.3912670890153243,-1.9076418202609713,-4.281624326854576,-4.224675587543031,6.685883040480885,-1.5240687811955753
-1.410343507217934,-1.8407829898561625,-4.323871082730006,-4.239916275354986,6.845370312140365,-1.6353942354620679
-1.4287513371164957,-1.7723292867347589,-4.366270245483556,-4.256270217709607,7.038030087363582,-1.6902546942960388
-1.4464746299838434,-1.701948985861123,-4.4088329476606525,-4.273172764652567,7.268396866901513,-1.6835788259068463
-1.4634941198424545,-1.629265017192108,-4.4515646753071785,-4.290008552911635,7.540553398686269,-1.6107496548040219
-1.4797867700143756,-1.5538594832052453,-4.494464760836295,-4.306116049459675,7.857869128034189,-1.4679335364411297
-1.4953253648464282,-1.4752807919249034,-4.537525921330892,-4.320795384824086,8.222694762414836,-1.2524743156078324
-1.5100781727656771,-1.393053844300755,-4.580733875179133,-4.333320127980164,8.636025761329785,-0.9633394154256504
-1.5240087112086846,-1.3066935866874572,-4.6240670764589344,-4.342953522134421,9.097157083973007,-0.6015923967026695
-1.537075647075559,-1.215722015847727,-4.667496611680279,-4.348969446101448,9.60336190106563,-0.17085275167631092
-1.5492328672340363,-1.1196883968370708,-4.710986306141293,-4.350677973618211,10.149636486258771,0.322309593303897
-1.560429751202407,-1.018192031974483,-4.754493085877475,-4.3474548776851725,10.7285596981123,0.8681073333582925
-1.5706116715221519,-0.91090643499336,-4.797967634654326,-4.3387738043515895,11.330315496304252,1.4534611563288002
-1.5797207358720855,-0.7976032800303174,-4.841355372697842,-4.324239192788301,11.94291823927683,2.06217390298823
-1.5876967686723886,-0.6781740976375491,-4.884597764625726,-4.303617453758419,12.55266176721034,2.6753888044596126
-1.5944785096487641,-0.5526474799654457,-4.92763393916331,-4.276863565713823,13.144785399594403,3.2723335682903825
-1.6000049844484185,-0.42119962596950167,-4.970402574820448,-4.2441402300309194,13.704316701120776,3.8313103575964913
-1.6042169807081135,-0.2841564589582939,-5.012843977120757,-4.205827126454954,14.217018477088455,4.33084928467917
