th1 (rad),w1 (rad/s),th2 (rad),w2 (rad/s),a1 (rad/s^2),a2 (rad/s^2)
5.183887370766864,-3.0746625143081685,0.7483212418904568,1.9675300891095995,8.766156277103903,-13.36585471590439
5.153140745623782,-2.9870009515371296,0.7679965427815528,1.8338715419505556,8.439707902165326,-12.543885522122391
5.12327073610841,-2.9026038725154764,0.7863352582010584,1.7084326867293316,8.183400230002528,-11.77355756547394
5.094244697383256,-2.820769870215451,0.8034195850683518,1.5906971110745922,7.988894458571208,-11.044568506641836
5.066036998681101,-2.740880925629739,0.8193265561790977,1.4802514260081738,7.848992559088872,-10.348781259447412
5.038628189424804,-2.66239100003885,0.8341290704391794,1.3767636134136998,7.757369932343036,-9.679882976166759
5.012004279424415,-2.58481730071542,0.8478967065733164,1.2799647836520323,7.708370899553019,-9.033109454277627
4.986156106417261,-2.5077335917198895,0.8606963544098367,1.189633689109256,7.696854622505585,-8.405016584845415
4.9610787705000625,-2.4307650454948337,0.8725926913009293,1.105583523260802,7.718081739077775,-7.793285123153741
4.9367711200451145,-2.353584228104056,0.8836485265335373,1.0276506720292646,7.767633945848004,-7.196548845053519
4.913235277764074,-2.2759078886455764,0.89392503325383,0.9556851835787294,7.841360136816097,-6.614239209261663
4.890476198877619,-2.1974942872774155,0.9034818850896172,0.8895427914861128,7.935343678322209,-6.046442097033744
4.868501256004845,-2.118140850494193,0.9123773130044783,0.8290783705157754,8.045886101380981,-5.493764132648087
4.847319847499903,-2.0376819894803835,0.9206680967096361,0.7741407291892946,8.169503032071207,-4.957207561526006
4.826943027605099,-1.9559869591596715,0.9284095040015291,0.7245686535740345,8.302928639091729,-4.438053723500289
4.807383158013502,-1.8729576727687542,0.9356551905372694,0.6801881163390316,8.443125310238258,-3.9377558480587185
4.788653581285814,-1.7885264196663717,0.9424570717006597,0.6408105578584444,8.58729570864889,-3.457842260131853
4.770768317089151,-1.7026534625798828,0.9488651772792441,0.6062321352571259,8.732894818231028,-2.999831169018132
4.753741782463352,-1.6153245143975725,0.9549274986318154,0.5762338235669446,8.877640063781172,-2.5651580755655945
4.737588537319376,-1.5265481137597607,0.9606898368674848,0.5505822428112886,9.019518072735728,-2.1551165341365697
4.722323056181779,-1.4363529330324034,0.9661956592955977,0.529031077469923,9.156787114441073,-1.770812606957892
4.707959526851455,-1.3447850618879926,0.9714859700702969,0.511322951400344,9.287974690103116,-1.4131329061678983
4.694511676232575,-1.2519053149869614,0.9765991995843003,0.49719162233866504,9.411870134932329,-1.0827256825307092
4.681992623082706,-1.1577866136376382,0.981571115807687,0.48636436551335793,9.527512420461715,-0.7799940283012434
4.670414756946329,-1.062511489433021,0.9864347594628206,0.4785644252303455,9.634173602052584,-0.505099942178746
4.659789642051998,-0.9661697534124951,0.991220403715124,0.47351342580855804,9.73133854232262,-0.2579777719321736
4.650127944517873,-0.8688563679892689,0.9959555379732096,0.4709336480892363,9.818681658791206,-0.038355409668199045
4.641439380837981,-0.7706695514013568,1.000664874454102,0.4705500939925543,9.896041500567598,0.15421843836309312
4.6337326853239675,-0.6717091363956809,1.0053703753940275,0.4720922783761852,9.963393964203371,0.32034256168235536
4.627015593960011,-0.5720751967536472,1.0100912981777894,0.4752957039930088,10.020824924052746,0.4607287033210119
4.621294841992475,-0.4718669475131197,1.0148442552177195,0.4799029910262189,10.06850298902227,0.5761656014885934
4.616576172517344,-0.371181917622897,1.0196432851279817,0.48566464704110485,10.106653016180681,0.6674828899070363
4.612864353341115,-0.27011538746109015,1.0244999315983927,0.4923394759401752,10.13553092181857,0.7355159560564616
4.610163199466504,-0.16876007824290445,1.0294233263577945,0.4996946355007398,10.15540024007144,0.7810726800350634
4.608475598684075,-0.06720607584219004,1.034420272712802,0.5075053623010904,10.166510794293973,0.8049028096337119
4.607803537925653,0.03445903210074969,1.0394953263358129,0.5155543903974276,10.169079771433449,0.807670577297576
4.60814812824666,0.13614982981508417,1.0446508702397872,0.5236310961704034,10.163275427548633,0.7899310369390328
4.609509626544811,0.23778258409057051,1.0498871812014912,0.5315304065397937,10.14920360479301,0.7521104956415645
4.611887452385717,0.3392746201385006,1.055202485266889,0.5390515114962093,10.1268972068308,0.6944913374913438
4.615280198587102,0.4405435922068086,1.0605930003818511,0.5459964248711228,10.096308759916191,0.6172014824854979
4.61968563450917,0.5415066798059706,1.0660529646305623,0.5521684396959777,10.057306178944915,0.520208689390826
4.62510070130723,0.6420797415954197,1.0715746490275222,0.557370526589886,10.009671859059832,0.40331989278184227
4.631521498723184,0.742176460186018,1.077148354293421,0.5614037255177043,9.95310522047877,0.2661857551836668
4.638943263325044,0.8417075123908058,1.082762391548598,0.564065583069541,9.887228843025683,0.10831060803290607
4.6473603384489515,0.9405798008210626,1.0884030473792934,0.56514868914987,9.811598332632316,-0.07093205822366344
4.656766136457162,1.0386957841473858,1.0940545342707921,0.5644393685676334,9.725716059473905,-0.27227842327226426
4.667153094298636,1.1359529447421248,1.0996989279564684,0.5617165843349108,9.629048890534149,-0.49654740743971304
4.678512623746058,1.2322434336474664,1.1053160937998174,0.5567511102605136,9.521050002047005,-0.7446079944580806
4.690835058082532,1.3274539336679365,1.1108836049024227,0.5493050303159328,9.401184793163939,-1.0173409508574214
4.704109597419212,1.421465781599576,1.116376655205582,0.5391316208073585,9.26896082545129,-1.3155952731381304
4.718324255235207,1.5141553898540887,1.1217679714136557,0.5259756680759773,9.123961578538555,-1.6401399403950963
4.733465809133748,1.6053950056394743,1.1270277280944154,0.5095742686720264,8.965883637348467,-1.991611859242038
4.749519759190143,1.695053842012959,1.1321234707811356,0.489658150079606,8.794576710648666,-2.3704612574649033
4.766470297610272,1.7829996091194458,1.1370200522819316,0.465953537504957,8.610085628054042,-2.776896203590728
4.784300293701467,1.869100465399986,1.1416795876569812,0.4381845754690497,8.412693182316215,-3.2108283834868936
4.802991298355466,1.9532273972231482,1.1460614334116717,0.4060762916341808,8.202962391526977,-3.6718227239572405
4.822523572327698,2.0352570211384178,1.1501221963280135,0.3693580643946084,7.9817764748436595,-4.159053877863951
4.842876142539081,2.115074785886854,1.1538157769719595,0.3277675256159689,7.750374596085602,-4.671272925968134
4.86402689039795,2.19257853184771,1.157093452228119,0.28105479635628755,7.510381269141243,-5.206787849828929
4.885952675716427,2.2676823445391223,1.159904000191682,0.22898691785799824,7.263827278803342,-5.763461326805869
4.908629499161819,2.340320617327156,1.162193869370262,0.17135230458993955,7.0131600917885395,-6.338729135473698
4.93203270533509,2.410452218245041,1.1639073924161614,0.10796501323520258,6.761242051146978,-6.929641894063794
4.956137227517541,2.4780646387565106,1.1649870425485134,0.03866859429456464,6.511335186472505,-7.5329319668941865
4.980917873905106,2.5431779906212357,1.165373728491459,-0.03666072537437723,6.267072236074565,-8.14510618062814
5.006349653811319,2.6058487129819814,1.165007121237715,-0.11811178718065864,6.032414443446302,-8.762563554260161
5.032408140941139,2.6661728574164445,1.1638260033659085,-0.20573742272326023,5.811597807324015,-9.381735672581716
5.059069869515303,2.7242888354896846,1.161768629138676,-0.2995547794490774,5.6090706519677545,-9.999245775647262
5.0863127578702,2.780379542009362,1.1587730813441852,-0.39954723720555,5.429426539127209,-10.612081281863041
5.114116553290294,2.8346738074006343,1.1547776089721298,-0.5056680500241805,5.2773375523247115,-11.21777350672966
5.1424632913643,2.8874471829238813,1.149720928471888,-0.617845785091477,5.157493741108708,-11.814577964566787
5.171337763193539,2.9390221203349682,1.1435424706209731,-0.7359915647371449,5.074554937314043,-12.401648984291281
5.200727984396889,2.9897676697081086,1.1361825549736018,-0.8600080545800577,5.033121210642007,-12.97920350164283
5.23062566109397,3.0400988818145285,1.1275824744278011,-0.989800089596486,5.037727937435659,-13.548670795732502
5.2610266499121146,3.090476161188885,1.1176844735318363,-1.125286797553811,5.092870895971015,-14.112827521989203
5.291931411524003,3.1414048701485955,1.1064316055562982,-1.2664150727737031,5.203066110863051,-14.675920495507322
5.3233454602254895,3.193435531257226,1.0937674548285612,-1.4131742777287764,5.372948524899112,-15.243783101495774
5.355279815538061,3.2471650165062167,1.0796357120512734,-1.565612108743734,5.607413171588742,-15.823954755864317
5.387751465703124,3.303239148222104,1.063979590963836,-1.7238516563023771,5.911802536490238,-16.425816343401983
5.420783857185345,3.3623571735870064,1.0467410744008123,-1.888109819736397,6.292144365548705,-17.06075790417527
5.454407428921215,3.4252786172424936,1.0278599762034484,-2.0587173987781497,6.755445354166209,-17.742397928542417
5.48866021509364,3.4928330707841555,1.007272802215667,-2.2361413780635737,7.310047832710853,-18.486876315182663
5.5235885458014815,3.5659335491112643,0.9849113884350312,-2.4210101412154,7.966058386855977,-19.31324497236242
5.5592478812925945,3.645594132979824,0.9607012870228773,-2.614142590939024,8.735858439014105,-20.243980226596967
5.595703822622393,3.7329527173699653,0.934559861113487,-2.816582393204994,9.634705276531088,-21.30563732097009
5.633033349796093,3.8292997701352762,0.9063940371814371,-3.0296387664146947,10.681423867554242,-22.529654143737837
5.671326347497446,3.9361140088108186,0.8760976495172901,-3.254935307852073,11.89916677945303,-23.953277743254713
5.710687487585553,4.055105676605349,0.8435482964387694,-3.49446808528462,13.316164401084572,-25.620509521177738
5.751238544351607,4.188267320616195,0.8086036155859232,-3.7506731804963973,14.966264684428984,-27.582793698441098
5.793121217557769,4.337929967460484,0.7710968837809592,-4.026501117480809,16.88879635533095,-29.898805247424615
5.836500517232374,4.506817931013794,0.7308318726061511,-4.325489169955055,19.12672792454314,-32.631913160461266
5.881568696542512,4.698085210259225,0.6875769809066006,-4.651808301559667,21.720922299918705,-35.842263162270754
5.928549548645105,4.915294433258412,0.6410588978910039,-5.010230933182375,24.695884171844742,-39.56707379138175
5.977702492977689,5.162253274976859,0.5909565885591801,-5.405901671096192,28.027651345020086,-43.77610842319772
6.0293250257274575,5.44252978842706,0.5368975718482182,-5.843662755328169,31.575853310041804,-48.2772035034265
6.083750323611728,5.758288321527478,0.47846094429493646,-6.326434790362434,34.94939120813778,-52.529075844059925
6.141333206827003,6.107782233608855,0.4151965963913121,-6.851725548803033,37.269770726203596,-55.310853538461636
6.202411029163091,6.480479940870891,0.3466793409032818,-7.40483408418765,36.852482316247425,-54.276369350706126
6.2672158285718,6.849004764033365,0.2726310000614053,-7.947597777694711,31.099385731230264,-45.80279415441107
6.335705876212134,7.159998621345668,0.19315502228445816,-8.405625719238822,17.5084239614581,-26.40270329909092
6.4073058624255905,7.335082860960249,0.10909876509206994,-8.669652752229732,-3.295990648447174,3.0367641853914056
6.480656691035193,7.302122954475777,0.02240223756977261,-8.639285110375818,-25.015583190724076,33.7009344256625
6.553677920579951,7.051967122568536,-0.06399061353398557,-8.302275766119193,-39.6090140860988,54.36606291895819
6.624197591805637,6.655876981707548,-0.1470133711951775,-7.758615136929611,-44.59140745393402,61.59320939041241
6.690756361622713,6.209962907168208,-0.2245995225644736,-7.142683043025486,-43.03396550455609,59.68727991571206
6.752855990694394,5.779623252122647,-0.29602635299472846,-6.545810243868366,-38.719036099630664,53.921732906483975
6.810652223215621,5.39243289112634,-0.3614844554334121,-6.006592914803526,-33.8720523608463,47.389711106017764
6.864576552126884,5.0537123675178774,-0.4215503845814474,-5.532695803743348,-29.406811213536308,41.35730533258919
6.915113675802063,4.759644255382514,-0.4768773426188809,-5.119122750417456,-25.581246556453223,36.17992678107978
6.962710118355888,4.503831789817982,-0.5280685701230554,-4.757323482606658,-22.395027137965197,31.85538386091537
7.007748436254068,4.279881518438329,-0.575641804949122,-4.438769643997505,-19.766620263528868,28.269373347420718
7.050547251438451,4.08221531580304,-0.6200295013890971,-4.156075910523298,-17.601304007700232,25.28946967428117
7.091369404596482,3.906202275726038,-0.66159026049433,-3.903181213780486,-15.813813700203097,22.79629893392974
7.130431427353742,3.748064138724007,-0.7006220726321348,-3.675218224441189,-14.33372895481368,20.69090413518185
7.167912068740982,3.60472684917587,-0.7373742548765467,-3.4683091830893704,-13.10488069755737,18.89390747593898
7.203959337232741,3.473678042200296,-0.7720573467074404,-3.2793701083299807,-12.083068313004672,17.34238537144114
7.238696117654744,3.3528473590702497,-0.8048510477907402,-3.1059462546155694,-11.23361837835535,15.98655858760384
7.272224591245446,3.240511175286696,-0.8359105103368959,-2.946080668739531,-10.529261686290694,14.78694631710375
7.304629702998313,3.135218558423789,-0.8653713170242912,-2.7982112055684936,-9.948419294191929,13.712103018741885
7.335981888582551,3.03573436548187,-0.8933534290799761,-2.6610901753810747,-9.473860251326954,12.736881603070797
7.36633923223737,2.9409957629686003,-0.9199643308337868,-2.5337213593503667,-9.091662063837719,11.841123381324737
7.395749189867056,2.850079142330223,-0.9453015444272905,-2.415310125537119,-8.790407043865546,11.008677733618754
7.424249981290358,2.762175071891568,-0.9694546456826617,-2.305223348200932,-8.560559493357989,10.226669952499083
7.451871732009273,2.676569476957988,-0.9925068791646711,-2.202956648675941,-8.393981496707353,9.484952453866244
7.478637426778853,2.5926296619909146,-1.0145364456514305,-2.1081071241372786,-8.283556148451094,8.775688913165045
7.504563723398762,2.5097941005064035,-1.0356175168928032,-2.0203502350056284,-8.222895730050483,8.093032286298682
7.529661664403826,2.4275651432058987,-1.0558210192428594,-1.9394199121426416,-8.206118824927568,7.432866521768111
7.553937315835885,2.345503954956623,-1.0752152183642858,-1.8650912469249605,-8.227684970500114,6.792588705689115
7.577392355385451,2.2632271052516217,-1.0938661308335353,-1.7971653598680695,-8.282278543856835,6.170913998877537
7.600024626437968,2.1804043198130536,-1.111837784432216,-1.735456219879294,-8.364735476168514,5.567690480876368
7.621828669636098,2.0967569650513687,-1.129192346631009,-1.6797793150705302,-8.47000736119401,4.983715209644601
7.6427962392866124,2.0120568914394283,-1.1459901397817143,-1.6299421629740842,-8.593157808991856,4.420546592997616
7.662916808201007,1.9261253133495098,-1.162289561411455,-1.585736697044108,-8.729385724512161,3.8803115832455584
7.682178061334501,1.8388314561043881,-1.1781469283818962,-1.5469335812116525,-8.8740697771086,3.3655091946726525
7.700566375895545,1.750090758333302,-1.1936162641940127,-1.513278489264926,-9.022827870140443,2.8788142960478935
7.718067283478878,1.6598624796318977,-1.208749049086662,-1.484490346304447,-9.171585093202737,2.4228874237295543
7.734665908275197,1.5681466286998704,-1.2235939525497064,-1.4602614720671514,-9.316643579040907,2.0001973929240804
7.750347374562196,1.4749801929094613,-1.2381965672703779,-1.4402594981379107,-9.454747980119494,1.6128637042249827
7.765097176491291,1.3804327131082663,-1.252599162251757,-1.424130861095661,-9.583140957700621,1.2625251690118027
7.778901503622373,1.28460130353126,-1.2668404708627135,-1.411505609405543,-9.699604114294248,0.9502399063715348
7.791747516657686,1.1876052623883175,-1.280955526956769,-1.4020032103418276,-9.802481123399058,0.6764200605834406
7.803623569281569,1.089580451154327,-1.2949755590601872,-1.3952390097359932,-9.890681305773372,0.4408024663463315
7.814519373793113,0.9906736380965933,-1.3089279491575472,-1.39083098507253,-9.963663435465259,0.24245428620299114
7.824426110174079,0.8910370037419406,-1.3228362590082725,-1.3884064422105,-10.02140099581294,0.07981059156531968
7.833336480211498,0.7908229937838112,-1.3367203234303775,-1.3876083362948468,-10.06433132555494,-0.04926084846454168
7.841244710149336,0.6901796805282617,-1.350596406793326,-1.3881009447794923,-10.093292007872359,-0.14737352691477693
7.848146506954619,0.5892467604495382,-1.364477416241121,-1.3895746800486402,-10.109448409210293,-0.21752152441198758
7.854038974559114,0.48815227635743524,-1.3783731630416074,-1.39174989529276,-10.114216460269565,-0.26297091313401577
7.858920497322689,0.3870101117547396,-1.392290661994535,-1.3943796044241001,-10.10918461728632,-0.28714953948886623
7.862790598440236,0.2859182655818764,-1.406234458038776,-1.3972510998189889,-10.096038506873418,-0.2935406670735461
7.865649781096055,0.18495788051314221,-1.4202069690369659,-1.4001865064897243,-10.076491121181819,-0.28558486613106515
7.867499359901187,0.08419296930132403,-1.434208834101863,-1.403042355151035,-10.052220678557413,-0.2665933008003595
7.8683412895942,-0.01632923748425011,-1.4482392576533734,-1.4057082881590386,-10.024817481493143,-0.23967431849315773
7.868177997219358,-0.11657741229918153,-1.4622963405349638,-1.4081050313439702,-9.995740359771778,-0.20767409209175836
7.867012223096366,-0.21653481589689932,-1.4763773908484035,-1.4101817722648877,-9.966282636016038,-0.17313108121502577
7.864846874937397,-0.3161976422570597,-1.4904792085710523,-1.411913083077038,-9.937547027491323,-0.13824330795205367
7.861684898514826,-0.41557311253197293,-1.5045983394018227,-1.4132955161565584,-9.910428517097449,-0.10484690054427938
7.857529167389507,-0.5146773977029474,-1.5187312945633884,-1.4143439851620012,-9.88560398715435,-0.07440403715768418
7.852382393412477,-0.613533437574491,-1.5328747344150084,-1.415088025533578,-9.863527299005085,-0.04799829598562817
7.846247059036732,-0.7121687105645418,-1.5470256146703443,-1.4155680084934343,-9.84442849930019,-0.02633545258511655
7.839125371931087,-0.8106129955575436,-1.5611812947552786,-1.4158313630192856,-9.828315916371777,-0.009747922215726769
7.831019241975511,-0.9088961547212614,-1.5753396083854714,-1.4159288422414429,-9.814980053579545,0.0017987129563037246
7.821930280428298,-1.0070459552570568,-1.5894988968078858,-1.4159108551118798,-9.803998369456725,0.008698356924392425
7.8118598208757275,-1.105085938951624,-1.6036580053590046,-1.415823871542636,-9.794740239168153,0.011697176286586848
7.8008089614862115,-1.2030333413433056,-1.617816244074431,-1.41570689977977,-9.786371604777681,0.011887113052155122
7.788778628072778,-1.3008970573910825,-1.6319733130722287,-1.4155880286492484,-9.777859033902201,0.010700420941669635
7.775769657498867,-1.3986756477301046,-1.6461291933587212,-1.4154810244398317,-9.76797311203418,0.009905197546009268
7.761782901021566,-1.4963553788504464,-1.6602840036031195,-1.4153819724643717,-9.755291290666623,0.011601583593326076
7.746819347233061,-1.5939082917571126,-1.6744378233277633,-1.4152659566284385,-9.738200501026084,0.01821801285131271
7.73088026431549,-1.6912902967673733,-1.6885904828940477,-1.4150837764999253,-9.71490002268232,0.032506620202021164
7.713967361347817,-1.7884392969941965,-1.702741320659047,-1.4147587102979051,-9.683405269022831,0.057536649418320415
7.696082968377874,-1.8852733496844247,-1.716888907762026,-1.414183343803722,-9.641553318776156,0.09668444554001199
7.67723023488103,-1.9816888828721864,-1.7310307412000632,-1.4132164993483218,-9.5870111847194,0.1536183711752933
7.657413346052308,-2.0775589947193804,-1.7451629061935463,-1.411680315636569,-9.517287966090239,0.23227675660738384
7.636637756105114,-2.172731874380283,-1.759279709349912,-1.4093575480704952,-9.429752176426499,0.33683678981652904
7.614910437361311,-2.2670293961445482,-1.773373284830617,-1.4059891801723299,-9.321655666934356,0.4716720895780311
