th1 (rad),w1 (rad/s),th2 (rad),w2 (rad/s),a1 (rad/s^2),a2 (rad/s^2)
1.4085084827256975,-1.5228500864972963,2.5594313268368682,-0.523872824421011,-8.742424150988105,-3.942173242854083
1.3932799818607244,-1.6102743280071774,2.554192598592658,-0.5632945568495519,-8.629679727777527,-4.370396517397716
1.3771772385806527,-1.6965711252849527,2.5485596530241628,-0.606998522023529,-8.510072090066101,-4.819423319128523
1.360211527327803,-1.7816718461856138,2.5424896678039275,-0.6551927552148142,-8.383213358686627,-5.288305557509645
1.342394808865947,-1.8655039797724802,2.5359377402517795,-0.7080758107899107,-8.248582025102847,-5.7760129110732095
1.3237397690682222,-1.9479898000235085,2.52885698214388,-0.7658359399006428,-8.105507334549271,-6.2814234679656025
1.3042598710679871,-2.0290448733690014,2.521198622744874,-0.8286501745802988,-7.953154500099991,-6.80331278011162
1.2839694223342972,-2.1085764183700015,2.512912120999071,-0.8966833023814149,-7.790511103687133,-7.340341450936136
1.262883658150597,-2.1864815294068727,2.503945287975257,-0.9700867168907763,-7.6163750757483015,-7.891041498978004
1.2410188428565283,-2.2626452801643557,2.494244420806349,-1.0489971318805564,-7.429344685895595,-8.453801879740178
1.2183923900548848,-2.3369387270233117,2.4837544494875434,-1.1335351506779583,-7.227811022709694,-9.026853703689138
1.1950230027846516,-2.409216837250409,2.472419097980764,-1.2238036877148497,-7.009953490338488,-9.608255856682131
1.1709308344121474,-2.479316372153794,2.4601810611036155,-1.319886246281671,-6.773738900539064,-10.19588190662997
1.1461376706906095,-2.5470537611591846,2.4469821986407987,-1.4218450653479706,-6.516924787083176,-10.787409362167702
1.1206671330790177,-2.6122230090300165,2.432763747987319,-1.5297191589696477,-6.237067609239473,-11.380312529414471
1.0945449029887175,-2.674593685122411,2.4174665563976228,-1.6435222842637924,-5.931536534711539,-11.97186038383109
1.0677989661374934,-2.7339090504695265,2.4010313335549847,-1.7632408881021033,-5.597533490507016,-12.559121026147375
1.040459875632798,-2.7898843853745965,2.3833989246739637,-1.8888320983635771,-5.232120131671227,-13.138974412780287
1.012561031779052,-2.8422055866913087,2.364510603690328,-2.02022184249138,-4.832252290297294,-13.708135128655421
0.9841389759121391,-2.890528109594282,2.344308385265414,-2.1573031937779343,-4.394822317693469,-14.263186988870771
0.9552336948161962,-2.9344763327712164,2.322735353327635,-2.2999350636666422,-3.916709508174937,-14.800631199295415
0.9258889314884841,-2.973643427852966,2.2997360026909686,-2.4479413756595965,-3.394838482090264,-15.316949659215778
0.8961524972099544,-3.0075918126738688,2.2752565889343725,-2.601110872251754,-2.8262449996209438,-15.80868473739079
0.8660765790832157,-3.035854262670078,2.249245480211855,-2.759197719625662,-2.208148171427237,-16.272536485745743
0.8357180364565149,-3.0579357443843507,2.2216535030155984,-2.9219230844831197,-1.5380274298630676,-16.70547776762021
0.8051386790126713,-3.0733160186829815,2.1924342721707673,-3.0889778621593216,-0.8137019367390798,-17.104887173530624
0.7744055188258415,-3.0814530380503724,2.161544493549174,-3.2600267338946276,-0.033409353320235015,-17.46869889125648
0.7435909884453378,-3.0817871315835745,2.128944226210228,-3.4347137228071922,0.8041198781630136,-17.795567916279452
0.712773117129502,-3.0737459328019443,2.094597088982156,-3.6126694019699865,1.6995973428289894,-18.085048175228252
0.6820356578014826,-3.0567499593736542,2.0584703949624563,-3.793519883722269,2.653125808788418,-18.337780345161168
0.6514681582077461,-3.03021870128577,2.0205351961252336,-3.9768976871738806,3.6641684633174534,-18.55568545241377
0.6211659711948884,-2.9935770166525955,1.9807662192534947,-4.162454541698018,4.73154415452487,-18.74215979707941
0.5912302010283624,-2.946261575107347,1.9391416738365146,-4.349876139668813,5.8534543499683025,-18.90226643338055
0.561767585277289,-2.887727031607664,1.8956429124398264,-4.538898804002618,7.027546762871627,-19.042918368859215
0.5328903149612123,-2.8174515639789477,1.8502539243998002,-4.72932798769121,8.251019116645413,-19.173048781601594
0.5047157993214229,-2.7349413728124934,1.802960644522888,-4.921058475507226,9.52076409479029,-19.30376371861573
0.4773663855932979,-2.6397337318645904,1.7537500597678157,-5.1140961126933835,10.83355282966315,-19.44847252810807
0.450969048274652,-2.5313982035679587,1.702609098640882,-5.308580837974464,12.186248795278805,-19.622989912544774
0.4256550662389724,-2.4095357156151707,1.6495232902611372,-5.504810737099912,13.57603578350947,-19.845599552789505
0.40155970908282074,-2.273775357780076,1.594475182890138,-5.703266732627807,15.000631157032235,-20.13706026406661
0.37882195550501996,-2.1237690462097536,1.53744251556386,-5.904637335268473,16.458435920990844,-20.520517305436904
0.3575842650429224,-1.959184686999845,1.4783961422111753,-6.109842508322842,17.94854124613212,-21.021246369267203
0.33799241817292397,-1.7796992745385238,1.4172977171279468,-6.320054972015514,19.47045796977126,-21.66609318559362
0.32019542542753876,-1.5849946948408111,1.3540971674077917,-6.536715903871451,21.023345886335687,-22.482355811923487
0.3043454784791306,-1.3747612359774544,1.2887300083690771,-6.761539461990686,22.6043674743245,-23.49565295587226
0.29059786611935606,-1.1487175612342093,1.2211146137491702,-6.996495991549408,24.205534798143443,-24.72597096779009
0.279110690507014,-0.9066622132527749,1.151149653833676,-7.243755701227309,25.807998797046263,-26.180496649346747
0.27004406837448625,-0.6485822252823122,1.078712096821403,-7.5055606677207765,27.372079336559523,-27.84091746446109
0.2635582461216631,-0.374861431916717,1.0036564901441953,-7.783969842365387,28.82044002344242,-29.641562828742728
0.25980963180249594,-0.08665703168229283,0.9258167917205414,-8.080385470652814,30.010940044209132,-31.43338737493904
0.25894306148567303,0.2134523687597985,0.8450129370140133,-8.394719344402205,30.69602207199039,-32.928896144061746
0.261077585173271,0.5204125894797025,0.7610657435699912,-8.724008305842823,30.470541666484458,-33.62942537509578
0.266281711068068,0.8251180061445471,0.673825660511563,-9.060302559593781,28.727668376778496,-32.75963931702309
0.2745328911295135,1.112394689912332,0.5832226349156252,-9.387898952764012,24.68387093620387,-29.290090545321885
0.28565683802863684,1.3592333992743708,0.4893436453879851,-9.680799858217231,17.59174342681722,-22.208252569450675
0.29924917202138057,1.535150833542543,0.39253564680581277,-9.902882383911738,7.245158173274125,-11.182002259442186
0.314600680356806,1.6076024152752844,0.2935068229666954,-10.01470240650616,-5.39787826978094,2.615941690956765
0.3306767045095588,1.553623632577475,0.1933597989016338,-9.988542989596592,-18.142945007320865,16.419429917667497
0.3462129408353336,1.3721941825042663,0.09347436900566787,-9.824348690419917,-28.5697358700206,27.218231364630313
0.35993488266037627,1.0864968238040602,-0.004769117898531308,-9.552166376773615,-35.38330069520422,33.523899566728176
0.3707998508984169,0.732663816852018,-0.10029078166626745,-9.216927381106332,-38.76471308243015,35.76705353662897
0.3781264890669371,0.3450166860277165,-0.19246005547733078,-8.859256845740042,-39.683128123072784,35.335479011234604
0.38157665592721424,-0.05181459520301135,-0.2810526239347312,-8.505902055627695,-39.13955874046389,33.57659485801886
0.38105850997518415,-0.44321018260765027,-0.36611164449100814,-8.170136107047506,-37.845374721790215,31.40569761743543
0.37662640814910764,-0.8216639298255524,-0.4478130055614832,-7.856079130873152,-36.2166982604589,29.3290149533007
0.36840976885085214,-1.1838309124301414,-0.5263737968702147,-7.5627889813401445,-34.46665787225508,27.582134202823536
0.35657145972655074,-1.528497491152692,-0.6020016866836161,-7.286967639311909,-32.69099857697505,26.248775923831428
0.3412864848150238,-1.8554074769224425,-0.6748713630767351,-7.024479880073595,-30.924482368894047,25.335424678955476
0.3227324100457994,-2.164652300611383,-0.7451161618774711,-6.77112563328404,-29.173325607947326,24.81227134957185
0.30108588703968553,-2.4563855566908566,-0.8128274182103115,-6.523002919788321,-27.432619136702442,24.634024297114326
0.276522031472777,-2.730711748057881,-0.8780574474081947,-6.276662676817177,-25.695261348993387,24.74993707569054
0.24921491399219817,-2.987664361547815,-0.9408240741763665,-6.029163306060272,-23.956293207101268,25.10843470602475
0.21933827037672002,-3.2272272936188275,-1.0011157072369692,-5.778078959000024,-22.21476849402959,25.65919708665151
0.18706599744053173,-3.4493749785591232,-1.0588964968269694,-5.521486988133509,-20.474290018305464,26.35414563923369
0.15257224765494048,-3.654117878742178,-1.1141113667083045,-5.257945531741171,-18.74280811312991,27.148029400421972
0.11603106886751871,-3.841545959873477,-1.1666908220257162,-4.986465237736952,-17.032004045509794,27.998917463575513
0.07761560926878394,-4.011866000328575,-1.2165554744030858,-4.706476063101197,-15.356444693926646,28.86870514565776
0.037496949265498195,-4.165430447267841,-1.2636202350340977,-4.417789011644619,-13.73262820170211,29.72364148149569
-0.004157355207180219,-4.302756729284862,-1.307798125150544,-4.120552596829661,-12.178007038743907,30.534839479555163
-0.04718492250002884,-4.4245367996723015,-1.3490036511188406,-3.8152042020341095,-10.710056065152143,31.27871430306003
-0.09143029049675186,-4.531637360323823,-1.3871556931391817,-3.502417059003509,-9.345439227757241,31.937295502610443
-0.1367466640999901,-4.625091752601396,-1.422179863729217,-3.1830441039774047,-8.099315015278869,32.498370217336245
-0.18299758162600405,-4.706084902754184,-1.454010304768991,-2.858060401804042,-6.984806149229191,32.95542992198558
-0.2300584306535459,-4.775932964246476,-1.4825909087870315,-2.528506102584186,-6.012643078937406,33.30741001348413
-0.27781776029601063,-4.83605939503585,-1.5078759698128734,-2.195432002449345,-5.190974210544828,33.558226082798726
-0.32617835424636915,-4.887969137141298,-1.5298302898373668,-1.8598497416213577,-4.5253190333450695,33.716120267597546
-0.3750580456177821,-4.933222327474749,-1.5484287872535805,-1.5226885389453821,-4.018623650152438,33.7928330642462
-0.4243902688925296,-4.973408563976274,-1.5636556726430342,-1.18476020830292,-3.671361191329262,33.80260796797687
-0.47412435453229235,-5.010122175889566,-1.5755032747260633,-0.8467341286231513,-3.4816007005437783,33.7610157743915
-0.524225576291188,-5.044938182895004,-1.5839706160122948,-0.5091239708792363,-3.4449445879751477,33.68354931858621
-0.5746749581201381,-5.0793876287747555,-1.5890618557210872,-0.17228847769337424,-3.5542025984469086,33.58388406750218
-0.6254688344078857,-5.114929654759225,-1.5907847404980209,0.1635503629816476,-3.7986244131518148,33.47162089927243
-0.676618130955478,-5.152915898890742,-1.5891492368682043,0.4982665719743719,-4.162449021104642,33.349221318699335
-0.7281472899443854,-5.194540389101789,-1.5841665711484605,0.8317587851613653,-4.622447445794422,33.20771615605277
-0.7800926938354033,-5.2407648635597335,-1.5758489832968468,1.163835946721893,-5.144053418083888,33.020643489573594
-0.8325003424710006,-5.292205397740572,-1.5642106238296278,1.494042381617629,-5.675653985890994,32.73563698903403
-0.8854223964484063,-5.348961937599482,-1.5492702000134515,1.8213987515079693,-6.140804112755111,32.26336280540795
-0.9389120158244011,-5.410369978727033,-1.5310562124983718,2.1440323795620486,-6.428873723744496,31.464567651970693
-0.9930157156116715,-5.474658715964478,-1.5096158887027513,2.4586780560817556,-6.386537172630537,30.138700873356363
-1.0477623027713163,-5.538524087690783,-1.4850291081419338,2.7600650648153193,-5.816326924655806,28.02295543370995
-1.103147543648224,-5.596687356937341,-1.4574284574937806,3.040294619152419,-4.494194294949123,24.81859826934383
-1.1591144172175976,-5.641629299886833,-1.4270255113022563,3.2884806018458574,-2.222304203349555,20.267344488358386
-1.2155307102164659,-5.663852341920328,-1.3941407052837977,3.4911540467294415,1.0741908825626922,14.289633991767568
-1.2721692336356691,-5.653110433094701,-1.3592291648165034,3.634050386647117,5.231294154413128,7.14872625253034
-1.3287003379666162,-5.60079749155057,-1.322888660950032,3.705537649172421,9.789954934973869,-0.4717007511148745
-1.384708312882122,-5.502897942200831,-1.2858332844583078,3.700820641661272,14.092085585923774,-7.607717781475037
-1.4397372923041303,-5.361977086341593,-1.2488250780416952,3.6247434638465217,17.523068999234788,-13.363886428703594
-1.4933570631675461,-5.186746396349245,-1.21257764340323,3.4911045995594856,19.746595872701914,-17.250152766184215
-1.5452245271310385,-4.989280437622226,-1.1776665974076352,3.3186030718976434,20.768990936565224,-19.274338360554975
-1.5951173315072609,-4.781590528256574,-1.1444805666886588,3.1258596882920937,20.830270312060915,-19.785916975041022
-1.6429332367898266,-4.5732878251359645,-1.113221969805738,2.9280005185416833,20.244895005021085,-19.246550586796555
-1.6886661150411864,-4.370838875085754,-1.0839419646203212,2.7355350126737177,19.292434205339354,-18.071194543440384
-1.732374503792044,-4.177914533032361,-1.056586614493584,2.554823067239314,18.176823816149515,-16.567435504468232
-1.7741536491223675,-3.9961462948708655,-1.031038383821191,2.3891487121946318,17.028580040685767,-14.936989315813806
-1.8141151120710761,-3.825860494464008,-1.0071468966992447,2.2397788190364936,15.92271025732085,-13.300446337810769
-1.8523737170157162,-3.6666333918907994,-0.9847491085088798,2.106774355658386,14.897409446967721,-11.72372829355946
-1.8890400509346241,-3.517659297421122,-0.963681364952296,1.9895370727227915,13.968450673915564,-10.238726428236053
-1.9242166439088353,-3.3779747906819666,-0.943785994225068,1.887149808440431,13.138859135569373,-8.857349627677499
-1.9579963918156549,-3.246586199326273,-0.9249144961406637,1.798576312163656,12.404935845663069,-7.580398037985042
-1.9904622538089176,-3.122536840869642,-0.9069287330190271,1.7227723317838055,11.759819946432822,-6.4029081088087745
-2.021687622217614,-3.004938641405314,-0.889701009701189,1.6587432506957178,11.195506611048506,-5.317258247509345
-2.051737008631667,-2.8929835752948287,-0.8731135771942319,1.6055706682206243,10.703937161361718,-4.314911474931706
-2.0806668443846155,-2.7859442036812117,-0.8570578705120256,1.5624215534713073,10.277548734124977,-3.387351149154535
-2.1085262864214274,-2.683168716339962,-0.8414336549773126,1.528548041979762,9.90951755644416,-2.52654942627344
-2.135357973584827,-2.58407354077552,-0.826148174557515,1.5032825477170275,9.593833820903725,-1.7251712517611868
-2.161198708992582,-2.488135202566483,-0.8111153490803447,1.4860308351994156,9.325288013446338,-0.9766330861469598
-2.186080061018247,-2.3948823224320197,-0.7962550407283505,1.476264504337946,9.099414088658357,-0.27508552714737766
-2.210028884242567,-2.303888181545436,-0.7814923956849711,1.4735136490664724,8.91241474051802,0.3846406067132508
-2.2330677660580216,-2.214764034140256,-0.7667572591943064,1.477360055133605,8.761082364246784,1.0071025228261228
-2.255215406399424,-2.1271532104977884,-0.7519836586429703,1.4874310803618662,8.642722639203654,1.5963159234357096
-2.276486938504402,-2.0407259841057517,-0.7371093478393517,1.5033942395962234,8.555083903058636,2.155821410758803
-2.2968941983454596,-1.9551751450751653,-0.7220754054433894,1.5249524537038115,8.496293410412019,2.6887438525128333
-2.3164459497962113,-1.870212210971045,-0.7068258809063513,1.5518398922289398,8.464800459033732,3.1978435735372033
-2.335148071905922,-1.7855642063807078,-0.691307481984062,1.5838183279643119,8.459325806998852,3.685559226851507
-2.353003713969729,-1.7009709483107192,-0.6754692987044189,1.6206739202328269,8.478816552186302,4.154042693780065
-2.370013423452836,-1.6161827827888562,-0.6592625595020906,1.6622143471706274,8.522405562324035,4.605186581184023
-2.386175251280725,-1.5309587271656158,-0.6426404160303842,1.7082662129824677,8.589374549427829,5.040644950105733
-2.401484838552381,-1.4450649816713375,-0.6255577539005596,1.7586726624835252,8.679119932680996,5.461847898287784
-2.415935488369094,-1.3582737823445274,-0.6079710272757243,1.813291141466403,8.791120704782625,5.870010572783371
-2.4295182261925397,-1.2703625752967012,-0.5898381158610603,1.8719912471942368,8.924907596983974,6.266137134241771
-2.4422218519455066,-1.1811134993268615,-0.5711182033891179,1.9346526185366546,9.080032923112737,6.651020147276226
-2.4540329869387754,-1.090313170095734,-0.5517716772037513,2.0011628200094167,9.256040572904137,7.025235841725615
-2.4649361186397325,-0.9977527643666927,-0.5317600490036571,2.071415178426673,9.452435722657519,7.389135684619468
-2.4749136462833996,-0.9032284071401175,-0.5110458972193904,2.1453065352728675,9.668653941042043,7.7428347276211
-2.4839459303548006,-0.8065418677296972,-0.48959283186666175,2.2227348825490787,9.904029495226501,8.086197254120954
-2.4920113490320976,-0.7075015727774321,-0.467365483041171,2.303596855090288,10.157762813334452,8.418820347754721
-2.499086364759872,-0.6059239446440876,-0.4443295144902681,2.3877850585678355,10.42888723939639,8.74001614281682
-2.5051456042063127,-0.5016350722501237,-0.4204516639045897,2.475185219996004,10.716235431623595,9.048793698279399
-2.510161954928814,-0.3944727179338878,-0.39569981170462964,2.565673156978798,11.018406007485938,9.343841660019422
-2.5141066821081526,-0.2842886578590284,-0.37004308013484166,2.659111573578992,11.333731330481,9.623513135929388
-2.516949568686743,-0.1709513445542184,-0.34345196439905173,2.755346704938286,11.660247660133818,9.885814496242086
-2.518659082132285,-0.054348867952880214,-0.3158984973496689,2.854204849900707,11.995669239174914,10.128400110144492
-2.5192025708118138,0.06560782443886892,-0.28735644885066186,2.9554888510021518,12.337368252616242,10.34857531439983
-2.5185464925674252,0.18898150696503135,-0.25780156034064033,3.05897460414615,12.682362935422196,10.543310144797973
-2.516656677497775,0.31580513631925333,-0.22721181429917883,3.16440770559413,13.027316390295729,10.709266500284627
-2.5134986261345826,0.4460783002222106,-0.19556773724323753,3.2715003705969763,13.368548854730662,10.842841395454629
-2.5090378431323606,0.5797637887695173,-0.16285273353726776,3.3799287845515225,13.702066166391408,10.94022872458774
-2.503240205244665,0.7167844504334313,-0.12905344569175253,3.4893310717974,14.02360695067888,10.997501441821953
-2.496072360740331,0.8570205199402201,-0.09416013497377854,3.5993060862156194,14.32871052659304,11.010715196014603
-2.4875021555409287,1.0003076252061505,-0.05816707411162234,3.7094132381757654,14.612806639688623,10.976033202948656
-2.4774990792888674,1.1464356916030367,-0.021072941729864687,3.819173570205252,14.871326851378534,10.889870484193686
-2.466034722372837,1.295148960116822,0.017118793972187837,3.928072275047189,15.099835750063432,10.749053595485032
-2.453083232771669,1.4461473176174564,0.05639951672265973,4.035562811002039,15.294178166453602,10.550989719713119
-2.4386217595954944,1.5990890992819924,0.09675514483268012,4.141072708199171,15.450636407248584,10.293836698932909
-2.4226308686026745,1.7535954633544781,0.13816587191467183,4.244011075188499,15.566089375507781,9.976663489000238
-2.4050949139691298,1.909256357109556,0.18060598266655684,4.343777710078502,15.638163593627963,9.599588958031337
-2.386002350398034,2.0656379930458355,0.22404375976734187,4.439773599658816,15.665364893840309,9.163886252367544
-2.3653459704675757,2.2222916419842385,0.26844149576393,4.531412462182491,15.647179192476871,8.672040420220185
-2.3431230540477332,2.378763433909007,0.3137556203857549,4.618132866384693,15.584131554787222,8.127748809461437
-2.319335419708643,2.5346047494568795,0.35993694904960183,4.6994103544793075,15.477794799437389,7.535856971054518
-2.2939893722140745,2.6893826974512534,0.4069310525943949,4.7747689241898525,15.33074212523379,6.9022272211446545
-2.267095545239562,2.842690118703591,0.4546787418362934,4.843791196401299,15.146442410131504,6.233542240916396
-2.238668644052526,2.9941545428049063,0.5031166538003065,4.906126618810463,14.929101496529313,5.537051540294761
