th1 (rad),w1 (rad/s),th2 (rad),w2 (rad/s)
3.8640666658162437,2.4005890807131705,0.5830052111475936,0.590814931026188
3.8880725566233756,2.468012781740404,0.5889133604578555,0.5956201806821979
3.91275268444078,2.5367720163847363,0.5948695622646775,0.5995349176635786
3.938120404604627,2.606678721699658,0.6008649114413133,0.6021528753829076
3.964187191821624,2.6775267106720904,0.6068864401951424,0.6030339368943406
3.990962458928345,2.749092895334716,0.6129167795640857,0.6017061521164141
4.018453387881692,2.821139109361542,0.6189338410852498,0.5976687039413141
4.046664778975307,2.8934145933165176,0.624910528124663,0.5903959001835706
4.075598924908473,2.965659195883146,0.6308144871264987,0.5793422429755848
4.105255516867304,3.037607329375956,0.6366079095562546,0.5639485920419397
4.135631590161064,3.1089926968903394,0.642247395476674,0.5436493923763653
4.166721517129967,3.179553781125249,0.6476838894004376,0.517880879910025
4.198517054941219,3.2490400512251933,0.6528626981995379,0.4860901114289119
4.231007455453471,3.317218804647941,0.6577235993138271,0.4477445891635369
4.264179643499951,3.3838825177166547,0.6622010452054624,0.40234216958192015
4.2980184686771175,3.448856533913616,0.6662244669012816,0.34942086513814197
4.3325070340162535,3.5120068770471216,0.669718675552663,0.2885680739070479
4.367627102786725,3.573247942167751,0.6726043562917334,0.21942871331397368
4.403359582208402,3.632549796237214,0.6747986434248732,0.14171169922280136
4.439685080170775,3.6899448188902664,0.6762157604171012,0.05519420852140104
4.476584528359678,3.7455334362985604,0.6767677025023152,-0.04027680201974097
4.514039862722663,3.7994887516227256,0.6763649344821178,-0.14478627318826165
4.5520347502388905,3.8520599547915717,0.6749170717502352,-0.25835625779026317
4.590555349786806,3.9035745002508286,0.6723335091723326,-0.3809548725105622
4.629591094789315,3.9544391685957487,0.668523960447227,-0.5125090333043807
4.669135486475272,4.00514026879112,0.6633988701141832,-0.6529208716775392
4.709186889163184,4.056243382832174,0.6568696613974078,-0.8020876080835628
4.749749322991506,4.1083931955364985,0.6488487853165721,-0.959924587516872
4.790833254946871,4.16231408250594,0.6392495394414034,-1.1263911810334708
4.83245639577193,4.218812247353729,0.6279856276310687,-1.3015193406194656
4.874644518245468,4.278780308979075,0.6149704342248741,-1.4854447732620555
4.917432321335259,4.343205351219083,0.6001159864922535,-1.6784409778711995
4.96086437484745,4.413181576783761,0.5833315767135415,-1.8809567669459004
5.004996190615287,4.489928875600695,0.5645220090440826,-2.0936583730240184
5.049895479371294,4.574818846509196,0.5435854253138424,-2.317477816267235
5.095643667836386,4.669410117649391,0.52041064715117,-2.5536698769222603
5.14233776901288,4.7754951935150505,0.4948739483819474,-2.8038807470969633
5.190092720948031,4.8951614655824836,0.4668351409109778,-3.0702321414865934
5.239044335603856,5.030869291220495,0.4361328194961118,-3.355425079994779
5.289353028516061,5.185549728165816,0.40257856869616404,-3.6628670887523684
5.341208525797719,5.3627225217352015,0.36594989780864035,-3.9968236747269414
5.394835751015071,5.566628701016251,0.32598166106137094,-4.362586001637218
5.450502038025234,5.802355626098441,0.28235580104499874,-4.76662329479695
5.508525594286218,6.075891620340013,0.23468956809702923,-5.216631125056374
5.569284510489618,6.393950815498143,0.1825232568464655,-5.721251073443886
5.6332240186446,6.763187886360445,0.12531074611202664,-6.288927116767923
5.700855897508204,7.18794450202079,0.06242147494434741,-6.9246936412937785
5.772735342528413,7.664764377125502,-0.00682546146859038,-7.622420633045785
5.849382986299668,8.170798821570017,-0.08304966779904822,-8.34847918277457
5.931090974515368,8.644529874653776,-0.16653445962679392,-9.01463453557331
6.017536273261906,8.97049422071596,-0.256680804982527,-9.456628639700794
6.107241215469066,9.01230573728367,-0.3512470913795349,-9.480775683523195
6.197364272841902,8.725873477558796,-0.4460548482147669,-9.023358748652255
6.2846230076174905,8.226935206612556,-0.5362884357012894,-8.24577569080978
6.366892359683616,7.6809034863508785,-0.6187461926093871,-7.380070415949421
6.443701394547125,7.185218749710597,-0.6925468967688814,-6.5637226634488455
6.51555358204423,6.7687514189742926,-0.7581841234033698,-5.838339810497257
6.583241096233973,6.429101592380922,-0.8165675215083424,-5.201576643534545
6.647532112157782,6.155049408112291,-0.8685832879436879,-4.638490834126224
6.709082606238905,5.934898902510535,-0.9149681962849501,-4.133273958608442
6.76843159526401,5.75873145139793,-0.9563009358710345,-3.672494059918554
6.826018909777989,5.6186305998422625,-0.99302587647022,-3.2455004658091378
6.882205215776412,5.508361935410739,-1.0254808811283114,-2.844058478373549
6.937288835130519,5.4229788591091586,-1.0539214659120468,-2.461872223423434
6.9915186237216105,5.358481956612198,-1.0785401881462813,-2.0941749940100975
7.045103443287733,5.3115527801911435,-1.0994819380863823,-1.7374159550582553
7.098218971089644,5.279353753609673,-1.1168560976369648,-1.3890299969226567
7.151012508625741,5.259381036664722,-1.1307463976061913,-1.0472694515013614
7.203606318992389,5.249358974434471,-1.1412190921212049,-0.7110780115311462
7.256099908736734,5.247167646732107,-1.1483298722365163,-0.3799909326823563
7.308571585204055,5.250797406275512,-1.1521297815633398,-0.05404934894101382
7.36107955926681,5.258325803794885,-1.15267027505275,0.2662800836226143
7.4136628173047585,5.267913004951842,-1.1500074742165238,0.5801859108223921
7.466341947354277,5.277811904745574,-1.1442056151083,0.8865957864510209
7.519120066401732,5.286388892849685,-1.1353396572437897,1.184263724509972
7.571983955330229,5.292150890070045,-1.12349701999869,1.471858589374912
7.624905464230929,5.293774115261283,-1.108778434104941,1.7480500382066573
7.677843205383542,5.290130242999767,-1.0912979337228743,2.011587249412907
7.73074450781354,5.28030625964945,-1.0711820612287453,2.2613657901868773
7.783547570410034,5.263615379975158,-1.0485684033268765,2.4964788424679765
7.836183724209786,5.239597699436544,-1.0236036149021968,2.7162505071504492
7.888579701204151,5.2080106158801485,-0.9964411098306922,2.9202507160066715
7.940659807362953,5.168810242822778,-0.9672386026706256,3.1082930451609565
7.992347909791181,5.122125892126683,-0.936155672219016,3.280418145011477
8.043569168712448,5.06823014964062,-0.9033514907689012,3.436866397459447
8.094251470208855,5.007507115426396,-0.8689828267943067,3.5780437353428134
8.14432654136312,4.940421110558202,-0.8332023894408785,3.7044843793226874
8.193730752468701,4.867487679919903,-0.7961575456476516,3.816813704011772
8.2424056292679,4.789248161885518,-0.7579894086075339,3.915713701137755
8.290298110886756,4.706248547299123,-0.7188322715961564,4.00189271102226
8.337360596359748,4.619022876051236,-0.6788133444859338,4.076060355008379
8.38355082512026,4.528081051937245,-0.63805274093585,4.138907986880265
8.428831635639632,4.433900701641013,-0.5966636610670473,4.1910945175326635
8.473170642656042,4.336922550742384,-0.5547527158917206,4.233237151895507
8.516539868163466,4.237548718963573,-0.5124203443727655,4.265906390634922
8.558915355353102,4.1361433264742615,-0.4697612804664163,4.289624563989178
8.600276788617846,4.033034832757038,-0.4268650348265245,4.3048671530737845
8.640607136945416,3.928519582888112,-0.38381636329578667,4.3120661902742405
8.679892332774298,3.822866101073261,-0.3406957013930443,4.311615095261777
8.71812099378503,3.716319739878128,-0.2975795504404265,4.303874382446636
8.755284191183812,3.609107361024684,-0.2545408066159601,4.289177759828502
8.791375264794059,3.5014417874420127,-0.2116490290176751,4.267838222469586
8.826389682668479,3.393525825496829,-0.16897064679297924,4.240153823121038
8.860324940923448,3.2855557108239344,-0.12656910856176884,4.206412876485801
8.893180498031688,3.177723881062349,-0.08450497979691082,4.1668984217244995
8.92495773684231,3.0702210241871426,-0.042835995579665824,4.121891829992287
8.955659947084182,2.963237391928862,-0.0016170772797429525,4.071675499940431
8.98529232100347,2.8569634036841958,0.03909967771966136,4.016534633988669
9.013861955040312,2.751589596863126,0.07926502405954805,3.956758131363204
9.041377851008944,2.6473060042472336,0.11883260537318009,3.8926386698881887
9.067850911051416,2.544301057179283,0.15775899207206198,3.8244720768212535
9.093293921623209,2.4427601249895683,0.1960037128402745,3.752556109295078
9.117721522873104,2.342863806003459,0.2335292739332253,3.6771887770959104
9.141150160933138,2.2447860841203053,0.2703011617041844,3.5986663448516403
9.163598021774341,2.1486924579975732,0.3062878251527008,3.517281147862
9.185084946354317,2.0547381382968317,0.3414606366313208,3.433319346768408
9.205632327737286,1.9630663934362702,0.3757938300990049,3.3470587322843297
9.225262991671649,1.8738071071337021,0.4092644174218482,3.2587666737042285
9.244001062742985,1.7870755929898978,0.4418520841588905,3.1686982853399326
9.261871818672883,1.7029716936200416,0.4735390670122898,3.0770948647879592
9.278901535609084,1.6215791753690603,0.5043100156601694,2.9841826372361635
9.295117327362775,1.5429654151856755,0.5341518420325311,2.8901718218669608
9.310546981514632,1.4671813642651492,0.5630535602512007,2.7952560205327104
9.325218795157284,1.394261763837722,0.5910061204565278,2.699611915717074
9.339161412795661,1.3242255819941102,0.6180022396136985,2.6033992545486457
9.352403668615603,1.2570766365383592,0.6440362321591849,2.506761088275558
9.364974434980986,1.19280436724985,0.6691038430419405,2.4098242319468186
9.376902478653484,1.131384721248138,0.6932020853614087,2.312699906763205
9.388216325865965,1.0727811169785808,0.7163290844290408,2.2154845272727512
9.398944137035752,1.016945455266368,0.7384839297017682,2.118260596880934
9.409113591588415,0.9638191495428963,0.7596665356705776,2.0210976776181484
9.418751783083843,0.9133341513994656,0.7798775124467591,1.924053403383342
9.427885124597838,0.8654139517935856,0.7991180464805925,1.827174509636519
9.436539264115774,0.8199745423070433,0.8173897915769577,1.7304978564738762
9.444739009538845,0.7769253246741832,0.8346947701416965,1.6340514259745946
9.452508262785587,0.7361699602575227,0.8510352844014424,1.537855278499684
9.459869962388161,0.6976071541843498,0.8664138371864393,1.4419224561417956
9.466846033930006,0.6611313714469556,0.8808330617478572,1.3462598247034738
9.473457347644475,0.6266334844131805,0.894295659994892,1.2508688483867516
9.479723682488606,0.594001352915811,0.9068043484787596,1.1557462938024698
9.485663696017765,0.5631203394255336,0.9183618114167843,1.0608848619655804
9.49129489941202,0.5338737628073282,0.9289706600364401,0.9662737486585793
9.496633637040093,0.5061432948630022,0.9386333975230259,0.8718991349528764
9.501695069988722,0.47980930432235,0.9473523888725547,0.7777446108154112
9.506493163031946,0.45475115320996246,0.9551298349807088,0.6837915356345403
9.511040674564045,0.4308474506287473,0.9619677503370542,0.5900193402137722
9.515349149070332,0.4079762690055824,0.9678679437391919,0.49640577534079067
9.519428911760388,0.38601532777575565,0.9728320014925999,0.402927112475896
9.523289065038146,0.3648421493731364,0.9768612726173588,0.3095583024487254
9.526937486531876,0.3443341922704031,0.979956855641846,0.21627309833167574
9.53038082845458,0.32436896570231105,0.9821195866251627,0.12304414889644144
9.533624518111603,0.3048241306256587,0.9833500281141272,0.029843069277101023
9.53667275941786,0.28557759144000383,0.9836484588068982,-0.0633595043227507
9.53952853533226,0.2665075830283415,0.9830148637636708,-0.15659386881450227
9.542193611162542,0.2474927577895994,0.9814489250755257,-0.2498912099830089
9.544668538740439,0.22841227753556326,0.9789500129756956,-0.3432835522096211
9.546952661515794,0.2091459154223685,0.9755171774535994,-0.43680369420978954
9.549044120670018,0.18957417348766437,0.9711491405115016,-0.5304851224374902
9.550939862404896,0.16957842187348113,0.9658442892871267,-0.6243618933471567
9.55263564662363,0.14904106643366366,0.9596006703536551,-0.7184684751744916
9.554126057287966,0.12784575215226063,0.9524159856019102,-0.8128395392997193
9.555404514809489,0.10587761063015895,0.9442875902089131,-0.9075096905941763
9.55646329091579,0.08302356082085902,0.9352124933029713,-1.0025131254330701
9.557293526523999,0.05917267319491951,0.9251873620486406,-1.0978832053009617
9.557885253255948,0.03421660855944225,0.914208529995631,-1.1936519331493427
9.558227419341543,0.008050143815427978,0.9022720106641375,-1.2898493189279463
9.558307920779697,-0.019428202051640107,0.889373517474858,-1.3865026200600479
9.558113638759181,-0.04831542755632334,0.8755084912742576,-1.4836354421444662
9.557630484483617,-0.07870317899638933,0.8606721368528129,-1.5812666849459247
9.556843452693654,-0.11067673620773161,0.8448594700033536,-1.6794093189134505
9.555736685331576,-0.14431383870348388,0.8280653768142191,-1.7780689782110253
9.55429354694454,-0.17968333793089641,0.8102846870321089,-1.8772423577622699
9.552496713565231,-0.21684366311469447,0.7915122634544862,-1.9769154043501205
9.550328276934085,-0.2558410910783541,0.771743109410985,-2.0770612956643215
9.547769866023302,-0.29670781485749576,0.7509724964543418,-2.1776382066839823
9.544802787874726,-0.33945981218600857,0.729196114387502,-2.278586870278235
9.541408189752866,-0.3840945234045068,0.7064102456847197,-2.379827948774174
9.537567244518822,-0.4305883593600679,0.682611966196978,-2.4812592458264655
9.533261360925222,-0.4788940737323227,0.6577993737387133,-2.582752803510092
9.528472420187898,-0.5289380511220709,0.6319718457036124,-2.68415194830023
9.523183039676677,-0.5806175821794559,0.6051303262206101,-2.785268371442515
9.517376863854883,-0.6337982197569678,0.577277642506185,-2.885879353779828
9.511038881657313,-0.6883113348901211,0.5484188489683867,-2.9857252715839477
9.504155768308411,-0.7439520171770437,0.5185615962525472,-3.0845075469853533
9.496716248136641,-0.8004774890831304,0.4877165207826936,-3.18188723218544
9.488711473245809,-0.8576062253962838,0.45589764846083924,-3.2774844380282264
9.480135410991846,-0.915017984376361,0.42312280408055697,-3.3708788312409994
9.470985231148083,-0.9723549623688393,0.389414015768147,-3.4616114266725644
9.461261681524395,-1.0292242747365767,0.3547979015014213,-3.5491878868108557
9.45096943877703,-1.0852019389344107,0.31930602263331276,-3.6330835065779894
9.440117419387686,-1.1398384871258411,0.28297518756753287,-3.712750003573905
9.428719034516428,-1.1926662640853802,0.2458476875317938,-3.7876241509682407
9.416792371875575,-1.2432083716948847,0.2079714460221114,-3.8571381831292944
9.404360288158626,-1.290989107624791,0.16940006419081846,-3.9207317772375667
9.391450397082378,-1.335545619829717,0.1301927464184428,-3.977865275844291
9.37809494088408,-1.3764403708680173,0.09041409365999989,-4.028033677675864
9.3643305371754,-1.4132738902455455,0.05013375688324125,-4.070780801975891
9.350197798272944,-1.4456972039193445,0.009425948863482338,-4.105712941629397
9.335740826233751,-1.4734232820916189,-0.03163118055281163,-4.132511277471029
9.321006593412834,-1.4962368507086026,-0.07295629332752193,-4.150942342002347
9.306044224905747,-1.514001974425557,-0.11446571674754541,-4.160865900383894
9.290904205161493,-1.5266669377965363,-0.15607437575138436,-4.162239757132238
9.275637535783527,-1.5342661179190886,-0.19769677332270674,-4.155121187087479
9.260294874604337,-1.5369187396135244,-0.23924798519358154,-4.139664910277074
9.244925687208202,-1.5348246126463252,-0.2806446342963523,-4.11611775898086
9.229577441081739,-1.5282571472034416,-0.32180581188616086,-4.0848103972308785
9.214294869609704,-1.5175541084342197,-0.3626539158584696,-4.046146626527857
9.199119328525361,-1.5031066880794715,-0.4031153821237482,-4.000590931025206
9.184088261644566,-1.485347532613596,-0.44312129143400025,-3.948654972999282
9.16923478631843,-1.4647383722011582,-0.4826078411639931,-3.890883745549256
9.154587402596418,-1.4417578491490641,-0.5215166786194856,-3.827842031836468
9.140169824104927,-1.4168900595208274,-0.5597950989378503,-3.7601017215951793
9.126000923509718,-1.390614210988151,-0.5973961161538021,-3.6882304114871585
9.112094781399836,-1.3633956780517051,-0.6342784202686736,-3.6127815815505517
9.09846082461932,-1.3356786151888713,-0.6704062360841792,-3.5342865090011135
9.085104038467431,-1.3078801792365156,-0.7057491011741903,-3.4532479632966044
9.072025236675065,-1.280386321015629,-0.7402815808071563,-3.3701356293196163
9.05922137346491,-1.253549036185361,-0.7739829371003525,-3.285383131888663
9.046685883103056,-1.2276849170895179,-0.8068367684192391,-3.199386484734075
9.03440903393216,-1.203074819324055,-0.8388306332665799,-3.1125037585680326
9.02237828573892,-1.179964445947943,-0.8699556708522602,-3.025055752586242
9.01057864127944,-1.158565655057957,-0.9002062283781227,-2.93732745769829
8.998992984728861,-1.1390583091179507,-0.9295795029551056,-2.849570113988718
8.987602401637682,-1.121592503522953,-0.9580752040949928,-2.7620036857045687
8.976386476602453,-1.1062910344470502,-0.9856952409520385,-2.674819601364257
8.965323566257982,-1.0932519897418704,-1.0124434369656812,-2.588183631966144
8.954391046360564,-1.0825513698055103,-1.0383252732853425,-2.5022388049771607
8.94356553266251,-1.0742456667738938,-1.063347661335114,-2.417108274622183
8.93282307599477,-1.0683743494096374,-1.0875187440813359,-2.332898089280423
8.922139332500674,-1.0649622173558209,-1.1108477249741402,-2.2496998142106053
8.911489710327116,-1.064021601930581,-1.1333447231162463,-2.1675929823320734
8.90084949430781,-1.0655544014927438,-1.155020652939567,-2.086647357529346
8.890193950292883,-1.0695539478506415,-1.1758871265148605,-2.00692500418069
8.879498410814376,-1.0760067065157153,-1.1959563765566674,-1.9284821636515188
8.86873834374922,-1.0848938181381689,-1.2152411981931825,-1.8513709436719212
8.857889405567837,-1.0961924915146177,-1.2337549076299017,-1.77564083015497
8.846927480652692,-1.1098772604136413,-1.2515113159314515,-1.7013400334018174
8.835828708048556,-1.1259211173770516,-1.2685247162654696,-1.6285166820375285
8.824569496874785,-1.1442965378378511,-1.284809883085845,-1.557219878644489
8.813126531496406,-1.1649764075280333,-1.3003820818722898,-1.4875006310839467
8.801476767421127,-1.1879348653728947,-1.3152570881831291,-1.4194126730585104
8.789597418767398,-1.2131480729933755,-1.3294512149137143,-1.353013186671907
8.777465938037464,-1.2405949206455564,-1.3429813467804335,-1.2883634386584364
8.765059988831009,-1.2702576779733037,-1.3558649811670178,-1.2255293406273022
8.752357412051277,-1.302122596371145,-1.3681202745732908,-1.1645819421161003
8.739336186087565,-1.3361804680662257,-1.3797660939944518,-1.1055978634717718
8.725974381406903,-1.3724271452309968,-1.3908220726291696,-1.0486596735560214
8.712250109954594,-1.410864020518542,-1.4013086693647299,-0.9938562149684002
8.698141469749409,-1.4514984683442813,-1.4112472315144138,-0.9412828768414319
8.683626485065966,-1.494344243984444,-1.420660060282828,-0.8910418122217834
8.668683042626123,-1.539421835077099,-1.429570478405046,-0.8432420935302503
8.653288824275352,-1.5867587573416118,-1.4380028993403486,-0.797999795500954
8.637421236701936,-1.6363897832173668,-1.4459828972953581,-0.7554379902375998
8.621057338869763,-1.6883570885994639,-1.4535372771977342,-0.7156866334879008
8.604173767983768,-1.7427102988559162,-1.4606941435326133,-0.6788823148228427
8.586746664995209,-1.7995064107922742,-1.4674829666808418,-0.6451678370208045
8.568751600887285,-1.8588095621450025,-1.4739346450510498,-0.6146915815243295
8.550163505265836,-1.920690614519707,-1.4800815608662932,-0.5876066073247678
8.530956599120639,-1.9852265094706938,-1.485957626939541,-0.5640694200647413
8.511104334025932,-2.052499350731113,-1.4915983211401884,-0.5442383366522787
8.49057934051862,-2.122595158620073,-1.4970407045067111,-0.5282713585107349
8.469353388932419,-2.19560223566199,-1.5023234180918186,-0.5163234541889565
8.4473973665758,-2.2716090758918526,-1.507486652633708,-0.5085431401180165
