th1 (rad),w1 (rad/s),th2 (rad),w2 (rad/s),a1 (rad/s^2),a2 (rad/s^2)
3.284817037583605,-0.8382628280829302,2.1997366678704173,-1.9140358699004163,1.665105018080273,-8.080710810134137
3.2764344093027757,-0.8216117779021275,2.1805963091714133,-1.9948429780017576,1.3933127981977496,-8.07051077093301
3.2682182915237545,-0.8076786499201499,2.1606478793913957,-2.0755480857110875,1.1106784550935793,-8.056721591499489
3.2601415050245532,-0.7965718653692141,2.139892398534285,-2.1561153016260826,0.8171481610416902,-8.040033746544495
3.252175786370861,-0.7884003837587972,2.118331245518024,-2.2365156390915275,0.5126727671835657,-8.021118978864102
3.2442917825332733,-0.7832736560869615,2.095966089127109,-2.3167268288801686,0.1972060702900983,-8.000621750954966
3.2364590459724036,-0.7813015953840605,2.0727988208383072,-2.396733046389718,-0.12929673589025553,-7.979149715661236
3.228646030018563,-0.7825945627429631,2.0488314903744103,-2.4765245435463306,-0.466880263389365,-7.957263256750957
3.2208200843911334,-0.7872633653768568,2.024066244938947,-2.5560971761138402,-0.8155895987660513,-7.9354641645524175
3.212947450737365,-0.7954192613645173,1.9985052731778084,-2.6354518177593644,-1.1754702299758115,-7.9141835165524785
3.2049932581237197,-0.8071739636642755,1.9721507550002146,-2.714593652924889,-1.5465670112144962,-7.893768828519212
3.196921518487077,-0.8226396337764205,1.9450048184709658,-2.7935313412100813,-1.9289219406679186,-7.8744705295531
3.188695122149313,-0.8419288531830996,1.917069505058865,-2.872276046505612,-2.3225705280764464,-7.856427796598629
3.180275833617482,-0.8651545584638641,1.888346744593809,-2.9508403244715984,-2.7275365372306375,-7.839653763097226
3.1716242880328434,-0.8924299238361705,1.858838341349093,-3.0292368621025707,-3.1438249022795004,-7.824020095803685
3.1626999887944818,-0.9238681728589655,1.8285459727280673,-3.1074770630606077,-3.5714126355691787,-7.809240916736515
3.1534613070658923,-0.9595822992146573,1.7974712020974613,-3.185569472227973,-4.010237568502571,-7.794856037277853
3.143865484073746,-0.999684674899683,1.7656155073751816,-3.2635180326007514,-4.460184795975565,-7.780213472013179
3.133868637324749,-1.0442865228594387,1.7329803270491742,-3.341320167320883,-4.921070730239402,-7.764451214278777
3.1234257720961547,-1.0934972301618326,1.6995671253759652,-3.4189646794636706,-5.392624713116238,-7.746478286611764
3.1124907997945366,-1.147423477292995,1.6653774785813285,-3.4964294623297882,-5.874468188509135,-7.724955130129722
3.101016565021607,-1.2061681591780864,1.6304131839580305,-3.5736790136310854,-6.366091502765319,-7.698273469703949
3.088954883429826,-1.2698290742057396,1.5946763938217197,-3.6506617483281247,-6.866828481699835,-7.664535888570814
3.0762565926877685,-1.338497359022738,1.5581697763384383,-3.727307107213833,-7.375829033122578,-7.621535468068038
3.062871619097541,-1.4122556493539637,1.5208967052663,-3.8035224618945134,-7.8920301455075865,-7.5667359959433655
3.0487490626040015,-1.4911759508090396,1.482861480647355,-3.879189821853947,-8.414125799378901,-7.497253419421421
3.033837303095911,-1.5753172088028287,1.4440695824288154,-3.954162356048161,-8.940536479345605,-7.409839414557476
3.0180841310078828,-1.6647225735962847,1.404527958868334,-4.028260750193736,-9.4693791710917,-7.300868156828487
3.00143690527192,-1.7594163653072017,1.3642453513663966,-4.101269431762021,-9.998438946248388,-7.166327602159666
2.983842741618848,-1.8594007547696856,1.3232326570487765,-4.172932707783618,-10.52514347313199,-7.001816812119532
2.9652487340711513,-1.9646521895010054,1.2815033299709402,-4.242950875904813,-11.046542033309938,-6.802551067556059
2.945602212176141,-2.0751176098341046,1.2390738212118921,-4.310976386580374,-11.55929085917045,-6.563376693248631
2.9248510360778,-2.190710518425809,1.1959640573460883,-4.3766101535128605,-12.059646818071814,-6.278797640187128
2.9029439308935423,-2.3113069866065272,1.1521979558109599,-4.439398129914732,-12.543471632135748,-5.943015916780853
2.879830861027477,-2.436741702927885,1.1078039745118125,-4.498828289082541,-13.006248914151296,-5.549987898961197
2.855463443998198,-2.566804192069398,1.062815691620987,-4.554328168072153,-13.4431162929102,-5.093498355713447
2.829795402077504,-2.7012353549985,1.0172724099402655,-4.605263151629287,-13.848914770532634,-4.56725367859735
2.802783048527519,-2.8397245027038265,0.9712197784239726,-4.65093568841526,-14.21825717974272,-3.964995285902649
2.774385803500481,-2.9819070745012537,0.92471042153982,-4.690585641274287,-14.545617179164056,-3.2806334793726144
2.7445667327554686,-3.1273632462928944,0.8778045651270772,-4.7233919760680125,-14.825439640609346,-2.508401172261206
2.71329310029254,-3.275617642698988,0.830570645366397,-4.748475987790624,-15.052272560383672,-1.6430259043373399
2.68053692386555,-3.4261403683028244,0.7830858854884908,-4.7649062468339975,-15.220919799048518,-0.6799174470368682
2.6462755201825217,-3.57834956629331,0.7354368230201508,-4.771705421304366,-15.32661306652291,0.3846328781484059
2.6104920245195884,-3.731615696958539,0.6877197688071072,-4.767859092522882,-15.365200674523965,1.553246253383354
2.573175867550003,-3.8852677037037786,0.6400411778818783,-4.7523266299890485,-15.333349726033257,2.827250086716782
2.534323190512965,-4.038601200964111,0.5925179115819879,-4.724054129121881,-15.228757636664687,4.2064789123816215
2.493937178503324,-4.190888777330758,0.5452773702907691,-4.681989339998065,-15.050368194276418,5.68909122544683
2.4520282907300164,-4.341392459273522,0.4984574768907884,-4.6250984277435965,-14.798586737473949,7.271412348178102
2.408614366137281,-4.489378326648262,0.45220649261335244,-4.552384304261816,-14.475488419479335,8.94781493308318
2.3637205828707986,-4.634133210843055,0.4066826495707343,-4.462906154930984,-14.085012861220095,10.7106504293006
2.317379250762368,-4.7749833394552565,0.36205358802142446,-4.3557996506379775,-13.633137753757541,12.55024674497162
2.2696294173678155,-4.911314716992832,0.3184955915150447,-4.230297183188261,-13.12802318966566,14.454989261255172
2.220516270197887,-5.042594948889489,0.2761926196831621,-4.08574729057571,-12.580117860751724,16.41150393898092
2.1700903207089923,-5.168396127497006,0.23533514677740502,-3.9216322511859003,-12.002218102346868,18.40496195036708
2.1184063594340223,-5.288418308520475,0.19611882426554603,-3.7375826316822294,-11.4094716173239,20.41952435883079
2.0655221763488174,-5.402513024693714,0.15874299794872374,-3.5333873880939213,-10.819320230320391,22.43894214035096
2.0114970461018804,-5.510706226996917,0.12340912406778452,-3.308997966690412,-10.251380871406052,24.44732078765114
1.9563899838319112,-5.613220035710977,0.0903191444008804,-3.0645247588139006,-9.72727167167746,26.430049869046332
1.9002577834748013,-5.710492752427752,0.05967389681274139,-2.8002242601234375,-9.270400707066818,28.37488702286259
1.843152855950524,-5.8031967594984195,0.031671654211507014,-2.5164753898948113,-8.905748150941482,30.273174709847932
1.7851208883555396,-5.8922542410078345,0.006506900312558898,-2.213743642796332,-8.659687390404144,32.12115926619309
1.7261983459454613,-5.978851114911876,-0.015630536115404423,-1.8925320501344012,-8.559905516461964,33.921378541711924
1.6664098347963425,-6.064450170076496,-0.03455585661674844,-1.5533182647172818,-8.635496729670187,35.68408954663593
1.6057653330955777,-6.150805137373197,-0.05008903926392126,-1.1964773692509225,-8.917311791902746,37.42872254948366
1.5442572817218456,-6.2399782552922245,-0.06205381295643049,-0.8221901437560859,-9.438650788687973,39.185371534901364
1.4818574991689233,-6.334364763179104,-0.07027571439399136,-0.43033642840707226,-10.236382185415986,40.99635622505281
1.4185138515371323,-6.436728585033264,-0.07457907867806207,-0.020372866156544156,-11.3525514977269,42.91790196964666
1.3541465656867997,-6.550254100010533,-0.07478280733962751,0.40880615353992245,-12.83648960494985,45.02194596949752
1.2886440246866944,-6.678618996060031,-0.07069474580422828,0.8590256132348977,-14.747297533778402,47.397916043529165
1.221857834726094,-6.826091971397815,-0.06210448967187931,1.3330047736701893,-17.156258790981436,50.153873083373114
1.153596915012116,-6.997654559307629,-0.048774441935177416,1.8345435045039205,-20.14794490909421,53.41527656200522
1.0836203694190396,-7.1991340083985715,-0.03042900689013821,2.368696270123973,-23.816911375610104,57.31694197180888
1.0116290293350538,-7.437303122154672,-0.006742044188898483,2.9418656898420616,-28.25250313872171,61.97750463734754
0.9372559981135071,-7.719828153541889,0.022676612709522134,3.561640736215537,-33.49428385162752,67.43152031205156
0.8600577165780883,-8.054770992058165,0.058293020071677505,4.235955939336053,-39.41895938299649,73.46384327542614
0.7795100066575066,-8.44896058588813,0.10065257946503803,4.970594372090314,-45.47905416243544,79.23409123978715
0.6950204007986253,-8.903751127512486,0.15035852318594117,5.762935284488186,-50.168145368151315,82.5165688147674
0.6059828895235004,-9.405432581193999,0.20798787603082303,6.58810097263586,-50.18687217792191,78.52599995906697
0.5119285637115605,-9.907301302973218,0.2738688857571816,7.373360972226529,-40.10936859022441,59.474262971653516
0.4128555506818283,-10.308394988875463,0.3476024954794469,7.968103601943064,-15.521173723198535,19.078889517135522
0.30977160079307364,-10.463606726107448,0.42728353149887754,8.158892497114419,18.3582868337609,-35.12924385239119
0.20513553353199915,-10.280023857769839,0.5088724564700218,7.8076000585905065,44.93620793528981,-79.26106928824066
0.10233529495430076,-9.83066177841694,0.5869484570559268,7.0149893657081,53.871808517711244,-98.11840486749763
0.004028677170131348,-9.291943693239828,0.6570983507130078,6.033805317033124,50.00258901815968,-98.16189863282194
-0.08889075976226693,-8.791917803058231,0.7174364038833391,5.052186330704905,41.57803089361934,-91.01115103522442
-0.17680993779284926,-8.376137494122037,0.7679582671903882,4.142074820352661,32.98901283104559,-82.9917006154265
-0.26057131273406964,-8.046247365811581,0.8093790153939148,3.3121578141983963,25.628262113128596,-76.18993891315874
-0.34103378639218546,-7.7899647446802955,0.8425005935358987,2.5502584250668088,19.683694564447926,-70.93719864539311
-0.4189334338389884,-7.593127799035816,0.8680031777865668,1.8408864386128778,14.998986107082112,-67.02675785031978
-0.49486471182934655,-7.443137937964995,0.8864120421726955,1.17061886010968,11.368928220718937,-64.14323400319068
-0.5692960912089965,-7.329448655757806,0.8981182307737924,0.5291865200777732,8.620411502845045,-61.98872906136226
-0.6425905777665746,-7.243244540729355,0.9034100959745701,-0.09070077053584935,6.6246078639808355,-60.3100412801375
-0.7150230231738681,-7.176998462089547,0.9025030882692117,-0.6938011833372243,5.289998508938072,-58.89779479622035
-0.7867930077947636,-7.1240984770001665,0.8955650764358394,-1.2827791312994279,4.55174528859872,-57.58003508320054
-0.8580339925647652,-7.078581024114179,0.8827372851228451,-1.8585794821314332,4.3617983315215545,-56.216700437048104
-0.928819802805907,-7.034963040798964,0.8641514903015308,-2.420746486501914,4.680747947331944,-54.696174842497555
-0.9991694332138967,-6.9881555613256445,0.8399440254365117,-2.9677082349268895,5.47150872114114,-52.93353771219066
-1.069050988827153,-6.933440474114233,0.8102669430872428,-3.497043612048796,6.694732635983585,-50.86973801026393
-1.1383853935682955,-6.866493147754397,0.7752965069667548,-4.005740992151436,8.305824752626688,-48.470951476800245
-1.2070503250458395,-6.783434900228131,0.7352390970452404,-4.490450506919438,10.253414567929298,-45.72757013774219
-1.2748846740481208,-6.680900754548838,0.690334591976046,-4.94772620829686,12.479092285138647,-42.65251814834784
-1.3416936815936091,-6.5561098316974515,0.6408573298930773,-5.374251389780339,14.918171957289713,-39.27882318152329
-1.4072547799105837,-6.406928112124555,0.5871148159952739,-5.767039621595572,17.501219732927577,-35.656550317059036
-1.4713240610318292,-6.2319159147952785,0.5294444197793182,-6.123605124766162,20.156099168909105,-31.849299200732265
-1.533643220179782,-6.030354923106187,0.4682083685316566,-6.442098116773485,22.810330764109832,-27.930476968853533
-1.593946769410844,-5.802251615465089,0.4037873873639217,-6.72140288646202,25.393617789063388,-23.97951697311873
-1.6519692855654948,-5.548315437574455,0.33657335849930153,-6.961198056193207,27.84042948628649,-20.078157595586248
-1.7074524399412394,-5.26991114271159,0.26696137793736946,-7.16197963214907,30.092539346816555,-16.30686241145615
-1.7601515513683552,-4.968985749243424,0.19534158161587878,-7.325048256263631,32.10139143097837,-12.741469287016729
-1.8098414088607895,-4.6479718349336405,0.12209109905324246,-7.452462949133799,33.830129812702474,-9.450194144882765
-1.8563211272101259,-4.309670536806616,0.04756646956190447,-7.546964890582626,35.2551023626595,-6.491159384171337
-1.899417832578192,-3.9571195131800208,-0.027903179343921794,-7.611876484424339,36.366664073864825,-3.910636812240998
-1.9389890277099924,-3.5934528724413726,-0.10402194418816518,-7.65098285254675,37.169166702208905,-1.7421694418685625
-1.974923556434406,-3.2217612054192837,-0.1805317727136327,-7.668404546965435,37.68012179174117,-0.006663162428277053
-2.007141168488599,-2.844959987501872,-0.25721581818328704,-7.668471178589718,37.92863924623015,1.2865655440690922
-2.0355907683636176,-2.4656735950395707,-0.33390052996918423,-7.655605523149028,37.953343922009104,2.1379084607328775
-2.060247504314013,-2.08614015581948,-0.4104565852006745,-7.634226438541699,37.800033812048405,2.5549591024195455
-2.081108905872208,-1.7081398176989957,-0.48679884958609154,-7.608676847517503,37.519353275765866,2.549633773409313
-2.098190304049198,-1.332946284941337,-0.5628856180612666,-7.58318050978341,37.16471510038626,2.135175923379711
-2.111519766898611,-0.9612991339374743,-0.6387174231591006,-7.561828750549613,36.79062661286124,1.3232734599429778
-2.121132758237986,-0.593392867808862,-0.7143357106645968,-7.548596015950183,36.451468983670125,0.12148964364501738
-2.127066686916075,-0.22887817797216076,-0.7898216708240986,-7.547381119513733,36.20064778722813,-1.4687871283005771
-2.1293554686957963,0.13312829990012054,-0.8652954820192359,-7.562068990796739,36.08986000917245,-3.453578772780762
-2.128024185696795,0.494026899991845,-0.9409161719272032,-7.596604778524546,36.16795839022733,-5.846182661533602
-2.123083916696877,0.8557064838941183,-1.0168822197124487,-7.655066605139882,36.478434194730184,-8.664535347975571
-2.114526851857936,1.2204908258414202,-1.0934328857638476,-7.7417119586196375,37.05369040131785,-11.923786507332709
-2.1023219435995215,1.5910277298545987,-1.170850005350044,-7.860949823692964,37.90271167637641,-15.61960061037927
-2.0864116663009757,1.970054846618363,-1.2494595035869736,-8.017145829796757,38.98600450882482,-19.69382834061457
-2.0667111178347923,2.359914891706611,-1.3296309618849411,-8.214084113202903,40.1675521981447,-23.968258055515115
-2.043111968917726,2.761590413688058,-1.4117718030169701,-8.453766693758054,41.12965826904401,-28.026342910178837
-2.0154960647808458,3.172886996378498,-1.4963094699545507,-8.734030122859842,41.24202662330167,-31.029542159798975
-1.9837671948170608,3.5853072626115146,-1.5836497711831492,-9.044325544457832,39.420602655807095,-31.514926492118782
-1.9479141221909457,3.9795132891695855,-1.6740930266277276,-9.35947480937902,34.15171995564979,-27.41401235877147
-1.9081189892992498,4.321030488726083,-1.7676877747215178,-9.633614932966735,24.085342771613462,-16.8510062129452
-1.864908684411989,4.561883916442218,-1.864023924051185,-9.802124995096186,9.480094575379015,-0.11680713640186004
-1.819289845247567,4.656684862196008,-1.962045174002147,-9.803293066460204,-6.563091987422204,18.640884180076554
-1.7727229966256068,4.591053942321786,-2.060078104666749,-9.616884224659438,-19.470269216025816,33.295894300815704
-1.726812457202389,4.396351250161528,-2.156246946913343,-9.283925281651282,-26.64781478978905,40.443470793637324
-1.6828489447007737,4.1298731022636375,-2.249086199729856,-8.879490573714909,-28.717298034934203,41.01578864746901
-1.6415502136781372,3.8427001219142953,-2.337881105467005,-8.469332687240218,-27.728539543171898,37.79997620992105
-1.6031232124589943,3.5654147264825764,-2.422574432339407,-8.091332925141007,-25.424001352442,33.099422867720094
-1.5674690651941685,3.3111747129581564,-2.503487761590817,-7.760338696463806,-22.80370000917232,28.1883214264261
-1.5343573180645869,3.0831377128664332,-2.581091148555455,-7.478455482199545,-20.324546245230852,23.610228211446852
-1.5035259409359225,2.879892250414125,-2.6558757033774505,-7.242353200085076,-18.15312266492433,19.529626939042515
-1.4747270184317813,2.6983610237648814,-2.728299235378301,-7.047056930694651,-16.32374685223041,15.945682094038304
-1.4477434081941325,2.5351235552425773,-2.7987698046852474,-6.887600109754268,-14.818005357808007,12.796911811781463
-1.4223921726417068,2.386943501664497,-2.8676458057827903,-6.759630991636453,-13.600716838976107,10.006873519886197
-1.3985227376250617,2.250936333274736,-2.935242115699155,-6.659562256437591,-12.634875288449793,7.502161982996029
-1.3760133742923144,2.124587580390238,-3.001837738263531,-6.584540636607631,-11.887088889280275,5.218390973057733
-1.354767498488412,2.0057166914974354,-3.067683144629607,-6.532356726877054,-11.328882314946789,3.1013560813707093
-1.3347103315734377,1.8924278683479674,-3.1330067118983775,-6.5013431660633465,-10.93623979772292,1.1065574719039304
-1.315786052889958,1.7830654703707383,-3.198020143559011,-6.490277591344308,-10.688380728335655,-0.8015323933285989
-1.2979553981862506,1.6761816630873816,-3.2629229194724543,-6.4982929152775935,-10.566124302573225,-2.649835835699797
-1.2811935815553768,1.5705204200616494,-3.3279058486252304,-6.524791273634591,-10.54990419517936,-4.4563553269074845
-1.2654883773547603,1.4650213781098558,-3.3931537613615763,-6.569354826903666,-10.617354012259387,-6.2289649000551055
-1.2508381635736616,1.358847837987262,-3.458847309630613,-6.631644475904217,-10.740325929020432,-7.963128628665898
-1.237249685193789,1.2514445786970576,-3.5251637543896552,-6.711275762190876,-10.881215495426598,-9.638411433969745
-1.2247352394068185,1.1426324237427916,-3.592276512011564,-6.807659876530574,-10.988575539799799,-11.213785386931356
-1.2133089151693905,1.0327466683447937,-3.6603531107768696,-6.919797730399887,-10.992282564478398,-12.622077586211333
-1.2029814484859427,0.9228238427000097,-3.7295510880808687,-7.046018506262,-10.799075487539193,-13.764600371214241
-1.1937532100589425,0.8148330878246178,-3.8000112731434887,-7.183664509974143,-10.290219444343478,-14.508190248102261
-1.1856048791806963,0.7119308933811831,-3.87184791824323,-7.328746412455166,-9.324330055311158,-14.68853681424808
-1.1784855702468846,0.6186875928280715,-3.945135382367782,-7.475631780597647,-7.749616856521459,-14.125294720653969
-1.1722986943186038,0.5411914242628569,-4.019891700173758,-7.6168847278041865,-5.429831843006924,-12.654586683315959
-1.1668867800759752,0.48689310583278766,-4.0960605474518,-7.743430594637346,-2.2851029036531147,-10.180624791429777
-1.1620178490176474,0.46404207679625653,-4.173494853398173,-7.845236842551643,1.659112312344641,-6.738084784568341
-1.1573774282496847,0.48063319991970294,-4.25194722182369,-7.912617690397327,6.233145583934836,-2.542277351138764
-1.1525710962504876,0.5429646557590513,-4.331073398727662,-7.938040463908714,11.119998106924692,2.0054221829867083
-1.147141449692897,0.6541646368282982,-4.4104538033667495,-7.917986242078847,15.906020412503578,6.37970176187144
-1.140599803324614,0.8132248409533339,-4.489633665787538,-7.854189224460132,20.177117416142043,10.050470254244367
-1.1324675549150807,1.0149960151147543,-4.56817555803214,-7.753684521917688,23.62250174403019,12.61120553954388
-1.1223175947639332,1.2512210325550561,-4.645712403251316,-7.62757246652225,26.100298169249463,13.859398601582578
-1.1098053844383826,1.5122240142475507,-4.721988127916539,-7.488978480506424,27.642253979420957,13.801144046990194
