th1 (rad),w1 (rad/s),th2 (rad),w2 (rad/s)
0.40717534740466016,-2.080939121062216,1.177777542700793,1.0888075193792945
0.386365956194038,-2.069335542319873,1.188665617894586,0.959790339719007
0.3656726007708393,-2.057887004028469,1.198263521291776,0.8301147099290457
0.3450937307305546,-2.0465635920112666,1.2065646683910665,0.6998918681887808
0.3246280948104419,-2.0352958173760123,1.2135635870729542,0.5692001290466954
0.3042751366366818,-2.0239819584560226,1.219255588363421,0.43809475136393866
0.2840353170521216,-2.012494048816863,1.2236365358770604,0.3066158511185677
0.26391037656395294,-2.0006827361598645,1.2267026943882462,0.17479463736469
0.2439035492023543,-1.988381225430083,1.2284506407618931,0.042658233069894524
0.22401973694805347,-1.9754084963576493,1.2288772230925922,-0.0897666887525416
0.20426565198447696,-1.9615719583518065,1.2279795562050668,-0.22245125926657697
0.1846499324009589,-1.9466696782152202,1.225755043612401,-0.355362599295942
0.16518323561880668,-1.930492290603024,1.2222014176194416,-0.4884627086185663
0.14587831271277646,-1.912824678352955,1.2173167905332558,-0.6217079585312361
0.1267500659292469,-1.8934474899198983,1.2110997109479436,-0.7550491091080983
0.10781559103004791,-1.8721385439796119,1.2035492198568625,-0.8884317898899711
0.08909420559025179,-1.8486741565018716,1.1946649019579627,-1.021797395914893
0.07060746402523307,-1.8228304128867767,1.1844469279988137,-1.1550843606208399
0.05237915989636531,-1.7943843967993882,1.1728960843926053,-1.2882297738028448
0.03443531592837143,-1.7631153778827948,1.1600137866545768,-1.4211713170321938
0.01680416214954348,-1.7288059524114996,1.145802073484255,-1.5538494912317748
-0.00048389737457151666,-1.6912431240799888,1.130263578571937,-1.6862101118727193
-0.017396328615371406,-1.650219306500042,1.11340147745321,-1.8182070468688059
-0.03389852168037183,-1.6055332246791931,1.0952194069845218,-1.94980517097569
-0.04995385392716376,-1.5569906899285817,1.0757213552747649,-2.0809835085382655
-0.06552376082644958,-1.5044052215492578,1.0549115201893822,-2.211738533837647
-0.08056781304194216,-1.4475984896296183,1.0327941348510057,-2.3420875949721083
-0.09504379793823835,-1.3864005568541806,1.0093732589012847,-2.4720724228370434
-0.10890780350678016,-1.320649904075786,0.9846525346729142,-2.6017626806942484
-0.12211430254753802,-1.2501932355280974,0.9586349078659717,-2.731259500918225
-0.134616234902819,-1.1748850763666325,0.9313223128567895,-2.8606989419787885
-0.14636508566648532,-1.0945871997703862,0.9027153234370016,-2.990255277790311
-0.15731095766418918,-1.0091679560978388,0.8728127706590985,-3.120143999039787
-0.16740263722516757,-0.918501626945826,0.8416113306687005,-3.2506243557630534
-0.17658765349462582,-0.8224679988187085,0.80910508711107,-3.3820011930794425
-0.1848123334828129,-0.7209524538356699,0.7752850751802756,-3.5146257141881967
-0.19202185802116958,-0.613847022024218,0.7401388180383937,-3.648894627038309
-0.19816032824141178,-0.5010530505740207,0.7036498717680105,-3.7852468657586047
-0.203170858747152,-0.3824864468551594,0.6657974031104245,-3.924156686177949
-0.2069957232157036,-0.2580868801216761,0.626555836248645,-4.066121364136471
-0.20957659201692036,-0.1278329269408781,0.5858946226072803,-4.211640908976167
-0.21085492128632913,0.00823403258111352,0.5437782135175186,-4.361186066759905
-0.21077258096051799,0.14997327848223213,0.5001663528499196,-4.515149364298731
-0.20927284817569566,0.2970903579161264,0.4550148592069323,-4.673772039029479
-0.2063019445965344,0.449058208152299,0.4082771388166375,-4.83703760762702
-0.2018113625150114,0.6050061703160907,0.3599067627403673,-5.004521194697378
-0.19576130081185047,0.7635698485064677,0.30986155079339356,-5.1751841335449225
-0.1881256023267858,0.9226992636839396,0.2581097094579443,-5.347108944797419
-0.1788986096899464,1.0794351667722795,0.20463862000997013,-5.5171861135447555
-0.1681042580222236,1.2296891393037992,0.14946675887452257,-5.680798700555081
-0.1558073666291856,1.3681062088488634,0.09265877186897176,-5.831609516383248
-0.14212630454069697,1.4881432024538632,0.03434267670513927,-5.961630710821965
-0.12724487251615835,1.582531244018844,-0.025273630403080387,-6.0618055774725095
-0.11141956007596991,1.6442418837227244,-0.08589168617780549,-6.123268454806474
-0.09497714123874267,1.6678756049050822,-0.14712437072587023,-6.139177515456913
-0.07829838518969184,1.6510689786716752,-0.20851614588043937,-6.106577526899939
-0.06178769540297509,1.5952938978989148,-0.2695819211494388,-6.027448083176991
-0.045834756423985934,1.505588574426553,-0.3298564019812087,-5.908321967224817
-0.030778870679720405,1.3893113415303004,-0.38893962165345686,-5.7586083486163515
-0.0168857572644174,1.2545177084150532,-0.44652570513962037,-5.588439652297572
-0.0043405801802668675,1.1086191261667113,-0.5024101016625961,-5.406925544607998
0.006745611081400246,0.9576464696869835,-0.5564793571086761,-5.221232768803235
0.016322075778270082,0.8060724805898196,-0.6086916847967084,-5.036411180325607
0.02438280058416828,0.6569760088223419,-0.6590557965999645,-4.855663010231955
0.0309525606723917,0.5123401190465149,-0.7076124267022841,-4.680773649117134
0.036075961862856845,0.37335522197001575,-0.7544201631934554,-4.512534039293495
0.039809514082557,0.24067108797766518,-0.7995455035863903,-4.351084133418741
0.042216224962333654,0.11458535294358696,-0.8430563449205777,-4.196165128374199
0.043362078491769526,-0.0048243275863476265,-0.8850179962043196,-4.047293182661645
0.04331383521590605,-0.1176116523613744,-0.9254909280309361,-3.9038737421091314
0.04213771869229231,-0.22390426179445716,-0.9645296654520275,-3.765274036334955
0.03989867607434774,-0.3238677232923539,-1.002182405815377,-3.6308673888100227
0.0366599988414242,-0.4176837530736815,-1.0384910797034772,-3.500059092550072
0.03248316131068739,-0.5055376987401253,-1.0734916706289779,-3.372300496004226
0.027427784323286138,-0.5876119246358823,-1.1072146755890202,-3.2470956919341907
0.021551665076927316,-0.6640828746953147,-1.1396856325083622,-3.124003654300351
0.01491083632997417,-0.7351203559879502,-1.1709256690513656,-3.0026376374045456
0.007559632770094667,-0.8008880982251848,-1.200952045425411,-2.882662978972544
-0.00044924821215718176,-0.861544982209992,-1.2297786752151365,-2.7637940163422936
-0.009064698034257102,-0.9172465517964045,-1.2574166153785595,-2.64579055005532
-0.018237163552221144,-0.968146569038499,-1.2838745208791127,-2.5284541164619103
-0.027918629242606137,-1.0143984672588213,-1.309159062043732,-2.411624223866245
-0.03806261391519435,-1.056156619102985,-1.3332753042823944,-2.295174641419445
-0.0486241801062242,-1.09357737757689,-1.3562270506965888,-2.1790097909950767
-0.0595599538819931,-1.1268198749212182,-1.3780171486065396,-2.0630612697216435
-0.07082815263120529,-1.1560465817153551,-1.398647761303756,-1.9472845183292131
-0.08238861844835885,-1.1814236398980937,-1.4181206064870482,-1.831655643925628
-0.09420285484733978,-1.2031209904468894,-1.4364371629263044,-1.7161684026757733
-0.10623406475180867,-1.2213123205815748,-1.453598846953062,-1.600831346505121
-0.11844718795762442,-1.236174857421043,-1.4696071604181133,-1.485665137402828
-0.13080893653183484,-1.2478890356094,-1.4844638117921416,-1.3707000325829775
-0.14328782688792885,-1.2566380659488274,-1.4981708121179713,-1.2559735433605062
-0.15585420754741713,-1.2626074308222848,-1.5107305475515764,-1.1415282699643359
-0.16848028185563999,-1.2659843303782305,-1.5221458302512199,-1.0274099136028485
-0.1811401251594223,-1.266957101250355,-1.5324199293872482,-0.9136654659383183
-0.19380969617192584,-1.265714627132197,-1.5415565840466314,-0.800341574775154
-0.2064668424432478,-1.2624457579285233,-1.549559999794383,-0.6874830832968356
-0.21909130002253305,-1.2573387515514487,-1.5564348306273512,-0.5751317386783028
-0.23166468753804753,-1.2505807497913368,-1.5621861480141344,-0.46332506443160615
-0.2441704950359609,-1.2423572971270473,-1.5668193986584504,-0.35209538948298347
-0.2565940680072314,-1.2328519088891736,-1.5703403525532802,-0.24146902578982832
-0.26892258709612316,-1.2222456928819196,-1.5727550428111785,-0.13146558533689362
-0.28114504402494234,-1.210717026419305,-1.5740696986645475,-0.02209742664381706
-0.2932522142891354,-1.1984412887416116,-1.5742906729309856,0.0866307794957286
-0.30523662717655153,-1.18559064693783,-1.5734243651360282,0.19472237541089882
-0.3170925336459298,-1.1723338917859591,-1.5714771413819193,0.3021889431920916
-0.3288158725637894,-1.1588363182989325,-1.5684552519499984,0.40905044203656693
-0.34040423574677875,-1.145259644179388,-1.5643647475296327,0.5153352647156619
-0.3518568321885726,-1.1317619577760534,-1.5592113948824762,0.621080220070869
-0.3631744517663331,-1.1184976854154585,-1.5530005926817674,0.726330446421821
-0.3743594286204877,-1.1056175660521703,-1.545737288217549,0.8311392581430318
-0.3854156042810094,-1.0932686189114722,-1.5374258956361189,0.9355679243213564
-0.39634829047012415,-1.081594087033399,-1.5280702163929054,1.0396853741843064
-0.40716423134045815,-1.070733336172533,-1.5176733626510623,1.143567818679232
-0.4178715647021835,-1.0608216841250768,-1.50623768446427,1.247298270906974
-0.4284797815434343,-1.0519901299495575,-1.4937647017552003,1.3509659397108582
-0.4389996828429299,-1.0443649453605046,-1.4802550423580916,1.4546654601339832
-0.44944333229653494,-1.0380670813702946,-1.4657083877567518,1.5584959111105667
-0.45982400311023786,-1.0332113315152613,-1.4501234286456461,1.6625595539486206
-0.47015611642539046,-1.0299051781295376,-1.4334978331061599,1.766960204059186
-0.4804551682066858,-1.0282472294638363,-1.415828231065568,1.8718011220492905
-0.4907376405013242,-1.0283251323174674,-1.397110219845075,1.9771822777320982
-0.5010208918244988,-1.0302128166938218,-1.3773383970677542,2.0831968009225372
-0.511323019991437,-1.0339668955503647,-1.356506429058529,2.189926385552516
-0.5216626889469407,-1.039622004432719,-1.3346071652030038,2.297435358993578
-0.5320589089912678,-1.047184824423981,-1.311632811613068,2.4057630685652707
-0.5425307572355077,-1.056626491523273,-1.2875751809274152,2.514914177177522
-0.5530970221507404,-1.0678730643463035,-1.26242603915564,2.6248464102908615
-0.5637757527942034,-1.0807937142165007,-1.2361775750527313,2.7354552756677646
-0.5745836899363684,-1.0951863409579836,-1.2088230222960537,2.846555317227425
-0.5855355533459483,-1.1107604407754672,-1.1803574691237795,2.957857614099567
-0.596643157753703,-1.1271173127801473,-1.1507788929827838,3.068943567852801
-0.6079143308815045,-1.143728158518034,-1.1200894573042557,3.1792356311117773
-0.6193516124666848,-1.1599113853609684,-1.088297100993138,3.287966631064883
-0.6309507263202945,-1.1748115391773435,-1.0554174346824892,3.394150828900734
-0.6426988417120679,-1.1873837729172836,-1.0214759263934818,3.4965618472104154
-0.6545726794412408,-1.1963894683481404,-0.9865103079213777,3.5937249108130294
-0.6665365741247221,-1.2004101691181819,-0.9505730588132474,3.6839329450526366
-0.6785406758159039,-1.197887591854865,-0.913733729362721,3.7652969252879833
-0.6905195517344526,-1.1871960542856754,-0.8760807601098412,3.835838970799885
-0.7023915122773093,-1.1667490672102856,-0.8377223704018423,3.8936304904105103
-0.7140590029494122,-1.1351336611422278,-0.7987860654977372,3.9369666511331274
-0.7254103395608344,-1.0912555341900478,-0.759416398986406,3.964554310965418
-0.736322894902735,-1.034468850220338,-0.7197708558767518,3.975678172138907
-0.7466675834049383,-0.9646614289831525,-0.6800140741553627,3.970306007214425
-0.7563141976947698,-0.8822728597123177,-0.6403110140832184,3.949103372966137
-0.765136926291893,-0.788239095134622,-0.6008199803535571,3.91335023968291
-0.7730193172432392,-0.6838764626733171,-0.561686477956728,3.8647782573520297
-0.7798580818699724,-0.5707325606621423,-0.5230386953832077,3.8053667256197645
-0.7855654074765939,-0.4504356140310731,-0.48498502812701005,3.737140257930484
-0.7900697636169046,-0.32456764381219694,-0.44761362554770523,3.662002010278829
-0.7933154400550266,-0.1945749760839566,-0.4109936054449169,3.581619832577139
-0.7952611898158662,-0.06171788919425092,-0.37517740711914555,3.497366659171225
-0.7958783687078087,0.0729467732234996,-0.3402037405274333,3.4103057963707224
-0.7951489009755737,0.20855960428932055,-0.3061006825637261,3.3212074495343695
-0.7930633049326805,0.34443876456008016,-0.2728886080683824,3.2305832497242495
-0.7896189172870797,0.48005385438382997,-0.24058277557113988,3.138728377633885
-0.7848183787432413,0.6149987410669805,-0.20919549179480104,3.045764302390013
-0.7786683913325715,0.7489664176971794,-0.1787378487709009,2.9516781289101983
-0.7711787271555997,0.8817273831315231,-0.14922106748179892,2.856356716948355
-0.7623614533242844,1.0131119978762269,-0.12065750031231537,2.7596151180091497
-0.7522303333455221,1.1429966734919985,-0.09306134913222387,2.661219648184706
-0.7408003666106021,1.2712934572815546,-0.06644915265037682,2.5609062734114936
-0.7280874320377866,1.397942464055861,-0.04084008991626188,2.4583950921444258
-0.714108007397228,1.5229065997703706,-0.016256138994817624,2.3534016749119795
-0.6988789413995243,1.646168063998145,0.007277877754302171,2.245645934810016
-0.6824172607595429,1.7677261774913642,0.029734337102402333,2.134859101342416
-0.6647399989846292,1.8875961397877403,0.05108292811582649,2.0207892757829327
-0.6458640375867518,2.005808370971746,0.07129082087365582,1.9032059711138323
-0.6258059538770343,2.1224081271427675,0.09032288058479414,1.7819039887589352
-0.6045818726056066,2.237455099027842,0.1081419204723835,1.656706959818078
-0.5822073216153282,2.3510227064628206,0.12470899007056427,1.5274708812743516
-0.5586970945506999,2.4631967870575755,0.13998369888330778,1.3940880086411707
-0.5340651266801242,2.5740733437038523,0.15392457896971948,1.2564915271979635
-0.5083243932430856,2.683754960623868,0.16648949424169912,1.1146615162696933
-0.48148684363684696,2.7923454192103616,0.17763610940439606,0.9686328467694982
-0.45356338944474334,2.8999419416457477,0.18732243787209105,0.8185058117214935
-0.42456397002828583,3.0066243637300962,0.19550749598930597,0.6644604785487068
-0.39449772639098485,3.1124403965419787,0.20215210077479304,0.506775956685584
-0.3633733224255651,3.217386000438164,0.20721986034164888,0.34585596194730334
-0.3311994624211834,3.32137980863795,0.2106784199611219,0.18226216407838114
-0.29798566433480395,3.4242305842065193,0.21250104160190572,0.016756704783084414
-0.2637433584927388,3.5255970162091503,0.21266860864973658,-0.14964523512583425
-0.22848738833064727,3.6249399822408193,0.21117215629847824,-0.3156131786892913
-0.1922379885082391,3.7214690403003168,0.20801602451158532,-0.47943217709719643
-0.1550232981052359,3.8140877325463034,0.20322170274061335,-0.6389335881892401
-0.11688242077977287,3.901346568706357,0.19683236685872096,-0.7914388528778582
-0.0778689550927093,3.981418170635752,0.1889179783299424,-0.9337373211090135
-0.038054773386351784,4.052114874973215,0.17958060511885227,-1.0621273671462177
0.0024663753633803673,4.11097232142447,0.1689593314473901,-1.1725543741793738
0.04357609857762507,4.155418564306687,0.15723378770559635,-1.26087301236924
0.08513028422069194,4.183031967162949,0.14462505758190394,-1.3232373677883047
0.12696060389232142,4.1918610879120735,0.1313926839040209,-1.356578875823803
0.16887921477144216,4.180743509696389,0.11782689514578286,-1.359079661004411
0.21068664986840605,4.149536569828191,0.10423609853573874,-1.3305143528525225
0.25218201556668796,4.099182094314324,0.09093095500721352,-1.2723468046737016
0.2931738365098312,4.031575507084841,0.0782074869604765,-1.1875380032049376
0.3334895915806796,3.949276659388058,0.06633210692842711,-1.0801186076290556
0.37298235817456016,3.8551494306691265,0.05553092085213656,-0.9546522199393161
0.4115338524812514,3.7520250399480135,0.0459843986527434,-0.8157280291930933
0.44905410288073155,3.6424540074007887,0.03782711836081246,-0.667579043300328
0.4854786429547394,3.5285678624474346,0.031151327927809183,-0.5138590049654941
0.5207643215792137,3.4120370497144394,0.02601273787815424,-0.3575605395514274
0.5548846920763582,3.2940953038860785,0.022437132482639968,-0.20103282104823594
0.587825645115219,3.175600030317915,0.02042680427215761,-0.046055107792598
0.6195816454183981,3.057105396445652,0.019966253194231627,0.10606776336473223
0.6501526993828546,2.9389336503056276,0.02102693082787895,0.2544094200433317
0.6795420358859109,2.8212374107755167,0.023571025028312265,0.3983366638051342
0.707754409993666,2.704050463042604,0.027554391666363608,0.5374389946262479
0.7347949146240921,2.58732726821376,0.032928781612626086,0.6714731143115444
0.7606681873062296,2.470972620136646,0.03964351275574153,0.8003206786824077
0.7853779135075961,2.3548632535406657,0.04764671954256561,0.9239569253185808
0.8089265460430027,2.238863144985621,0.056886288795751416,1.04242781352731
0.831315177492859,2.12283400533941,0.06731056693102452,1.1558336088416352
0.8525435175462531,2.006642175449921,0.07886890301944088,1.2643172248858792
0.8726099393007524,1.8901628689944905,0.09151207526829967,1.3680560035784222
0.8915115679906973,1.7732824820095154,0.10519263530408389,1.4672559311052262
0.9092443928107925,1.6558995113268484,0.11986519461513614,1.562147542188237
0.925803387924061,1.53792448950538,0.1354866700370185,1.6529829625199466
0.9411826328191149,1.4192792445288478,0.15201649966221797,1.7400336872668767
0.9553754252644033,1.2998957212170057,0.16941683653488673,1.823588801367768
0.9683743824765734,1.179714551742968,0.1876527245485644,1.9039534229941149
0.9801715279940031,1.0586835300640747,0.20669225877850556,1.9814472013627247
0.9907583632946438,0.9367561260499657,0.2265067307921328,2.0564027287319897
1.0001259245551435,0.8138901674604422,0.2470707580794527,2.1291637369414875
1.008264826229748,0.6900468205745786,0.2683623954488676,2.2000829429600866
1.0151652944354939,0.5651900129730728,0.29036322487846844,2.2695193861057152
1.0208171945652247,0.43928646521534603,0.3130584187395256,2.337835061425899
1.025210059217378,0.31230653293428157,0.3364367693537846,2.4053905979841677
1.0283331245467209,0.1842261084124082,0.3604906753336263,2.4725396559410573
1.0301753856308449,0.05502989191878807,0.38521607189303686,2.5396216211579894
1.0307256845500328,-0.07528358233304283,0.41061228810461675,2.6069520610116337
1.0299728487267024,-0.2066946959434284,0.4366818087147331,2.6748102744643907
1.027905901767268,-0.33915271580885525,0.463429911459377,2.7434231351275318
1.0245143746091794,-0.47256235806557056,0.4908641428106523,2.8129443137823067
1.0197887510285237,-0.6067663040028884,0.5189935859484754,2.883427925265542
1.0137210879884948,-0.7415231204573746,0.5478278652011309,2.9547957579701514
1.0063058567839211,-0.8764803398576513,0.5773758227808324,3.026797646574802
0.9975410533853446,-1.0111431031514497,0.6076437992465804,3.098965434599246
0.9874296223538301,-1.144839936449708,0.6386334535925728,3.1705625906777284
0.9759812229893331,-1.2766890914407516,0.6703390794993501,3.240534139157152
0.9632143320749256,-1.4055714998241637,0.7027444208909216,3.307465250389224
0.9491586170766839,-1.5301195476015281,0.7358190733948138,3.369561308936292
0.9338574216006686,-1.6487337689012909,0.7695146864841766,3.4246664405392915
0.9173700839116558,-1.7596405782588336,0.8037613508895696,3.470339085658476
0.8997736781290674,-1.86100097073088,0.8384647417461544,3.5039989858644347
0.8811636684217586,-1.951070551787745,0.8735047316047987,3.5231468248872617
0.8616529629038812,-2.028395208986643,0.9087361998536713,3.5256355124179044
0.8413690108140147,-2.0920083197371793,0.9439925549778503,3.5099463646183025
0.8204489276166429,-2.141583207238545,0.9790920186240333,3.475406161976568
0.7990330955442575,-2.1774978868173958,1.013846080243799,3.4222852098663856
0.7772581166760836,-2.20079096353908,1.0480689323424628,3.351746353062897
0.7552502070406928,-2.2130199426400012,1.0815863958730918,3.2656595527869894
0.7331200076142927,-2.2160609285538793,1.1142429914009617,3.1663350021371515
0.710959398328754,-2.211899222762305,1.1459063414223332,3.056242499217138
