th1 (rad),w1 (rad/s),th2 (rad),w2 (rad/s)
3.299718011728423,2.9161675210598905,1.8985250829299238,2.8693020515796466
3.328879686939022,2.8914295896253828,1.9272181034457203,2.8645137197092834
3.3577939828352754,2.8697209694180676,1.9558632406428131,2.858737781263974
3.3864911925294563,2.851009323232763,1.984450618455453,2.8522403554137816
3.4150012857617837,2.8352562012147837,2.0129730220095907,2.8452795778394204
3.4433538477739316,2.8224171365191353,2.0414258177879847,2.8381062145271825
3.471578019139123,2.8124417643634034,2.0698068799332567,2.8309642713328373
3.4997024367827567,2.8052739516260554,2.098116522646585,2.824091589237391
3.527755176299017,2.8008519257599,2.126357438538959,2.817720415823949
3.555763695556616,2.799108393190798,2.1545346426971985,2.8120779441916324
3.5837547794885243,2.7999706385664878,2.182655422139115,2.8073868112407108
3.6117544858741892,2.803360597225731,2.210729290251522,2.803865547975727
3.6397880918464467,2.8091948940935163,2.2387679457312792,2.801728975153691
3.6678800407873817,2.817384842896313,2.266785235482816,2.8011885382348174
3.696053889216345,2.827836400157567,2.294797120865164,2.802452576164209
3.724332253217921,2.840450068905005,2.322821646626806,2.8057265190220746
3.7527367539069707,2.855120747427155,2.350878911817027,2.8112130100319273
3.7812879613812425,2.8717375187877257,2.378991041917346,2.819111947821397
3.8100053365691195,2.890183377175572,2.40718216139556,2.829620445205766
3.8389071703408755,2.9103348875688937,2.435478365847618,2.842932701133116
3.8680105192165644,2.932061775660232,2.4639076928589487,2.8592397828216183
3.8973311369731665,2.955226445560198,2.492500090687165,2.878729315570104
3.9268834014287686,2.9796834235098277,2.521287383842866,2.901585078275805
3.956680235663867,3.0052787267217744,2.5503032346256242,2.927986503398437
3.9867330229310847,3.0318491575766084,2.5795830996596085,2.958108081025502
4.017051514506851,3.0592215247586187,2.6091641804698638,2.992118667884969
4.047643729754437,3.0872117945594617,2.6390853671487133,3.0301807036906605
4.078515847700031,3.1156241775371774,2.66938717418562,3.0724493391709653
4.109672089475403,3.1442501580151263,2.7001116675773296,3.119071482605935
4.141114591055554,3.1728674765530407,2.731302382403389,3.1701847747667284
4.172843265821085,3.2012390785195937,2.763004230151056,3.225916505899294
4.204855656606281,3.2291120452232627,2.795263395210049,3.2863824929006786
4.237146777058514,3.256216527672383,2.8281272201390557,3.3516859401704577
4.269708942335237,3.2822647068626396,2.8616440795407603,3.421916313833516
4.302531589403864,3.30694980842037,2.8958632426790953,3.497148266150833
4.335601087488067,3.3299452033085424,2.9308347253406035,3.577440654955196
4.368900539521152,3.3509036299243142,2.9666091318901553,3.6628357118186035
4.402409575820395,3.3694565760217934,3.0032374890083413,3.753358422273748
4.436104141580613,3.3852138611611586,3.040771073231079,3.849016191606698
4.469956280192225,3.3977634614373216,3.079261235147146,3.9497988802740602
4.503933914806598,3.4066716176475005,3.1187592239498865,4.055679303561225
4.538000630983073,3.4114832653495317,3.159316016985499,4.166614300296056
4.572115463636568,3.4117228199615846,3.200982159988459,4.282546484796027
4.606232691836184,3.4068953417072394,3.2438076248364194,4.403406804219518
4.640301645253257,3.3964880934525263,3.2878416928786147,4.529118029519889
4.6742665261877825,3.37997248911794,3.3331328731738137,4.65959931162398
4.708066251078962,3.356806411466691,3.3797288662900535,4.79477193459037
4.741634315193629,3.3264368561974527,3.4276765856359575,4.934566393594991
4.774898683755604,3.2883028355845068,3.4770222495719074,5.0789309167442696
4.807781712111448,3.2418384515392704,3.52781155873935,5.227841534702729
4.840200096626841,3.1864760284233413,3.5800899740863774,5.3813137790195915
4.8720648569110745,3.1216491857579056,3.6339031118765734,5.539416055536084
4.903281348768654,3.046795738709978,3.689297272431934,5.702284687414291
4.933749306155754,2.961360353097565,3.746320119306077,5.870140542432385
4.9633629096867296,2.8647969721424147,3.805021524730401,6.043307032059024
4.992010879408154,2.7565712065141903,3.8654545950509913,6.222229061573793
5.019576591473296,2.6361631886279984,3.9276768856667292,6.407492162094296
5.045938223359576,2.5030719192736863,3.991751807287672,6.599840445123959
5.070968942552312,2.356823013500274,4.057750211738911,6.800191015029649
5.094537172687315,2.196983200910452,4.1257521218892075,7.009640763599321
5.11650700469642,2.023187303541544,4.1958485295252,7.22945857218883
5.136738877731835,1.8351872534367288,4.268143115247089,7.461051085994163
5.1550907502662024,1.6329388470189936,4.34275362610703,7.705882211632085
5.1714201387363925,1.4167514763794393,4.419812448223351,7.965313659435184
5.185587653500187,1.1875401612568717,4.499465584817703,8.240314354050264
5.197463055112756,0.9472378320458218,4.581868728358206,8.530959774673008
5.206935433433214,0.6994443564865845,4.667178326104936,8.835613514179036
5.21392987699808,0.45038929580105824,4.755534461246726,9.149675407627218
5.21843376995609,0.21021936671760508,4.847031215322998,9.463857513222793
5.220535963623266,-0.005609662564041912,4.941669790455226,9.762244582560523
5.220479866997626,-0.17557690393702127,5.039292236280831,10.021081113299308
5.218724097958256,-0.27346203398104507,5.139503047413824,10.210229496654955
5.215989477618445,-0.2735302096354461,5.241605342380374,10.299552811567068
5.21325417552209,-0.15931484057131012,5.344600870496044,10.269949639715081
5.211661027116377,0.06849335136822396,5.447300366893195,10.123129247042247
5.212345960630059,0.391524784148249,5.548531659363618,9.881718982879532
5.216261208471542,0.7816702709485033,5.647348849192413,9.578600574653708
5.224077911181027,1.2111517817894943,5.74313485493895,9.244055766740159
5.236189428998922,1.6584427432998894,5.835575412606352,8.898791567744922
5.252773856431921,2.1092235299030815,5.924563328283801,8.553489335502821
5.273866091730952,2.554797558813586,6.010098221638829,8.211441978938169
5.299414067319088,2.9900942944323976,6.092212641428211,7.871487726453819
5.329315010263412,3.4121366082644555,6.170927518692749,7.530191002437606
5.363436376346057,3.8190854987737732,6.246229428717125,7.183213328258711
5.401627231333794,4.2097238625576185,6.318061561999713,6.826105822605598
5.4437244699593705,4.583221500671336,6.386322620225768,6.454747112071372
5.489556684966084,4.939064889247465,6.4508700913464825,6.065576402744174
5.538947333858559,5.277076456776995,6.511525855373924,5.655707513891509
5.591718098426329,5.597476601301774,6.56808293051284,5.222968630074867
5.647692864439346,5.90095918284274,6.620312616813588,4.765889926095686
5.706702456267774,6.188761579057836,6.6679715160745445,4.283650884966883
5.768590072058352,6.4627163640062255,6.710808024924213,3.7759967048076506
5.833217235698414,6.725274538730229,6.74856799197229,3.2431363132609867
5.900469981085716,6.979489916563468,6.7809993551049,2.6856425320499593
5.97026488025135,7.2289492951755125,6.807855780425399,2.104388978186324
6.042554373203106,7.477620351619727,6.828899670207262,1.5005817486630844
6.117330576719303,7.729563571492106,6.843905487693893,0.8759832929817555
6.194626212434224,7.988408543070843,6.852665320623711,0.23349079853076304
6.274510297864933,8.256421898736415,6.855000228609018,-0.4216697196231708
6.357074516852297,8.532902653960168,6.8507835314127865,-1.0797539068031394
6.442403543391898,8.811603155482697,6.839985992344755,-1.722903108581443
6.530519574946725,9.077145169237532,6.822756961258941,-2.3201546587907185
6.6212910266391,9.301567403137128,6.799555414671033,-2.8227860945233356
6.7143067006704715,9.444784622763997,6.7713275537258,-3.1655362340490614
6.808754546898111,9.465163369760996,6.739672191385309,-3.2826797786866084
6.903406180595721,9.341381919801943,6.706845393598443,-3.140550530424194
6.996819999793741,9.090157674879379,6.675439888294201,-2.7640322499639223
7.087721576542535,8.75869556452019,6.647799565794561,-2.2259919529243755
7.175308532187737,8.397841190169263,6.6255396462653176,-1.6077378317187692
7.259286944089429,8.042612914995882,6.60946226794813,-0.9692736723186388
7.339713073239388,7.709815946640265,6.599769531224943,-0.3443487136817388
7.416811232705791,7.4039638301487924,6.596326044088126,0.2517959707206401
7.490850871007279,7.123280836355448,6.598844003795333,0.8139814508306067
7.562083679370833,6.86345138862791,6.606983818303639,1.3416274435140187
7.6307181932571115,6.6195249691383395,6.6204000927387785,1.8358887355247666
7.696913442948495,6.38676666184187,6.6387589800940265,2.2983365789246033
7.7607811095669135,6.160989197591704,6.6617423458832725,2.730431664473269
7.82239100154283,5.938651300059987,6.689046662528005,3.1333717906966667
7.881777514543431,5.716858088887873,6.720380380434972,3.5081049865637217
7.93894609543231,5.493323815212241,6.755461430300609,3.8554073649532388
7.993879333584432,5.266321723147691,6.794015503950141,4.175978158193509
8.046542550815909,5.034630035756304,6.835775285532076,4.470529862563367
8.096888851173471,4.797476543202014,6.88048058415771,4.73986366369553
8.144863616605491,4.554481998198297,6.927879220794665,4.9849263691423555
8.190408436587473,4.305602118628846,6.9777284844860885,5.2068482404349625
8.233464457773762,4.05106833088694,7.029796966890438,5.4069629002472555
8.273975141082632,3.7913279227124175,7.083866595892911,5.586811552563659
8.311888420309756,3.5269847598193595,7.139734711418547,5.748134370797468
8.34715826790795,3.258742051800488,7.197216055126522,5.892852187925471
8.379745688425956,2.9873488075983436,7.256144577005776,6.023041604200801
8.40961917650194,2.713551629091441,7.316374993047784,6.1409063289812655
8.436754692792855,2.438053419171416,7.377784056337597,6.248747001268878
8.461135226984569,2.1614805222783557,7.440271526350286,6.3489308835515175
8.482750032207353,1.8843598898788645,7.503760835185801,6.443861663837399
8.501593631106141,1.6071082166027668,7.568199451824175,6.535948052745783
8.517664713272168,1.3300358027255734,7.633558932351633,6.627567776973851
8.530965071299423,1.0533693804026871,7.699834610121371,6.721020709032436
8.54149876510345,0.7773005345878651,7.767044817211696,6.818460916090105
8.549271770449328,0.5020698499481261,7.835229426372597,6.921792046649075
8.554292468948809,0.22810144813638938,7.9044473468390875,7.032503701439492
8.556573483430173,-0.04379277338492921,7.974772383853482,7.151419350266964
8.556135555696324,-0.31211815513106067,8.046286577356152,7.278322896749834
8.553014374145013,-0.5742991085576326,8.119069806323651,7.4114411543307215
8.547271383059437,-0.8261990730311195,8.193184217866959,7.5468035304242465
8.539009392329126,-1.0616608111737749,8.2686522531712,7.677608857305877
8.528392784217388,-1.2723120291141017,8.34542834174426,7.793924154119536
8.515669663926246,-1.4480448497688005,8.423367583285454,7.8832672415760445
8.501189215428559,-1.578588808164957,8.502200255701215,7.932649419536386
8.485403327346908,-1.656168661683456,8.581526749896579,7.9320822999876865
8.468841640730075,-1.6783181214080265,8.660847572896456,7.878309699454198
8.452058459515994,-1.6492149139849697,8.739630669890998,7.776573178331645
8.435566310376144,-1.57849552695853,8.817396401674314,7.639030386681869
8.419781355106558,-1.478233135567676,8.893786705541132,7.4807736100530935
8.40499902375088,-1.3598780551667065,8.968594441641663,7.315867149436278
8.391400243199213,-1.2324586169456357,9.041753113136027,7.1551036378608455
8.379075657029757,-1.1021562273565646,9.113304149514635,7.005577750383189
8.368054094756191,-0.9726987903159421,9.183359927018467,6.87130304006279
8.358327106853032,-0.8460143639346787,9.252072957419095,6.754125268452469
8.349866963213685,-0.722836323314338,9.31961421010362,6.654534887603034
8.342638599980543,-0.6031586943689995,9.38615955897965,6.572259950689907
8.336607013036852,-0.48654350631074234,9.451882158486548,6.506653888527196
8.331741577973744,-0.37231481433891456,9.51694869737182,6.456931237087689
8.328018429830355,-0.2596753916224582,9.581518009742696,6.422302512974614
8.32542167591413,-0.14777392864995176,9.645741034872442,6.402046378976736
8.32394393662763,-0.035741839755482396,9.709761498662209,6.39554446791045
8.323586518230076,0.07728797587833028,9.773716943341313,6.4022947095613985
8.324359397988859,0.19217267326286003,9.837739890436927,6.4219126507159725
8.326281124721488,0.3097564950104989,9.901959016944087,6.454126245598641
8.329378689671593,0.43087029627991474,9.966500279400073,6.498767130379517
8.333687392634392,0.5563316258102957,10.031487950703868,6.555759898888368
8.339250708892495,0.6869440311044663,10.097045549692751,6.625109983183054
8.34612014920354,0.8234945691339516,10.163296649524582,6.706890171840355
8.35435509489488,0.9667486355976797,10.230365551242986,6.801225425381537
8.364022581250856,1.1174412442037858,10.298377805496802,6.908275387246729
8.375196993692894,1.2762638384533382,10.367460559369269,7.028213794158894
8.387959632077427,1.4438456372500719,10.437742697310858,7.161203841888944
8.402398088449928,1.620728435894662,10.509354735729747,7.307368461684237
8.418605372808875,1.8073337444076663,10.58242842034659,7.4667544268854416
8.436678710252952,2.0039211953103697,10.657095964615444,7.6392892738402915
8.456717922206057,2.21053735780011,10.733488857353846,7.824730239171676
8.478823295784057,2.426954536488729,10.811736159745562,8.022604856527503
8.503092841148945,2.652599906413132,10.891962208310837,8.232143601540304
8.529618840213075,2.8864765408180704,10.97428364432624,8.452206104384883
8.558483605621255,3.1270796028763193,11.058805705370089,8.681204020883607
8.58975440165002,3.3723132159087945,11.145617745578924,8.917025658956652
8.623477533809107,3.619416202062289,11.234788002168491,9.156969777920052
8.65967169582973,3.8649077099201206,11.326357699947692,9.397698328311082
8.69832077292893,4.104566227739671,11.420334683230804,9.635219794835715
8.739366435206326,4.333456855093663,11.516686881179162,9.864915582487729
8.782701003757262,4.5460210891560076,11.615336037004038,10.081620821592612
8.828161214648823,4.736239948479593,11.716152245219964,10.27976749908269
8.875523614133618,4.8978745721977655,11.818949920210791,10.453591838316688
8.924502359855596,5.024778778481232,11.923485838593958,10.597399912038632
8.974750147640409,5.111266605775973,12.029459837714345,10.705876814333665
9.025862813698168,5.152506485635584,12.136518605857681,10.774416892074186
9.077387878554525,5.144904563238721,12.244262774778424,10.799446854698859
9.128836924186912,5.086434662042262,12.352257243325413,10.77871068306129
9.179701270807334,4.976872752581252,12.460044350156027,10.71148520714446
9.229469998333146,4.817900231804202,12.56715920222747,10.59869811984887
9.277649000651188,4.6130530688077505,12.67314618342596,10.442926737237498
9.323779531339266,4.367512369671713,12.777575450798334,10.248267036735028
9.367454655035983,4.087754097986632,12.880058121165685,10.020078524995188
9.40833219601585,3.7810975009089733,12.980258906415637,9.764629156347649
9.44614317102494,3.4552078288180703,13.077905197979113,9.488681285457291
9.48069524931312,3.117614428460214,13.172792010833687,9.199069213908079
9.511871393597723,2.775298400476794,13.264782702972768,8.90231789375788
9.539624377602491,2.4343869422421958,13.353805881910347,8.604341105805347
9.563968247024913,2.099969567925432,13.4398492929684,8.310239788385152
9.584967942704168,1.7760307095666334,13.522951690852253,8.024202599184035
9.602728249799835,1.465478286159931,13.603193716844093,7.749495927814099
9.617383032661435,1.170240464981659,13.680688676122234,7.488521873358511
9.629085437311252,0.8914022928569738,13.755573894855818,7.242920196480069
9.637999460239822,0.6293579626143451,13.828003096820618,7.013692395798943
9.644293039865966,0.38396074369960065,13.898140020778607,6.80133075385139
9.648132647302962,0.15465908720164037,13.966153328317121,6.605940617292418
9.649679238174977,-0.05938706472790972,14.032212734490045,6.427349104563294
9.649085367527698,-0.2592116496109649,14.096486225535678,6.265197286760877
9.646493251031588,-0.44596876187314893,14.159138198403287,6.119015543192958
9.642033563412857,-0.6208775785362732,14.220328353835217,5.988283395569778
9.635824787627495,-0.7851830361809491,14.280211187790915,5.872475921017622
9.627972957265685,-0.9401292618901883,14.33893594700109,5.771099084302829
9.618571664646783,-1.0869429565025048,14.39664693784412,5.683716218185488
9.607702235081758,-1.2268242442930903,14.453484100025975,5.6099675606793165
9.595433992638828,-1.360942819059446,14.509583775632768,5.549584312263995
9.581824564448233,-1.490437449286038,14.565079618755409,5.502398134889009
9.566920189955372,-1.6164169890003413,14.620103600104299,5.468346360724049
9.550756020065368,-1.7399609100675055,14.67478706371154,5.447472348604292
9.533356410964693,-1.8621169429486073,14.729261787197583,5.439919305914732
9.514735241535206,-1.9838925721857783,14.78366098025673,5.445914310815462
9.494896315813348,-2.1062357280314234,14.838120123364885,5.465736990516948
9.473833958533033,-2.2299978729203596,14.892777493270055,5.499664065462658
9.45153397980383,-2.355869683734112,14.947774133924682,5.547876557923896
9.42797528296649,-2.4842758459289294,15.00325289950392,5.610311074067627
9.4031325245072,-2.615212104872495,15.059356010244596,5.686431534978355
9.376980403458475,-2.748007623281688,15.116220325594378,5.774897104838704
9.349500327225659,-2.881005657448323,15.173969296642765,5.873115231641607
9.320690270651175,-3.0111880742308106,15.23270044895918,5.976713072281929
9.290578389908868,-3.133840563146719,15.292467579682,6.07905897804212
9.2592399842774,-3.242470119040073,15.353258169462421,6.171125023038952
9.226815283087,-3.329296328838685,15.414969419692811,6.242135496360374
9.193522319798612,-3.386594192914628,15.477390774656415,6.281388101762522
9.159656377869466,-3.408773059410753,15.54020465567404,6.281092192188717
9.125568647275358,-3.394387319195018,15.603015577595928,6.239115791888472
9.091624774083408,-3.3468899560965504,15.665406735514813,6.1600037766158025
9.058155874522443,-3.273540785990457,15.727006773280971,6.053465158911613
9.025420466662538,-3.1831254418357733,15.787541424870087,5.931245857488408
8.993589212244181,-3.083786191580456,15.84685388344497,5.804180991588566
8.962751350328377,-2.981806619263717,15.904895693360855,5.680572274855676
8.93293328413574,-2.8813684994176585,15.961701416109412,5.565897634335307
8.904119599141563,-2.7848713736616477,16.017360392452765,5.463279566342017
8.876270885404946,-2.6934233234996476,16.071993188116185,5.374173479005255
8.84933665216995,-2.6072885569246753,16.125734922906236,5.298985983514157
8.823263766600702,-2.5262219668695223,16.178724782741376,5.237532371151596
8.798001546932007,-2.4496931838993765,16.231100106452892,5.189340550339244
8.773504615093012,-2.3770259640049063,16.282993511956285,5.1538391326945225
8.749734355452963,-2.3074797292331723,16.33453190328323,5.130467501340003
8.726659558160632,-2.2402941100063565,16.385836578296633,5.118736758283766
8.704256617060569,-2.174710870090092,16.43702394587947,5.118261137114838
8.682509508359669,-2.1099825592796124,16.48820655725062,5.128772280561908
8.661409682766873,-2.045373806897939,16.53949428005624,5.15012383989803
8.640955944697893,-1.9801590102789401,16.59099551845522,5.182290616489576
8.621154354595104,-1.9136189160891053,16.642818424620117,5.22536435775105
8.602018165434213,-1.8450379577186184,16.69507206819763,5.279546886626887
8.583567785857028,-1.7737040193558244,16.747867537063897,5.3451401603888336
8.565830745663469,-1.6989124480939537,16.801318938667784,5.4225318904138415
8.548841621182529,-1.6199765877638834,16.85554425757192,5.5121743403483086
8.53264185530489,-1.5362478542322764,16.910666000975404,5.61455272788058
8.517279376762566,-1.447149411029689,16.96681152825421,5.73013819905368
8.50280788265227,-1.3522288028291494,17.024112910244746,5.859318608003531
8.48928559462398,-1.2512363260486208,17.08270609632478,6.002298448605992
8.476773231363493,-1.144237099492115,17.14272908081084,6.158957668301695
