th1 (rad),w1 (rad/s),th2 (rad),w2 (rad/s),a1 (rad/s^2),a2 (rad/s^2)
4.6071947777731745,3.11536554460742,1.267166083412544,2.9098265098571163,9.73839974245277,-1.7177350131835238
4.638348433219249,3.212749542031948,1.2962643485111152,2.892649159725281,9.574476653314857,-2.1059108786907665
4.6704759286395685,3.3084943085650966,1.325190840108368,2.8715900509383734,9.388796200489056,-2.525468033516021
4.7035608717252195,3.402382270569987,1.3539067406177518,2.8463353706032133,9.177497744310951,-2.98205481213472
4.737584694430919,3.4941572480130967,1.382370094323784,2.816514822481866,8.936639656489794,-3.481384821688865
4.77252626691105,3.5835236445779945,1.4105352425486026,2.7817009742649774,8.662293851252851,-4.029081515837471
4.80836150335683,3.670146583090523,1.4383522522912524,2.7414101591066027,8.35066099616439,-4.630491508936346
4.845062969187735,3.7536531930521666,1.4657663538823185,2.695105244017239,7.9982089296161165,-5.290464150104133
4.882599501118257,3.833635282348328,1.4927174063224908,2.6422006025161977,7.601836095662196,-6.0130965179698945
4.9209358539417405,3.90965364330495,1.5191394123476527,2.582069637336499,7.159060526259179,-6.8014455423007885
4.96003239037479,3.9812442485675414,1.5449601087210176,2.514055181913491,6.668232919553107,-7.657212565741505
4.999844832860465,4.047926577763072,1.5701006605401526,2.4374830562560756,6.1287695694734206,-8.580410417001751
5.040324098638096,4.109214273457806,1.5944754911027135,2.351678952086058,5.541397252354006,-9.569028930670823
5.081416241372674,4.164628245981346,1.617992280623574,2.25598866277935,4.908397750713791,-10.618721553365283
5.123062523832488,4.213712223488484,1.6405521672513674,2.149801447245697,4.233834765628555,-11.722542643945454
5.165199646067372,4.25605057114477,1.6620501817238245,2.0325760208062427,3.5237410700018095,-12.870771341169576
5.20776015177882,4.291287981844788,1.6823759419318869,1.9038683073945468,2.786239719558521,-14.050862058279867
5.250673031597268,4.319150379040374,1.7014146250058324,1.7633596868117483,2.0315710839616856,-15.24756206434834
5.293864535387671,4.33946608987999,1.7190482218739498,1.6108840661682648,1.2719986712007798,-16.443231428778653
5.337259196286471,4.352186076591998,1.7351570625356325,1.4464517518804783,0.5215724005823297,-17.618388368944412
5.380781057052391,4.357401800597821,1.7496215800544372,1.2702678681910342,-0.20426110782489104,-18.752483185597562
5.42435507505837,4.3553591895195725,1.7623242587363477,1.0827430363350585,-0.8891956399071462,-19.824877445517874
5.467908666953566,4.346467233120501,1.7731516890996983,0.8844942618798798,-1.5167245538038152,-20.81597477697194
5.511373339284771,4.331299987582463,1.7819966317184972,0.6763345141101603,-2.0708759504383822,-21.70842042945209
5.554686339160596,4.31059122807808,1.7887599768595988,0.4592503098156394,-2.5369599620665877,-22.48826474656567
5.597792251441376,4.285221628457414,1.7933524799577552,0.2343676623499827,-2.902253516103745,-23.14597697064748
5.64064446772595,4.2561990932963765,1.795696156581255,0.002907892643507881,-3.156547634105102,-23.67720455628052
5.683206458658915,4.224633616955326,1.79572523550769,-0.2338641529192973,-3.292493908535814,-24.083200161388298
5.725452794828468,4.1917086778699675,1.793386593978497,-0.47469615453318026,-3.3057089747243524,-24.370880174452935
5.767369881607167,4.158651588122724,1.7886396324331653,-0.7184049562777096,-3.1946246090606465,-24.5525277106757
5.808956397488394,4.126705342032118,1.7814555828703882,-0.9639302333844666,-2.9601008465579794,-24.64520017652993
5.850223450908715,4.097104333566538,1.7718162805365436,-1.210382235149766,-2.6048443271790664,-24.669938030059427
5.891194494244381,4.071055890294748,1.7597124581850458,-1.4570816154503603,-2.1326894436598214,-24.65089144476677
5.931905053147329,4.04972899585815,1.7451416420305423,-1.703590529898028,-1.5478037294519518,-24.614483668244315
5.972402343105911,4.03425095856363,1.728105736731562,-1.9497353665804713,-0.8538719426298271,-24.58871657658054
6.012744852691547,4.025712239137332,1.7086083830657572,-2.1956225323462766,-0.05329823983768664,-24.602700741475953
6.05300197508292,4.025179256738955,1.6866521577422944,-2.4416495397610363,0.8535534374338004,-24.686465639456152
6.09325376765031,4.033714791113293,1.6622356623446841,-2.6885141961555976,1.8690801478822194,-24.871080843160396
6.133590915561443,4.052405592592115,1.6353505203831282,-2.9372250045872015,2.999137491949935,-25.18909910476007
6.174114971487365,4.082396967511615,1.6059782703372563,-3.1891159956348023,4.253739096781237,-25.675316637713205
6.2149389411624805,4.124934358479427,1.5740871103809082,-3.4458691620119346,5.647781992022863,-26.36782936679206
6.2561882847472745,4.181412178399656,1.539628418760789,-3.7095474556798553,7.20180188793038,-27.309333867175404
6.298002406531271,4.253430197278959,1.5025329442039903,-3.9826407943516093,8.942706916304575,-28.54855208655795
6.340536708504061,4.342857266442005,1.4627065362604743,-4.268126315217189,10.904310816165117,-30.141496187472377
6.383965281168481,4.451900374603656,1.4200252731083025,-4.569541277091913,13.127208003162936,-32.15192236032799
6.428484284914518,4.583172454635285,1.3743298603373835,-4.891060500695193,15.656935775535818,-34.64951579223513
6.47431600946087,4.739741812390643,1.3254192553304316,-5.237555658617545,18.538102160579474,-37.702613567314735
6.521713427584777,4.925122833996438,1.2730436987442562,-5.614581794290692,21.799511209819524,-41.35861516330826
6.570964655924741,5.143117946094633,1.2168978808013493,-6.028167945923775,25.419963436515793,-45.597788588369724
6.622395835385688,5.397317580459791,1.1566162013421115,-6.484145831807472,29.25436836454366,-50.23215582728972
6.676369011190285,5.689861264105227,1.0917747430240368,-6.986467390080369,32.88442033269494,-54.69951993307726
6.733267623831337,6.018705467432176,1.021910069123233,-7.533462589411142,35.34921243723155,-57.68984239193993
6.793454678505659,6.3721975918044915,0.9465754432291216,-8.110361013330541,34.773339757771986,-56.62704527583632
6.8571766544237045,6.7199309893822115,0.8654718330958162,-8.676631466088905,28.23654315970849,-47.48417201225725
6.924375964317527,7.002296420979296,0.7787055184349272,-9.151473186211478,12.988815377362172,-26.470730431988812
6.994398928527319,7.132184574752918,0.6871907865728124,-9.416180490531366,-9.924523452551265,4.926730106876528
7.0657207742748485,7.032939340227405,0.5930289816674987,-9.3669131894626,-32.94979986654528,36.200342514424065
7.136050167677123,6.703441341561953,0.49935984977287273,-9.00490976431836,-47.350866845150534,55.28642295398476
7.203084581092742,6.229932673110447,0.40931075212968915,-8.452045534778511,-51.37836387049265,59.89233714722575
7.265383907823847,5.716149034405521,0.324790296781904,-7.853122163306254,-49.01439148299305,55.63769960823708
7.322545398167902,5.22600511957559,0.2462590751488415,-7.296745167223883,-44.31344123008447,48.16309035710221
7.374805449363658,4.782870707274745,0.17329162347660265,-6.815114263652861,-39.41959313565664,40.42067648254378
7.422634156436406,4.3886747759181794,0.10514048084007405,-6.410907498827423,-35.120508205778485,33.47687816706217
7.466520904195588,4.037469693860395,0.04103140585179982,-6.076138717156801,-31.587941155873647,27.550213447547026
7.506895601134191,3.721590282301658,-0.01972998131976819,-5.800636582681331,-28.772818836849037,22.559699503636875
7.544111503957208,3.4338620939331674,-0.07773634714658151,-5.575039587644962,-26.5674972146752,18.348160454477927
7.57845012489654,3.1681871217864153,-0.13348674302303112,-5.391557983100183,-24.863216963367968,14.760432857016276
7.610131996114404,2.9195549521527355,-0.18740232285403297,-5.243953654530021,-23.566771098823704,11.665611492502743
7.639327545635932,2.6838872411644985,-0.23984185939933317,-5.127297539604993,-22.60268650971512,8.959695141313064
7.666166418047577,2.457860376067347,-0.2911148347953831,-5.037700588191862,-21.910894266297625,6.562310110447763
7.69074502180825,2.2387514334043708,-0.3414918406773017,-4.972077487087385,-21.443456121802804,4.4123459659393225
7.713132536142294,2.024316872186343,-0.39121261554817555,-4.927954027427992,-21.161507632646586,2.464038626836098
7.733375704864158,1.812701795859877,-0.4404921558224555,-4.903313641159631,-21.032709396894496,0.6838531140525476
7.751502722822757,1.602374701890932,-0.4895252922340518,-4.8964751100191055,-21.029207764502434,-0.9518760141601567
7.767526469841666,1.3920826242459077,-0.5384900433342429,-4.905993870160707,-21.126029206464718,-2.4586975813343255
7.781447296084125,1.1808223321812605,-0.58754998203585,-4.93058084597405,-21.299830197339062,-3.8453535862750248
7.793255519405938,0.9678240302078699,-0.6368557904955905,-4.9690343818368,-21.52794544885229,-5.1147942969428675
7.802933759708017,0.752544575719347,-0.6865461343139585,-5.020182324806229,-21.787702774954457,-6.265027944065646
7.81045920546521,0.5346675479698024,-0.7367479575620208,-5.082832604246885,-22.055995814654406,-7.289917309643658
7.815805880944908,0.31410758982325837,-0.7875762836044897,-5.1557317773433216,-22.3091232007873,-8.180020048779722
7.818946956843141,0.09101635781538536,-0.8391336013779229,-5.237531977831119,-22.522912288045788,-8.923552466412346
7.819857120421295,-0.13421276506507251,-0.8915089211562341,-5.326767502495242,-22.673144904431172,-9.507533649706527
7.818514992770644,-0.36094421410938426,-0.9447765961811866,-5.4218428389923075,-22.736289500929985,-9.919134667759138
7.81490555062955,-0.5883071091186841,-0.9989950245711097,-5.521034185669899,-22.690517211845254,-10.147214020895937
7.809022479538363,-0.8152122812371366,-1.0542053664278086,-5.622506325878859,-22.516939627895987,-10.183966896564028
7.800870356725992,-1.0403816775160966,-1.1104304296865972,-5.724345994844499,-22.200958111702036,-10.026557927785252
7.790466539950831,-1.262391258633117,-1.1676738896350423,-5.824611574122351,-21.73356732538274,-9.67855607263343
7.7778426273645,-1.4797269318869444,-1.2259200053762658,-5.921397134848686,-21.112422278141693,-9.15096088885933
7.7630453580456305,-1.6908511546683613,-1.2851339767247527,-6.012906743737279,-20.34247288982191,-8.462617122110785
7.746136846498946,-1.8942758835665805,-1.3452630441621256,-6.097532914958387,-19.436003685545238,-7.639869031455805
7.727194087663281,-2.088635920422033,-1.4062383733117094,-6.173931605272944,-18.411990939148296,-6.715405733763112
7.706307728459061,-2.2727558298135158,-1.467977689364439,-6.241085662610575,-17.294795099844,-5.72637778191458
7.683580170160925,-2.445703780811956,-1.5303885459905446,-6.298349440429721,-16.112320475657306,-4.711994152342965
7.659123132352806,-2.606826985568529,-1.593372040394842,-6.3454693819531505,-14.89386857280104,-3.7109041052506755
7.633054862497121,-2.7557656712965395,-1.6568267342143734,-6.382578423005657,-13.66796119844658,-2.758703350204919
7.605497205784156,-2.8924452832810053,-1.72065251844443,-6.410165456507706,-12.46040194328918,-1.8858691781816548
7.576572752951345,-3.017049302713897,-1.784754173009507,-6.429024148289523,-11.292784529680569,-1.1163361267981566
7.546402259924206,-3.129977148010703,-1.849044414492402,-6.4401875095575045,-10.18156300675035,-0.4667997967886817
7.515102488444099,-3.2317927780782068,-1.9134462895879771,-6.444855507525391,-9.137698030910919,0.05328553905318085
7.482784560663317,-3.323169758387316,-1.977894844663231,-6.4443226521348596,-8.166809132369828,0.441143037981947
7.449552863079444,-3.4048378497110146,-2.0423380711845796,-6.4399112217550405,-7.269709351798913,0.6997211280189958
7.415504484582334,-3.4775349432290037,-2.10673718340213,-6.432914010474851,-6.443179133607109,0.8365392351964986
7.380729135150044,-3.541966734565075,-2.1710663235068783,-6.424548618122886,-5.6808451229676304,0.8624935083128975
7.345309467804393,-3.5987751857947514,-2.235311809688107,-6.415923683039757,-4.974056192918848,0.7907428121078148
7.309321715946445,-3.64851574772394,-2.2994710465185046,-6.408016254918678,-4.312682941566301,0.6357489605992085
7.272836558469206,-3.6916425771396026,-2.3635512090676913,-6.401658765312686,-3.685799756681785,0.4125038346698202
7.23592013269781,-3.7285005747064206,-2.427567796720818,-6.397533726965988,-3.08223542826151,0.13594452679687444
7.198635126950746,-3.7593229289890355,-2.491543133990478,-6.396174281698019,-2.4909973413794275,-0.17946292498917385
7.161041897660856,-3.7842329024028296,-2.555504876807458,-6.3979689109479105,-1.9015857728037255,-0.5200015894557246
7.123199568636828,-3.8032487601308667,-2.6194845659169372,-6.403168926842468,-1.3042201390401422,-0.8728774839637363
7.085167081035519,-3.816290961521268,-2.6835162551853617,-6.411897701682105,-0.6899999342759805,-1.2263219804321388
7.047004171420307,-3.8231909608640278,-2.7476352322021826,-6.424160921486426,-0.051021149605984195,-1.5696515280754806
7.008772261811666,-3.8237011723600878,-2.811876841417047,-6.4398574367671815,0.619534576938994,-1.8933081177704225
6.970535250088065,-3.817505826590698,-2.876275415784719,-6.458790517944886,1.3273251120694658,-2.188898214549763
6.932360191822158,-3.804232575470003,-2.9408633209641675,-6.480679500090384,2.0767788092122164,-2.4492423158546193
6.894317866067458,-3.783464787377881,-3.005670115965071,-6.50517192324893,2.871027264501855,-2.668442063990944
6.856483218193679,-3.7547545147328627,-3.0707218351975603,-6.531856343888839,3.7118399612696162,-2.8419670065175935
6.81893567304635,-3.7176361151201665,-3.1360403986364487,-6.560276013954015,4.599564728068729,-2.966758665879335
6.781759311895148,-3.671640467839479,-3.201643158775989,-6.589943600612808,5.533081256397843,-3.0413455886525425
6.745042907216753,-3.6163096552755007,-3.267542594782117,-6.6203570564993335,6.509777578549102,-3.065959613601161
6.708879810663998,-3.5512118794900096,-3.3337461653471103,-6.651016652635345,7.525561160720998,-3.042640941121295
6.673367691869098,-3.4759562678827995,-3.400256331873464,-6.681443062046558,8.57491685509927,-2.9753180019661483
6.63860812919027,-3.390207099331807,-3.4670707624939294,-6.71119624206622,9.651023124707383,-2.8698479456177695
6.6047060581969514,-3.293696868084733,-3.534182724914592,-6.739894721522397,10.745935537734665,-2.734005099527197
6.5717690895161045,-3.1862375127073865,-3.6015816721298157,-6.767234772517669,11.850842517082787,-2.5774081680687164
6.539906714389031,-3.067729087536559,-3.6692540198549923,-6.793008854198356,12.95639295078153,-2.4113822118743897
6.509229423513665,-2.9381651580287436,-3.737184108396976,-6.8171226763171,14.053089013937306,-2.248758266945313
6.479847771933378,-2.7976342678893706,-3.805355335160147,-6.839610258986553,15.131731172623315,-2.103621232019241
6.451871429254484,-2.6463169561631377,-3.873751437750012,-6.860646471306745,16.183896761473896,-1.9910245390355417
6.425408259692853,-2.4844779885483987,-3.9423579024630797,-6.8805567166971,17.202429715567373,-1.926697178801908
6.400563479807369,-2.312453691392725,-4.011163469630051,-6.899823688485119,18.181917823225625,-1.9267739988274557
6.377438942893441,-2.1306345131604685,-4.080161706514902,-6.9190914284733935,19.119135770758504,-2.0075831949642873
6.356132597761836,-1.9394431554528835,-4.149352620799636,-6.939167260423036,20.01343736079529,-2.185525370537336
6.336738166207307,-1.7393087818449307,-4.218744293403867,-6.96102251412841,20.86708821643527,-2.477076719175751
6.319345078388857,-1.530637899680578,-4.288354518545151,-6.985793281320167,21.685540228324964,-2.898945548457063
6.304038699392051,-1.3137824973973284,-4.3582124513583524,-7.0147827368047375,22.477659863354432,-3.468407561640398
6.290900874418078,-1.089005898763784,-4.4283602787264,-7.049466812421142,23.255932983580053,-4.203842160435397
6.28001081543044,-0.8564465689279835,-4.498854946850611,-7.091505234025496,24.036677682250424,-5.1254902849870225
6.2714463497411606,-0.6160797921054793,-4.569769999190866,-7.142760136875366,24.84030223711048,-6.256453808347246
6.265285551820106,-0.36767676973437446,-4.64119760055962,-7.205324674958838,25.69164515959576,-7.623955189947767
6.261608784122762,-0.11076031813841686,-4.713250847309208,-7.281564226858316,26.620423721812283,-9.260868088355858
6.260501180941378,0.155443919079706,-4.786066489577792,-7.374172907741874,27.661786046131294,-11.207501200179802
6.262055620132175,0.43206177954101893,-4.8598082186552105,-7.486247919743672,28.856887450859503,-13.513538333400415
6.266376237927585,0.7206306540496139,-4.934670697852647,-7.6213833030776765,30.253245393321667,-16.239841310545245
6.2735825444680815,1.0231631079828305,-5.010884530883424,-7.783781716183129,31.904263025337208,-19.45936433021912
6.28381417554791,1.3422057382362027,-5.0887223480452555,-7.97837535948532,33.86652051102643,-23.255395353047074
6.297236232930272,1.680870943346467,-5.168506101640109,-8.210929313015791,36.19172933014733,-27.713058520708728
6.314044942363737,2.04278823664794,-5.250615394770266,-8.488059898222879,38.90662551146558,-32.89508021282205
6.3344728247302164,2.431854491762596,-5.335495993752495,-8.8170107003511,41.966645310652055,-38.782552744038824
6.358791369647842,2.8515209448691166,-5.423666100756006,-9.204836227791487,45.15518226980189,-45.141760496872756
6.387306579096533,3.3030727675671354,-5.5157144630339205,-9.656253832760214,47.87922420250817,-51.248099212405585
6.420337306772204,3.781865009592217,-5.612277001361523,-10.16873482488427,48.80529533161012,-55.3859110010172
6.458155956868127,4.269917962908318,-5.713964349610365,-10.722593934894443,45.39621018738988,-54.19887704224388
6.50085513649721,4.723880064782216,-5.8211902889593095,-11.264582705316881,33.951833912029365,-42.70973751695224
6.5480939371450315,5.06339840390251,-5.933836116012478,-11.691680080486403,11.81028588754328,-17.284928180530546
6.598727921184056,5.181501262777942,-6.050752916817342,-11.864529362291709,-17.61830432991808,17.5288807097199
6.650542933811836,5.005318219478761,-6.169398210440259,-11.689240555194509,-43.58088436488609,47.359480718330936
6.700596116006623,4.569509375829901,-6.286290615992204,-11.2156457480112,-57.52068895801322,61.063871404297934
6.746291209764922,3.9943024862497682,-6.398447073472316,-10.60500703396822,-60.42590358057755,60.446690524712906
6.78623423462742,3.3900434504439927,-6.5044971438119985,-10.000540128721092,-57.699731938576384,52.979374574316054
6.82013466913186,2.813046131058229,-6.604502545099209,-9.47074638297793,-53.31067353745774,43.93488611880071
6.848265130442442,2.279939395683652,-6.699210008928989,-9.031397521789923,-49.026249905835954,35.544410321040786
6.871064524399279,1.7896768966252923,-6.789523984146888,-8.675953418579516,-45.39705510170372,28.424344801065104
6.888961293365532,1.335706345608255,-6.876283518332683,-8.391709970568865,-42.485950456655154,22.579357964404686
6.902318356821614,0.9108468410417034,-6.960200618038372,-8.165916390924819,-40.19789156729648,17.839942209559034
6.911426825232032,0.5088679253687387,-7.04185978194762,-7.987516968829229,-38.403728875964596,14.018552407770176
6.916515504485719,0.12483063660909272,-7.121734951635912,-7.847331444751527,-36.98071133033044,10.955554074574009
6.9177638108518105,-0.24497647669421174,-7.200208266083427,-7.737775904005787,-35.822716787775036,8.52675892657727
6.915314046084869,-0.6032036445719622,-7.277586025123485,-7.652508314740014,-34.840525780990745,6.639161769047229
6.909282009639149,-0.9516089023818697,-7.354111108270885,-7.586116697049541,-33.95948752432939,5.224069965586142
6.89976592061533,-1.2912037776251637,-7.429972275241381,-7.53387599739368,-33.11707040620827,4.230515046764341
6.886853882839079,-1.6223744816872463,-7.505311035215318,-7.491570846926036,-32.26101713928899,3.6196683695182186
6.870630138022206,-1.9449846530801362,-7.580226743684578,-7.455374163230854,-31.34819390475718,3.3603039174682823
6.851180291491405,-2.258466592127708,-7.654780485316886,-7.421771124056171,-30.344007653752893,3.4251909844181943
6.828595625570127,-2.561906668665237,-7.7289981965574475,-7.38751921421199,-29.222200135404197,3.7883043600281794
