th1 (rad),w1 (rad/s),th2 (rad),w2 (rad/s)
1.6330540614823155,-2.147959322886565,0.2787062623575301,-1.3520549334548524
1.6115744682534499,-2.2592055168149576,0.26518571302298155,-1.3100636780543609
1.5889824130853003,-2.3709353573267076,0.2520850762424379,-1.2611249181189514
1.5652730595120332,-2.4831737169652963,0.2394738270612484,-1.2048720567318985
1.5404413223423803,-2.595967758537063,0.2274251064939294,-1.1409380509813967
1.5144816447570097,-2.709391792515031,0.21601572598411545,-1.0689545755578223
1.4873877268318594,-2.8235526060814937,0.20532618022853721,-0.9885505549332148
1.4591522007710445,-2.9385952835420666,0.19544067467920506,-0.8993499351640534
1.429766247935624,-3.0547095368437494,0.18644717532756452,-0.8009685687848496
1.3992191525671864,-3.172136560254698,0.17843748963971603,-0.6930101005121726
1.3674977869646394,-3.291176410588135,0.1715073886345943,-0.5750607749326734
1.334586022858758,-3.412195886027332,0.16575678088526757,-0.44668315200999803
1.3004640639984848,-3.5356368194346857,0.1612899493651676,-0.3074088318517534
1.2651076958041378,-3.6620245935671805,0.15821586104665009,-0.1567304893820606
1.2284874498684661,-3.791976488066869,0.1566485561528295,0.005906143441739842
1.1905676849877975,-3.926209118148206,0.15670761758724688,0.18110914548510665
1.1513055938063155,-4.065543617216926,0.15851870904209794,0.3695439805555758
1.1106501576341463,-4.210906176374942,0.1622141488476537,0.5719300710744496
1.068541095870397,-4.363319800033812,0.1679334495583982,0.7890240834680368
1.0249078978700588,-4.523880220032028,0.17582369039307857,1.0215794116364942
0.9796690956697385,-4.693704152044209,0.18603948450944352,1.2702645324180621
0.9327320541492964,-4.873830544232288,0.19874212983362413,1.5355122253675784
0.8839937487069736,-5.06504414277845,0.2140972520872999,1.817255736571909
0.833343307279189,-5.267575288695627,0.232269809453019,2.114486551531984
0.7806675543922328,-5.480613281385222,0.25341467496833886,2.424545908512947
0.7258614215783805,-5.701565238324084,0.27766013405346834,2.7420564115365282
0.6688457691951397,-5.925032262050525,0.30508069816883365,3.057459938979441
0.6095954465746345,-6.141630933009613,0.33565529755862805,3.3553545288715014
0.5481791372445384,-6.337155936457379,0.36920884284734307,3.6133505575703744
0.4848075778799646,-6.493144869739358,0.40534234842304684,3.802972526487428
0.419876129182571,-6.590197112826435,0.44337207368792114,3.8945418600000616
0.35397415805430665,-6.614289374955278,0.48231749228792176,3.866383141605331
0.28783126430475386,-6.5633143060443695,0.5209813237039751,3.7143769617728326
0.22219812124431015,-6.448893364861546,0.5581250933217035,3.454747346842285
0.1577091875956947,-6.291424201259739,0.5926725667901263,3.117086132672449
0.0947949455830973,-6.112187576513233,0.6238434281168508,2.7330086255196377
0.033673069817964967,-5.927810193756875,0.6511735143720472,2.328035737337011
-0.025605032119603778,-5.748745885091294,0.6744538717454173,1.9191856899006368
-0.08309249097051671,-5.580279833680919,0.6936457286444236,1.5162275352840022
-0.13889528930732592,-5.424217142964474,0.7088080039972636,1.1239926509946714
-0.19313746073697066,-5.28031926493021,0.7200479305072104,0.7443872102426538
-0.24594065338627275,-5.147273504483438,0.727491802609637,0.3777711131356013
-0.29741338843110715,-5.0232738228057645,0.731269513740993,0.02379427860354516
-0.3476461266591648,-4.906343990231523,0.7315074565270285,-0.3181346292961445
-0.39670956656148,-4.794507660114483,0.7283261102340671,-0.6486036038068363
-0.4446546431626248,-4.685873311992974,0.7218400741959987,-0.9680821081654445
-0.49151337628255454,-4.578674235253934,0.7121592531143442,-1.2768783370115289
-0.5373001186350939,-4.471286035277809,0.6993904697442289,-1.575136215476604
-0.582012978987872,-4.362233709486926,0.6836391075894629,-1.862853756990824
-0.6256353160827413,-4.2501944156799265,0.6650105700195547,-2.139912505562293
-0.6681372602395406,-4.133998762567988,0.6436114449639317,-2.406112248706734
-0.7094772478652205,-4.012631656200571,0.6195503224768644,-2.661207595690461
-0.7496035644272262,-3.885232784971159,0.5929382465199597,-2.9049443012875567
-0.7884558922769378,-3.751096356622977,0.5638888035070841,-3.137093905784905
-0.8259668558431675,-3.609669511647412,0.5325178644492351,-3.357485652982064
-0.8620635509596417,-3.4605488158185267,0.4989430079194145,-3.5660349020331323
-0.896669039117827,-3.303474314868732,0.46328265889908316,-3.7627674526493666
-0.9297037822665144,-3.138320775882268,0.4256549843725895,-3.9478393988062286
-0.961086990025337,-2.965085915163769,0.3861765903845272,-4.121552330142251
-0.9907378491769747,-2.7838756002968292,0.34496106708310464,-4.284363913789561
-1.018576605179943,-2.5948861982081106,0.302117427945209,-4.436894104443961
-1.044525467162024,-2.398384408140418,0.2577484869007694,-4.579927433843275
-1.0685093112434283,-2.194685059305794,0.21194921256233665,-4.714412006336762
-1.0904561618364863,-1.9841274636408883,0.16480509249896902,-4.841455956941696
-1.1102974364728952,-1.7670509976431337,0.11639053292955205,-4.96232219223558
-1.1279679464493266,-1.543770656603508,0.06676731100719625,-5.078422208710959
-1.1434056530153618,-1.3145534060773671,0.01598308892008666,-5.191309635380816
-1.1565511870761354,-1.079596294896406,-0.0359300074337215,-5.302673827844027
-1.1673471500250994,-0.8390075659425964,-0.08895674571216178,-5.41433326794
-1.1757372256845253,-0.5927925241610174,-0.14310007839156177,-5.528227557949615
-1.1816651509261356,-0.340846884426664,-0.1983823539710579,-5.646405206405598
-1.1850736197704022,-0.08296202203325592,-0.2548464060351139,-5.7710017940333005
-1.1859032399907348,0.18115055491068988,-0.3125564239754469,-5.904198856523023
-1.184091734441628,0.45180342162884185,-0.37159841254067716,-6.048146974609018
-1.1795737002253395,0.7292265114733039,-0.43207988228676736,-6.20482582774189
-1.1722814351106063,1.013378629687497,-0.49412814056418625,-6.375798009791885
-1.1621476488137314,1.3036316480640346,-0.5578861206621051,-6.56179214243926
-1.149111332333091,1.5982674445288527,-0.6235040420864977,-6.762029307867473
-1.1331286578878026,1.8937281351027169,-0.6911243351651724,-6.973204660161953
-1.1141913765367755,2.183613239884571,-0.7608563817667919,-7.18810516918224
-1.0923552441379298,2.4575967365934828,-0.8327374334586144,-7.394087158252999
-1.067779276771995,2.700826792743027,-0.9066783050411444,-7.572172872316766
-1.0407710088445647,2.8949051074304797,-0.9824000337643121,-7.698267660113068
-1.0118219577702598,3.021654334967957,-1.0593827103654427,-7.7481704874401665
-0.9816054144205802,3.0694724713303456,-1.1368644152398444,-7.7061324565248075
-0.9509106897072768,3.039080178771949,-1.2139257398050924,-7.572619134523441
-0.9205198879195573,2.944087796296951,-1.289651931150327,-7.365055035336208
-0.8910790099565877,2.8054433070533102,-1.363302481503689,-7.110323723233828
-0.8630245768860546,2.6440286299218716,-1.4344057187360273,-6.834876080697038
-0.8365842905868359,2.475992047878705,-1.5027544795429977,-6.5586350758834175
-0.8118243701080489,2.311739837695409,-1.5683408303018318,-6.293842250446701
-0.7887069717310948,2.1570056283245598,-1.6312792528062987,-6.046633184235993
-0.7671369154478492,2.014398473005082,-1.6917455846486587,-5.819175295968489
-0.7469929307177984,1.884679981905179,-1.7499373376083436,-5.611384736785566
-0.7281461308987466,1.7676210047574965,-1.8060511849761993,-5.422050502705108
-0.7104699208511717,1.6625171372984744,-1.8602716900032503,-5.249491676346347
-0.693844749478187,1.568478104088993,-1.9127666067667137,-5.091912087818681
-0.6781599684372971,1.484581048475871,-1.9636857276449005,-4.9475770317998045
-0.6633141579525383,1.4099462805588636,-2.0131614979628987,-4.814891395224379
-0.6492146951469497,1.3437704866984774,-2.0613104119151426,-4.692425695791513
-0.6357769902799649,1.2853374133317688,-2.1082346688730578,-4.578916035390595
-0.6229236161466473,1.2340171589127023,-2.1540238292269636,-4.473252052002776
-0.6105834445575202,1.189260137435409,-2.1987563497469913,-4.374460276005834
-0.5986908431831661,1.1505889391457818,-2.24250095250705,-4.2816866423073465
-0.5871849537917083,1.117589745992673,-2.2853178189301233,-4.194179946795428
-0.5760090563317816,1.0899041024641138,-2.3272596183980774,-4.111277003387197
-0.5651100153071404,1.067221380392609,-2.368372388431949,-4.03238973216101
-0.5544378015032143,1.049272032069873,-2.4086962857535594,-3.9569941559997988
-0.5439450811825156,1.0358216010207173,-2.4482662273135576,-3.8846211750702544
-0.5335868651723085,1.0266653993179293,-2.4871124390642603,-3.8148489558142438
-0.5233202111791292,1.0216237340859127,-2.525260928622403,-3.7472967763439122
-0.5131039738382701,1.020537557208403,-2.562733896385842,-3.6816201930141372
-0.5028985982661861,1.0232644122694883,-2.5995500983159836,-3.617507422697944
-0.49266595414349124,1.0296745568312364,-2.635725172542963,-3.554676866088965
-0.4823692085751789,1.039647144248807,-2.6712719412038526,-3.492875725876406
-0.47197273713269083,1.0530663568698566,-2.7062006984626166,-3.431879697650694
-0.46144207356399225,1.0698173922209628,-2.7405194954391234,-3.3714937289427964
-0.45074389964178263,1.0897822169740559,-2.7742344327285515,-3.3115538507065145
-0.4398460774720421,1.1128350220427068,-2.8073499712356167,-3.251930083170588
-0.428717727251615,1.1388373384940447,-2.8398692720673226,-3.192530401093678
-0.4173293538666746,1.1676328107917497,-2.8717945760782593,-3.133305708355364
-0.40565302575875706,1.1990416739254497,-2.9031276331618128,-3.07425571468901
-0.39366260901950256,1.2328550464569648,-2.9338701903087028,-3.015435524929707
-0.3813340585549329,1.2688292334165494,-2.964024545558,-2.956962641743232
-0.3686457662207674,1.3066803300644407,-2.993594171975432,-2.899023947851067
-0.355578962920123,1.3460795250895319,-3.0225844114539426,-2.841882079645496
-0.34211816766922765,1.3866496104409536,-3.0510032322503977,-2.785880444054003
-0.3282516715648181,1.4279632996433453,-3.078862036690938,-2.731445986240235
-0.3139720385683846,1.4695440163749043,-3.1061764965533403,-2.679088717681635
-0.2992765984046356,1.5108698151832327,-3.132967383730157,-2.6293969998218114
-0.28416790025280325,1.5513810104294978,-3.159261353728375,-2.5830276875582774
-0.2686540901485083,1.5904918965479653,-3.185091630603958,-2.540690502967321
-0.25274917118302864,1.6276066332641757,-3.210498535633631,-2.5031264494617154
-0.2364731048503869,1.6621389541252112,-3.235529800128248,-2.471080677680128
-0.21985171530913478,1.6935348715504461,-3.2602406069050494,-2.4452709265678907
-0.20291636659363033,1.7212970586235898,-3.284693316170728,-2.42635339635301
-0.18570339600739444,1.7450091684750317,-3.3089568501342583,-2.4148885437289866
-0.16825330432264413,1.7643580930502836,-3.3331057355715483,-2.4113096928152573
-0.1506097233921413,1.7791521367258443,-3.3572188324997008,-2.4158974170937224
-0.13281820202488284,1.7893333247153822,-3.381377806670638,-2.428762306499428
-0.11492486877772902,1.7949825710360332,-3.4056654297356324,-2.4498380021498902
-0.09697504306736869,1.796317133696356,-3.4301638097571314,-2.4788853499401746
-0.07901187173040514,1.7936805816391428,-3.4549526632565333,-2.515507349290843
-0.06107506591401371,1.7875262642225769,-3.4801077367494417,-2.559173443114587
-0.04319980327178794,1.7783958914335514,-3.505699471180588,-2.6092507889909076
-0.02541584435745243,1.7668952147964114,-3.531791979070497,-2.6650396010921718
-0.007746892209488314,1.753668906111817,-3.5584423750814187,-2.725809515512353
0.009789796851629857,1.7393765765882911,-3.5857004702365423,-2.790834186635895
0.027183562617512768,1.724671518866294,-3.613608812102901,-2.859421881212576
0.04443027780617571,1.710183271359061,-3.642203030915027,-2.930940572948078
0.061532110519766314,1.696504586640177,-3.6715124366445075,-3.004836819330278
0.07849715638616808,1.684182909769693,-3.7015608048378104,-3.0806484097090454
0.09533898548386502,1.6737160915306921,-3.732367288934901,-3.1580113320768652
0.11207614639917193,1.6655518013497443,-3.7639474022556696,-3.2366619805409833
0.12873166441266937,1.6600899664834998,-3.7963140220610794,-3.3164357183476065
0.14533256407750436,1.6576875314774309,-3.8294783792445553,-3.3972629508941803
0.16190943939227867,1.658664879023647,-3.863451008753497,-3.4791637912559157
0.17849608818251514,1.6633133519851777,-3.898242646666056,-3.562242261538778
0.1951292217023669,1.6719034412387235,-3.9338650692814436,-3.6466808057834057
0.21184825611475414,1.684693335523937,-3.9703318773392775,-3.73273572395878
0.2286951894699935,1.70193765452588,-4.007659234578865,-3.820733991558674
0.24571456601525232,1.7238962976359236,-4.045866574494452,-3.9110718162811944
0.26295352899161156,1.750843435381517,-4.084977292657264,-4.004215206128615
0.2804619633454267,1.7830767483742833,-4.12501944471855,-4.100702781021771
0.2982927308291696,1.820927080969718,-4.166026472528768,-4.201151048354382
0.31650200163886677,1.8647687243343565,-4.208037983012312,-4.306262374817735
0.3351496888822103,1.9150305745218457,-4.251100606760489,-4.416835912044851
0.3542999946274288,1.9722084185855446,-4.295268965880938,-4.533781756239305
0.37402207881328425,2.036878569296068,-4.340606783443331,-4.658138615116971
0.39439086450624494,2.109712962979984,-4.3871881695945,-4.791095171151445
0.41548799413604476,2.191495590129287,-4.435099121306015,-4.934015079735277
0.43740295003733765,2.2831396217636617,-4.4844392721033675,-5.088464959426146
0.4602343462549743,2.385703596739615,-4.535323921697629,-5.256243510469877
0.4840913822223704,2.500403121230659,-4.587886356802328,-5.4394074614063825
0.509095413434677,2.628610918413752,-4.642280431416392,-5.64028532218366
0.5353815226188146,2.7718313280202453,-4.6986832846382285,-5.8614609521087555
0.563099835899017,2.9316229569784316,-4.757297894159316,-6.105692212970312
0.5924160654688013,3.109420842264474,-4.818354816289019,-6.375699474624643
0.6235102738914461,3.3061707627637587,-4.882111811035266,-6.673705336994895
0.6565719815190837,3.5216263047096192,-4.948848864405215,-7.000520511726555
0.6917882445661799,3.753076778234096,-5.01885406952248,-7.353854178793397
0.7293190123485209,3.993220250157487,-5.092392611310414,-7.725446441286975
0.7692512148500958,4.227062053319507,-5.169647075723284,-8.09683835913899
0.8115218353832909,4.428586324302217,-5.250615459314674,-8.434777813789424
0.8558076986263131,4.560136371386124,-5.334963237452568,-8.690272268821351
0.9014090623401744,4.58004163494757,-5.4218659601407815,-8.808895917559374
0.9472094786896501,4.461321397875184,-5.5099549193163755,-8.756216654978132
0.991822692668402,4.210488330016924,-5.597517085866157,-8.54316508229859
1.033927575968571,3.8659722343312635,-5.682948736689142,-8.223289968472528
1.0725872983118838,3.475561457075281,-5.7651816363738675,-7.861571733737277
1.1073429128826366,3.0759257016479937,-5.84379735371124,-7.506748344367152
1.1381021698991165,2.6873596100823636,-5.918864837154912,-7.184775114417098
1.1649757659999402,2.317958705041233,-5.990712588299083,-6.905001537015462
1.1881553530503526,1.9690721391425117,-6.059762603669237,-6.667800363810638
1.2078460744417776,1.639011692197328,-6.126440607307344,-6.469632612625146
1.224236191363751,1.3250382793070825,-6.1911369334335955,-6.305689929474568
1.2374865741568217,1.0242918640344671,-6.254193832728341,-6.171081564468899
1.2477294927971665,0.7341778848209378,-6.315904648373031,-6.06128744761775
1.2550712716453758,0.4524992104613796,-6.376517522849208,-5.97227652819794
1.2595962637499896,0.17747766951776828,-6.436240288131188,-5.9004862195674965
1.2613710404451672,-0.09226756380394152,-6.495245150326863,-5.842752983670191
1.2604483648071279,-0.35775493039936923,-6.553672680163564,-5.796233324842795
1.256870815503134,-0.6196765845956654,-6.611635013411992,-5.758331158834858
1.2506740496571773,-0.8784314449424813,-6.66921832500034,-5.726637199450486
1.2418897352077525,-1.134154544474225,-6.726484696994845,-5.698881633371292
1.2305481897630102,-1.3867434708313073,-6.783473513328558,-5.6728996331891794
1.2166807550546972,-1.6358831601407409,-6.84020250966045,-5.646608664421492
1.2003219234532898,-1.8810703275331555,-6.896668596304665,-5.617996379615179
1.1815112201779583,-2.121638617806359,-6.952848560100817,-5.585117854684856
1.1602948339998946,-2.3567852525190616,-7.008699738647666,-5.546100885534564
1.136726981474704,-2.5855995919084678,-7.064160747503012,-5.499157991161715
1.1108709855556194,-2.8070936589375757,-7.1191523274146284,-5.442603670406142
1.0828000489662437,-3.020234320401878,-7.17357836411869,-5.374875360920461
1.0525977057622249,-3.223976516660214,-7.227327117727895,-5.2945564845567
1.0203579405956227,-3.4172967043054254,-7.280272682573462,-5.200399963067106
0.9861849735525684,-3.599225544706182,-7.3322766822041325,-5.091350670223007
0.9501927181055065,-3.7688788438040115,-7.3831901889063625,-4.966565453267223
0.9125039296674664,-3.9254858182764645,-7.432855843439035,-4.8254295925812
0.8732490714847018,-4.0684139093320795,-7.481110139364847,-4.667568843527279
0.832564932391381,-4.197189556574653,-7.52778582780012,-4.49285648083667
0.7905930368256344,-4.311514545179437,-7.5727143926084866,-4.301415007428376
0.74747789137384,-4.411277718627979,-7.6157285426827706,-4.093612370937775
0.7033651141875602,-4.496561986157253,-7.656664666392149,-3.8700526452848787
0.6583994943259877,-4.567646644210689,-7.6953651928449975,-3.631561194546771
0.6127230278838808,-4.625005085895424,-7.731680804790465,-3.3791643727561627
0.5664729770249265,-4.669298015285675,-7.765472448518027,-3.1140638656311497
0.5197799968720698,-4.701362342787913,-7.796613087174339,-2.8376058858209046
0.47276637344419065,-4.722196038152061,-7.824989146032547,-2.5512456149245684
0.42554441306267005,-4.732939371468776,-7.850501602181793,-2.2565075429715726
0.3782150193479823,-4.734853174908003,-7.873066677611509,-1.954942662343771
0.33086648759890225,-4.729294986691685,-7.892616104234946,-1.6480837785425109
0.2835735377319854,-4.717694158360439,-7.909096942020372,-1.3374004425465333
0.23639659614838102,-4.7015271764873985,-7.922470946445837,-1.0242551286530723
0.18938132438350702,-4.682294535487469,-7.932713497732368,-0.7098622345918522
0.14255837902863233,-4.661500477913167,-7.939812120078287,-0.3952512525945731
0.09594337424950067,-4.6406367904815555,-7.943764632604233,-0.08123506896771598
0.049537006344685115,-4.621171624753128,-7.94457698329391,0.2316161570003193
0.003325290097153835,-4.604544031075249,-7.942260821723907,0.5429956386577994
-0.04272015021359865,-4.592164587468454,-7.9368308653373285,0.8528757625032122
-0.08864179608828318,-4.585422198572457,-7.928302107712296,1.1615200967237655
-0.13449601807400774,-4.585696840591304,-7.916686906745059,1.469492906744506
-0.18035298647992076,-4.594377709005696,-7.901991977677614,1.777667464845239
-0.22629676356997772,-4.612885805103779,-7.884215303029162,2.0872340550740605
-0.2724256216210155,-4.64269930623392,-7.863342962478422,2.3997076098499224
-0.31885261468335474,-4.685378785610139,-7.839345886379922,2.716932979773112
-0.36570640253945613,-4.742586899575962,-7.812176556582191,3.0410821842370708
-0.41313227153521576,-4.816092489370341,-7.78176573473982,3.3746312079299448
-0.4612931964289192,-4.9077402607537985,-7.748019422660521,3.7202914138673817
-0.5103705990364572,-5.019351022239595,-7.710816508521847,4.080847891924891
-0.5605641092588531,-5.152488564567667,-7.670008029602598,4.458816652538375
-0.6120889949045298,-5.307980473673279,-7.625419863077214,4.8557644766768435
-0.6651687996412626,-5.485006904312913,-7.5768622183104455,5.271032985519444
-0.7200188686843918,-5.67949118305218,-7.524151888455251,5.69949655467185
-0.7768137805149136,-5.881539206344545,-7.467156922908533,6.128001995165985
-0.835629172578359,-6.072094248813972,-7.405876902956873,6.530724804466672
-0.8963501150664988,-6.220417107247448,-7.340569654912207,6.865695903457987
-0.9585542861389732,-6.286705914460786,-7.271912695877627,7.078533264784057
-1.021421345283581,-6.235212810790802,-7.201127363229786,7.120849055363419
