th1 (rad),w1 (rad/s),th2 (rad),w2 (rad/s),a1 (rad/s^2),a2 (rad/s^2)
0.4642447151630909,-1.6625628217815118,2.0066265924685913,3.10512843709306,0.596727561659501,-11.66384727047983
0.4476190869452758,-1.6565955461649169,2.037677876839522,2.9884899643882616,0.11238462539428858,-11.492802310065544
0.4310531314836266,-1.655471699910974,2.0675627764834044,2.873561941287606,-0.348354742890077,-11.37300303218572
0.41449841448451685,-1.6589552473398748,2.0962983958962806,2.7598319109657488,-0.7877578321996144,-11.300166270201249
0.3979088620111181,-1.666832825661871,2.1238967150059382,2.6468302482637363,-1.2076898713711124,-11.270432296015347
0.3812405337544994,-1.6789097243755822,2.150365017488576,2.5341259253035826,-1.6096325350778686,-11.280279509464293
0.3644514365107436,-1.6950060497263608,2.1757062767416118,2.4213231302089397,-1.9947022115826243,-11.326441519415752
0.34750137601347997,-1.714953071842187,2.1999195080437013,2.3080587150147824,-2.3636665076987624,-11.405828502100542
0.3303518452950581,-1.7385897369191747,2.223000095193849,2.194000429993777,-2.7169585529206675,-11.515453796626284
0.31296594792586635,-1.7657593224483814,2.2449400994937867,2.0788458920275144,-3.0546893476742643,-11.652366310622362
0.29530835470138256,-1.796306215925124,2.265728558414062,1.9623222289212907,-3.3766588429673017,-11.81358924241997
0.2773452925421313,-1.830072804354797,2.285351780703275,1.844186336497091,-3.6823667345075948,-11.996065744717678
0.2590445644985833,-1.8668964716998728,2.3037936440682456,1.7242256790499142,-3.97102415460743,-12.196612369832605
0.2403755997815846,-1.9066067132459472,2.3210359008587447,1.6022595553515881,-4.241567573241893,-12.411881385156722
0.22130953264912512,-1.9490223889783662,2.3370584964122605,1.478140741500021,-4.492676280753831,-12.638333278563906
0.20181930875934145,-1.9939491517859045,2.3518399038272606,1.351757408714382,-4.722794812506328,-12.872220941900427
0.18187981724148242,-2.0411770999109677,2.3653574779144044,1.2230351992953776,-4.9301615770649505,-13.109587083404449
0.16146804624237274,-2.090478715681617,2.377587829907358,1.0919393284613332,-5.112844748537434,-13.346276336521433
0.14056325908555656,-2.1416071631669915,2.3885072231919713,0.9584765650961189,-5.268786166651487,-13.57796326787469
0.11914718745388664,-2.1942950248335062,2.3980919888429324,0.822696932417372,-5.395853547561034,-13.800197015745923
0.09720423720555157,-2.2482535603091165,2.4063189581671063,0.6846949622599128,-5.491900747771212,-14.008462602856548
0.07472170160246042,-2.3031725677868287,2.4131659077897054,0.5446103362313472,-5.554835161557133,-14.198258076329205
0.051689975924592124,-2.3587209194024,2.418612011152019,0.4026277554680552,-5.582690605262084,-14.365185573887413
0.028102766730568125,-2.4145478254550206,2.4226382887066995,0.25897589972918106,-5.573703304741415,-14.505053269415745
0.003957288476017919,-2.470284858502435,2.425228047703991,0.1139253670350236,-5.526387925674993,-14.613984012621241
-0.02074556010900643,-2.525548737759185,2.4263673013743414,-0.03221447309118883,-5.4396100509361665,-14.688525468374685
-0.04600104748659828,-2.579944838268547,2.4260451566434296,-0.17909972777493569,-5.312651195228971,-14.725755812429053
-0.07180049586928375,-2.6330713502208365,2.42425415936568,-0.3263572858992262,-5.145262423372924,-14.72337867467407
-0.09813120937149211,-2.684523974454566,2.420990586506688,-0.4735910726459669,-4.937702948831433,-14.67980113407974
-0.12497644911603778,-2.73390100394288,2.416254675780228,-0.6203890839867643,-4.6907607417091075,-14.594189209471438
-0.15231545915546657,-2.780808611359971,2.4100507849403603,-0.7663309760814787,-4.405753136903913,-14.466496445217597
-0.1801235452690663,-2.82486614272901,2.4023874751795455,-0.9109959405336547,-4.0845066279783495,-14.29746278315307
-0.2083722066963564,-2.8657112090087935,2.393277515774209,-1.0539705683651854,-3.7293163508542517,-14.088582804155001
-0.23702931878644434,-2.9030043725173362,2.382737810090557,-1.1948563964067354,-3.3428870736577854,-13.842044434085889
-0.2660593625116177,-2.936433243253914,2.3707892461264897,-1.3332768407475943,-2.928258683127351,-13.560641140356909
-0.2954236949441569,-2.9657158300851876,2.3574564777190137,-1.4688832521511634,-2.4887200794739,-13.247662308446918
-0.32508085324500874,-2.9906030308799267,2.342767645197502,-1.6013598752356326,-2.0277159795288284,-12.906767730669845
-0.35498688355380803,-3.010880190675215,2.3267540464451457,-1.7304275525423312,-1.5487513451986448,-12.541852867504387
-0.38509568546056017,-3.0263677041272015,2.3094497709197226,-1.8558460812173752,-1.055298009519538,-12.156911726405475
-0.4153593625018322,-3.036920684222397,2.2908913101075488,-1.9774151984814299,-0.550707615644826,-11.755903880157888
-0.4457285693440562,-3.042427760378845,2.2711171581227343,-2.094974237283009,-0.03813429418384903,-11.342631405060386
-0.47615284694784465,-3.0428091033206837,2.250167415749904,-2.2084005513336127,0.47953032412434526,-10.920630481240773
-0.5065809379810515,-3.0380138000794403,2.228083410236568,-2.3176068561460204,0.999708035487135,-10.493081199099747
-0.536961075981846,-3.028016719724569,2.2049073416751077,-2.422537668137018,1.5201700377315135,-10.062737886878253
-0.5672412431790916,-3.012815019347254,2.1806819649937377,-2.5231650470058002,2.039057791387045,-9.631881122827544
-0.5973693933725642,-2.9924244414333834,2.1554503145236796,-2.6194838582340756,2.5548891971516032,-9.202291598903281
-0.6272936377868981,-2.9668755494618675,2.129255475941339,-2.7115067742231083,3.0665509575001595,-8.775245204712125
-0.6569623932815167,-2.936210039886866,2.1021404081991077,-2.7992592262702294,3.573278282343076,-8.351528111627882
-0.6863244936803854,-2.900477257063435,2.0741478159364055,-2.8827745073865083,4.074623269157035,-7.931470241377672
-0.7153292662510198,-2.8597310243718645,2.0453200708625405,-2.962089209800285,4.570413371423806,-7.5149952647104
-0.7439265764947385,-2.8140268906576265,2.0156991787645375,-3.037239162447389,5.0607014048950525,-7.1016851453702055
-0.7720668454013148,-2.7634198766086757,1.9853267871400637,-3.108256013901091,5.545708568312997,-6.690857168922076
-0.7997010441674015,-2.7079627909255457,1.9542442270010527,-3.1751645855903115,6.0257620083904255,-6.281651323105501
-0.826780672076657,-2.6477051708416415,1.9224925811451496,-3.2379810988213666,6.501228564598731,-5.873125781851023
-0.8532577237850734,-2.5826928851956543,1.890112770156936,-3.296712356639877,6.972446502981254,-5.464358056810934
-0.87908465263703,-2.512968420165842,1.8571456465905372,-3.351355937207986,7.439657291442445,-5.054549102850026
-0.9042143368386883,-2.4385718472514175,1.8236320872184573,-3.4019014282364863,7.902939767681134,-4.643127302293312
-0.9286000553112025,-2.3595424495746062,1.7896130729360924,-3.4483327012594196,8.362149374181644,-4.229848834500192
-0.9521954798069485,-2.27592095583279,1.7551297459234982,-3.4906311896044215,8.816865434835025,-3.8148905138633435
-0.9749546893652764,-2.1877523014844398,1.720223434027454,-3.528780094743055,9.266349662859795,-3.3989308239721896
-0.9968322123801208,-2.095088804855842,1.6849356330800236,-3.562769402982777,9.709519148447248,-2.983214678712732
-1.0177831004286793,-1.9979936133713696,1.649307939050196,-3.592601549769904,10.144936904628473,-2.5695975004081144
-1.0377630365623929,-1.8965442443250848,1.6133819235524969,-3.6182975247739853,10.570822589149147,-2.160564612718347
-1.0567284790056437,-1.7908360184335934,1.577198948304757,-3.6399031709011687,10.985085230183092,-1.7592227710078812
-1.0746368391899797,-1.6809851661317625,1.5407999165957453,-3.6574953986112475,11.385378663240095,-1.369261923274972
-1.0914466908512972,-1.5671313794993615,1.504224962609633,-3.6711880178439973,11.76917898239508,-0.9948869813941495
-1.1071180046462907,-1.4494395896754106,1.4675130824311928,-3.6811368876579387,12.133881720720783,-0.6407213892847426
-1.1216124005430448,-1.3281007724682028,1.4307017135546134,-3.687544101550786,12.476914851320458,-0.3116864391297051
-1.1348934082677269,-1.2033316239549983,1.3938262725391055,-3.690660965942083,12.795862225094183,-0.012862393256636599
-1.146926724507277,-1.0753730017040564,1.3569196628796847,-3.6907895898746492,13.088590928342288,0.25066072462878514
-1.1576804545243176,-0.9444870924206334,1.3200117669809381,-3.6882829826283614,13.353375426445636,0.4739335323085678
-1.1671253254485239,-0.8109533381561771,1.2831289371546546,-3.683543647305276,13.58901138157786,0.6522891931788691
-1.1752348588300856,-0.6750632243403984,1.2462935006816018,-3.677020755373487,13.794912738200582,0.7814673877242486
-1.1819854910734895,-0.5371140969583926,1.209523293127867,-3.6692060814962444,13.971187015542375,0.8577119841101457
-1.1873566320430735,-0.3974022268029689,1.1728312323129046,-3.660628961655143,14.118685600280541,0.8778357927629932
-1.1913306543111033,-0.25621537080016343,1.1362249426963533,-3.651850603727513,14.23902799720778,0.8392480165588349
-1.193892808019105,-0.11382509082808565,1.0997064366590783,-3.6434581235619246,14.334601238160433,0.7399424338932127
-1.1950310589273858,0.02952092155351868,1.063271855423459,-3.6360586992229926,14.408537740817502,0.578446683839984
-1.1947358497118505,0.17360629896169372,1.0269112684312292,-3.630274232384593,14.46467665941165,0.3537349938034854
-1.1929997867222335,0.31825306555581023,0.9906085261073833,-3.6267368824465582,14.507515055067723,0.0651080940974082
-1.1898172560666753,0.46332821610648744,0.9543411572829177,-3.6260858015055843,14.542155989324517,-0.28795522465974255
-1.1851839739056105,0.6087497759997327,0.9180802992678618,-3.6289653537521818,14.574260942544184,-0.7059704771531005
-1.179096476145613,0.7544923854251745,0.88179064573034,-3.6360250585237126,14.610013875041,-1.1896400594381114
-1.1715515522913613,0.9005925241755846,0.8454303951451029,-3.6479214591180935,14.656103920537793,-1.7400636581519247
-1.1625456270496055,1.0471535633809625,0.8089511805539219,-3.665322095699613,14.71973328393018,-2.358965948979029
-1.1520740914157959,1.1943508962202642,0.7722979595969258,-3.688911755189403,14.808656556015388,-3.0489432478121974
-1.1401305824535932,1.3424374617804182,0.7354088420450318,-3.719401187667525,14.93125747375108,-3.8137332355442206
-1.126706207835789,1.491750036517929,0.6982148301683565,-3.757538520022967,15.096669206187416,-4.658514452403728
-1.1117887074706096,1.6427167285798032,0.6606394449681269,-3.8041236645470047,15.314944500683353,-5.5902447683168415
-1.0953615401848116,1.7958661735866368,0.6225982083226569,-3.860026112230173,15.59728228962347,-6.618050157794282
-1.0774028784489451,1.9518389964828715,0.5839979472003551,-3.926206613808116,15.956317154554727,-7.753676185609268
-1.0578844884841163,2.1114021680284187,0.544735881062274,-4.003743375664208,16.406476344824387,-9.012013282275909
-1.0367704668038322,2.2754669314766627,0.504698447305632,-4.093863508486967,16.964403756856345,-10.411700355103477
-1.0140157974890656,2.445110969045226,0.4637598122207623,-4.197980512038002,17.649437199292517,-11.975793845895339
-0.9895646877986133,2.6216053410381512,0.42178000710038227,-4.317738450496955,18.484096024106684,-13.732449526598955
-0.9633486343882318,2.8064463012792182,0.3786026225954127,-4.455062945762944,19.494474110612078,-15.715479072120365
-0.9352841713754396,3.001391042385339,0.3340519931377833,-4.612217736484148,20.710305029186124,-17.964466645876396
-0.9052702609515862,3.2084940926772005,0.2879298157729418,-4.791862402942912,22.16420605820956,-20.52377050961253
-0.8731853200248142,3.430136153259296,0.24001119174351268,-4.997100108039037,23.88908609810085,-23.439010026856636
-0.8388839584922212,3.6690270142403043,0.1900401906631223,-5.231490208307603,25.911671624953787,-26.748201949181496
-0.8021936883498182,3.9281437304898423,0.13772528858004626,-5.498972227799418,28.238118246378704,-30.461933509025112
-0.7629122510449198,4.2105249129536295,0.08273556630205209,-5.803591562889669,30.82404170695642,-34.52186545882069
-0.7208070019153835,4.518765330023194,0.024699650673155396,-6.148810217477876,33.51540664497497,-38.71855858794249
-0.6756193486151516,4.853919396472944,-0.03678845150162336,-6.5359958033573005,35.94001780846264,-42.540103433470215
-0.6270801546504222,5.21331957455757,-0.10214840953519636,-6.961396837692003,37.33303203494803,-44.927842200070074
-0.5749469589048465,5.58664989490705,-0.17176237791211638,-7.410675259692703,36.334948332364796,-43.99195445369683
-0.519080459955776,5.949999378230698,-0.2458691305090434,-7.850594804229671,30.997555359010654,-37.01500121283561
-0.45958046617346904,6.259974931820805,-0.3243750785513401,-8.220744816358028,19.586670892541516,-21.566698825305597
-0.396980716855261,6.45584164074622,-0.4065825267149204,-8.436411804611083,2.6188242437943385,1.6571066652544442
-0.3324223004477988,6.482029883184164,-0.4909466447610312,-8.41984073795854,-15.52048343064655,26.579003580672406
-0.26760200161595715,6.326825048877699,-0.5751450521406166,-8.154050702151816,-28.923655105438304,45.014744955406364
-0.20433375112718016,6.037588497823315,-0.6566855591621348,-7.703903252597752,-34.9904777776669,53.38676648180898
-0.143957866148947,5.687683720046646,-0.7337245916881123,-7.170035587779662,-35.275340545987056,53.87063622957436
-0.08708102894848055,5.334930314586775,-0.805424947565909,-6.631329225483918,-32.558016403616016,50.3114518647769
-0.03373172580261279,5.009350150550615,-0.8717382398207482,-6.1282147068361486,-28.823930844571937,45.43539034192031
0.016361775702893357,4.7211108421048955,-0.9330203868891096,-5.673860803416946,-25.061966915079992,40.58636296708024
0.06357288412394231,4.4704911729540955,-0.989758994923279,-5.267997173746143,-21.653264777043823,36.27189734692358
0.10827779585348327,4.253958525183657,-1.0424389666607405,-4.905278200276907,-18.693714993119844,32.61037091619946
0.15081738110531984,4.067021375252459,-1.0914917486635096,-4.579174491114912,-16.16559951177425,29.567161256846752
0.19148759485784442,3.9053653801347163,-1.1372834935746587,-4.283502878546445,-14.01463291512999,27.05969229909099
0.23054124865919157,3.7652190509834162,-1.1801185223601232,-4.012905955555535,-12.18114778612393,24.999390812198715
0.2681934391690257,3.643407573122177,-1.2202475819156786,-3.762912047433548,-10.611275199097046,23.30634249271437
0.3046275149002475,3.5372948211312067,-1.2578767023900141,-3.529848622506404,-9.259943581194422,21.91290885246381
0.3400004631115595,3.4446953853192626,-1.2931751886150782,-3.310719533981766,-8.090772026968859,20.763237181205657
0.37444741696475214,3.363787665049574,-1.3262823839548958,-3.1030871621697096,-7.074951937614786,19.811498684429864
0.40808529361524787,3.293038145673426,-1.357313255576593,-2.904972175325411,-6.189939617492862,19.019955982338576
0.44101567507198214,3.231138749498497,-1.3863629773298471,-2.7147726155020253,-5.418252972055376,18.35724565653919
0.4733270625669671,3.1769562197779435,-1.4135107034848673,-2.5312001589366333,-4.746451503440468,17.79697615602438
0.5050966247647466,3.129491704743539,-1.4388227050742337,-2.3532303973763895,-4.164297549813173,17.316635002268306
0.536391541812182,3.0878487292454073,-1.4623550090479975,-2.1800640473537065,-3.6640703766834237,16.896765572327112
0.5672700291046361,3.051208025478573,-1.4841556495215347,-2.0110963916304354,-3.2400003817499976,16.52036805451024
0.5977821093594218,3.018808021661073,-1.504266613437839,-1.845892711085333,-2.887794524088581,16.172482876708877
0.6279701895760325,2.9899300764201873,-1.5227255405486924,-1.6841678823182442,-2.604230471701427,15.839920544455529
0.6578694903402343,2.963887771703173,-1.5395672193718748,-1.525768676873689,-2.386803632256266,15.511106680980427
0.6875083680572661,2.9400197353806106,-1.5548249061406116,-1.3706576100638845,-2.2334173278581098,15.176014448458716
0.7169085654110722,2.9176855621020295,-1.5685314822412504,-1.2188974655792975,-2.142111549628885,14.826158626692598
0.7460854210320925,2.896264446605741,-1.5807204568970434,-1.0706358793123716,-2.11082979850173,14.454626967062225
0.77504806549815,2.8751561486207233,-1.5914268156901672,-0.9260896096417494,-2.1372263459457415,14.05612567089546
0.8037996269843573,2.853783885161266,-1.6006877117865848,-0.7855283529327948,-2.218517727066399,13.627017571942833
0.8323374658359699,2.831598707890602,-1.6085429953159127,-0.6492581772133664,-2.3513823731537187,13.16533429667501
0.8606534529148759,2.808084884159065,-1.6150355770880465,-0.5176048342466163,-2.531911081265424,12.67074756751792
0.8887343017564666,2.782765773346411,-1.6202116254305126,-0.3908973585714371,-2.755608730819778,12.144489855204855
0.9165619594899307,2.755209686038213,-1.6241205990162269,-0.26945246001938855,-3.01744466215476,11.58922044579121
0.9441140563503129,2.7250352394166657,-1.6268151236164208,-0.15356025556147646,-3.3119459059159264,11.008839105774396
0.9713644087444795,2.6919157803575064,-1.6283507261720356,-0.0434718645037325,-3.633324505585292,10.408255223623188
0.9982835665480545,2.6555825353016536,-1.6287854448170729,0.06061068773249938,-3.975627966260746,9.793124910827872
1.024839391901071,2.615826255639046,-1.6281793379397478,0.1585419368407781,-4.332900715298861,9.16957154185108
1.0509976544574615,2.5724972484860573,-1.62659391857134,0.2502376522592889,-4.699344512490251,8.543906329050053
1.076722626942322,2.525503803361155,-1.6240915420487472,0.33567671554978945,-5.069466937857941,7.922364783141623
1.1019776649759336,2.4748091339825757,-1.6207347748932492,0.4149003633812057,-5.43820918276494,7.310872584976088
1.1267257563157593,2.4204270421549263,-1.6165857712594371,0.48800908923096653,-5.80104703370794,6.714850963458556
1.1509300267373086,2.362416571817847,-1.6117056803671275,0.555157598865552,-6.1540617905945165,6.139067697410915
1.174554192455487,2.300875953911902,-1.606154104378472,0.6165482758396612,-6.4939805573825415,5.587535878696482
1.197562951994606,2.2359361483380766,-1.5999886216200754,0.672423634626626,-6.818187619519893,5.063459033422461
1.2199223134779869,2.1677542721428775,-1.593264385273809,0.7230582249608506,-7.124710322501732,4.56921839441905
1.2415998561994157,2.09650716891786,-1.5860338030242005,0.7687504089050411,-7.412183937678416,4.106396191115813
1.2625649278885942,2.022385329541076,-1.57834629893515,0.8098143708161992,-7.6798004812948975,3.6758277731762328
1.2827887811840049,1.945587324728127,-1.570248155226988,0.8465726485479615,-7.92724643640756,3.2776751097921806
1.3022446544312862,1.8663148603640514,-1.5617824287415083,0.8793493996458833,-8.154633940975616,2.9115145444887784
1.3209078030349268,1.7847685209542952,-1.5529889347450494,0.9084645450907711,-8.362429380525528,2.5764324503974723
1.3387554882444699,1.7011442271490398,-1.5439042892941417,0.9342288695947458,-8.551382579170053,2.2711234452723064
1.3557669305159603,1.6156304013573393,-1.5345620005981941,0.9569401040474689,-8.722459014397334,1.9939869373333021
1.3719232345295338,1.5284058112133658,-1.5249925995577194,0.9768799734208019,-8.876776758408552,1.7432188658174617
1.3872072926416674,1.4396380436292804,-1.5152237998235114,0.9943121620789765,-9.015549215982263,1.5168964938971072
1.4016036730779602,1.3494825514694577,-1.5052806782027217,1.0094811270179476,-9.14003420853559,1.313054959139655
1.4150984985926547,1.2580822093841018,-1.4951858669325422,1.022611676609344,-9.25148955251276,1.1297549671381495
1.4276793206864957,1.1655673138589742,-1.4849597501664487,1.0339092262807255,-9.351134992433037,0.9651415259749812
1.4393349938250855,1.0720559639346439,-1.4746206579036414,1.0435606415404752,-9.440120162927853,0.8174939743552416
1.450055553464432,0.9776547623053653,-1.4641850514882366,1.0517355812840277,-9.519498154436839,0.6852677736826911
1.4598321010874855,0.8824597807609968,-1.4536676956753964,1.0585882590208546,-9.590204227335732,0.567128636730933
1.4686566988950955,0.7865577384876395,-1.443081813085188,1.064259545388164,-9.653039242927775,0.4619795764184409
1.476522276279972,0.6900273460583618,-1.4324392176313063,1.0688793411523485,-9.70865744188436,0.36898140031593674
