th1 (rad),w1 (rad/s),th2 (rad),w2 (rad/s),a1 (rad/s^2),a2 (rad/s^2)
3.2786249832669108,2.260964807465371,6.032770197610385,-1.3631470612574015,3.3600651809583595,3.608071989899926
3.3012346313415644,2.2945654592749545,6.019138726997811,-1.3270663413584023,3.591104953425182,3.6666778725843754
3.3241802859343137,2.3304765088092063,6.005868063584227,-1.2903995626325586,3.794436395404958,3.672510111936438
3.3474850510224057,2.368420872763256,5.992964067957901,-1.2536744615131943,3.9730271582005336,3.6282987756001566
3.3711692597500384,2.4081511443452612,5.980427323342769,-1.2173914737571927,4.130080093038181,3.5371280769162987
3.395250771193491,2.449451945275643,5.9682534086051975,-1.1820201929880296,4.268888910539162,3.402226125053629
3.4197452906462478,2.4921408343810345,5.956433206675317,-1.1479979317374933,4.392726250299276,3.2267960725932645
3.444666698990058,2.5360680968840272,5.944953227357942,-1.1157299710115607,4.504763345473109,3.0138876458285275
3.4700273799588985,2.5811157303387584,5.933795927647827,-1.0855910945532754,4.60801830973306,2.7663050581983897
3.495838537262286,2.627195913436089,5.922940016702294,-1.0579280439712915,4.70532892235626,2.4865456482410115
3.522110496396647,2.6742492026596514,5.912360736262581,-1.0330625874888815,4.799345417130171,2.176762954147492
3.5488529884232434,2.7222426568309532,5.902030110387693,-1.0112949579474066,4.89253895441478,1.8387480220095798
3.576075414991553,2.771168046375101,5.891917160808219,-0.9929074777273108,4.987221962459186,1.4739232630323145
3.603787095455304,2.821040265999693,5.881988086030946,-0.9781682450969876,5.0855772091626905,1.0833439038046264
3.631997498115301,2.87189603809132,5.872206403579976,-0.9673348060589414,5.189693193214208,0.6677028535740304
3.660716458496214,2.923792970023462,5.862533055519386,-0.9606577775232011,5.301604151946658,0.22733553943886084
3.689954388196449,2.9768090115429287,5.8529264777441545,-0.9583844221288126,5.423333634921512,-0.23777812587614458
3.719722478311878,3.0310423478921438,5.843342633522866,-0.960762203387574,5.556941174903159,-0.7280170079993978
3.7500329017907994,3.0866117596411753,5.83373501148899,-0.9680423734675679,5.704572105963582,-1.2441292927410124
3.780899019387211,3.1436574807008113,5.824054587754315,-0.9804836663949781,5.868511046803626,-1.7872521856090666
3.812335594194219,3.2023425911688475,5.814249751090365,-0.9983561882510688,6.0512400066076895,-2.3589426292817315
3.8443590201059075,3.2628549912349243,5.804266189207855,-1.021945614543886,6.255502504186876,-2.961221020417164
3.876987570018257,3.325410016276793,5.794046733062416,-1.0515578247480577,6.484375542667787,-3.5966301639472187
3.9102416701810245,3.390253771703471,5.783531154814935,-1.08752412638753,6.741351773955735,-4.2683120907602214
3.9441442078980593,3.457667289443028,5.77265591355106,-1.1302072472951321,7.030434737806619,-4.980105875663229
3.9787208807924896,3.527971636821094,5.761353841078109,-1.1800083060517643,7.35625067837176,-5.736670207835819
4.014000597160701,3.6015341436048116,5.7495537580175915,-1.2373750081301225,7.724181115861218,-6.543635139731298
4.050015938596749,3.678775954763424,5.73718000793629,-1.3028113595274355,8.14052103257864,-7.407788069264459
4.086803698144383,3.76018116508921,5.7241518943410155,-1.37688924022008,8.612668093557385,-8.33729937624857
4.124405509795275,3.846307846024784,5.710383001938815,-1.4602622339825657,9.149348484006781,-9.341992797145416
4.162868588255523,3.937801330864852,5.695780379598989,-1.5536821619540198,9.760884139458984,-10.43366371658374
4.2022466015641715,4.035410172259442,5.680243557979448,-1.6580187991198572,10.459503242672112,-11.626443404871852
4.242600703286766,4.1400052046861635,5.6636633699882495,-1.7742832331685756,11.259688669173341,-12.937195625767508
4.2840007553336275,4.252602091377897,5.645920537656564,-1.9036551894262508,12.178543343856889,-14.385907843735325
4.326526776247406,4.374387524816465,5.626883985762301,-2.047514267863604,13.236119081419796,-15.99599078009723
4.370270651495571,4.506748715630663,5.606408843083665,-2.207474175664576,14.455590823387315,-17.794305037944184
4.415338138651878,4.651304623864537,5.58433410132702,-2.385417226044018,15.863031506550445,-19.81054969406974
4.461851184890523,4.809934938930041,5.560479929066579,-2.5835227229847155,17.486297942438373,-22.075295732435713
4.509950534279823,4.984797918354425,5.534644701836732,-2.8042756803090727,19.352071313016978,-24.615280838248655
4.559798513463368,5.178318631484594,5.506601945033641,-3.0504284886915594,21.479224269110393,-27.443344750199895
4.611581699778213,5.393110874175698,5.476097660146726,-3.3248619361935585,23.865119809230432,-30.538170990714317
4.665512808519971,5.631762072268002,5.4428490407847905,-3.630243646100702,26.45884282268489,-33.80534031630011
4.721830429242651,5.896350500494851,5.4065466043237835,-3.968297049263703,29.111779355619035,-37.006200729260414
4.780793934247599,6.187468294051041,5.366863633831146,-4.338359056556307,31.493653103779515,-39.637970526509285
4.84266861718811,6.502404825088837,5.323480043265583,-4.7347387618214,32.970931959936415,-40.76129898038579
4.907692665438999,6.832114144688201,5.276132655647369,-5.142351751625258,32.4922675368288,-38.839664924663154
4.976013806885881,7.157036820056489,5.224709138131116,-5.5307484008718895,28.657062704325057,-31.841691185977442
5.047584175086445,7.4436074470997395,5.169401654122397,-5.849165312731664,20.320435838155028,-18.108473054871734
5.122020249557443,7.64681180548129,5.11091000099508,-6.030250043280382,7.892390818705732,1.789772699182439
5.198488367612256,7.725735713668348,5.050607500562276,-6.012352316288557,-5.7148925384392975,23.691749143127
5.27574572474894,7.668586788283955,4.990483977399391,-5.775434824857287,-16.43653740802869,41.7446501895488
5.352431592631779,7.504221414203668,4.932729629150818,-5.357988322961799,-22.011268753696417,52.61101291538028
5.427473806773816,7.2841087266667035,4.879149745921199,-4.831878193807997,-22.977623456118224,56.93015577572522
5.500314894040483,7.054332492105521,4.83083096398312,-4.262576636050745,-21.15222119317482,57.20005512175882
5.570858218961538,6.842810280173773,4.788205197622612,-3.6905760848331566,-18.12278414283204,55.640311186926795
5.639286321763276,6.6615824387454525,4.75129943677428,-3.1341729729638885,-14.830362355740384,53.57773751296281
5.705902146150731,6.513278815188048,4.7199577070446415,-2.5983955978342603,-11.721807187500277,51.642917591171745
5.7710349343026115,6.396060743313045,4.693973751066299,-2.0819664219225427,-8.97136228990946,50.07374395683471
5.834995541735742,6.3063471204139505,4.673154086847073,-1.5812289823541956,-6.626495863158485,48.91794423171584
5.898059012939881,6.240082161782365,4.657341797023531,-1.0920495400370371,-4.683971716094223,48.13990483423128
5.960459834557705,6.193242444621423,4.646421301623161,-0.6106504916947243,-3.1251934165897666,47.6711873875917
6.022392259003919,6.161990510455525,4.640314796706214,-0.13393861781880728,-1.9311253580768353,47.43281942506734
6.084012164108474,6.142679256874757,4.638975410528026,0.3403895764318662,-1.087631903779481,47.34454573454168
6.145438956677221,6.131802937836962,4.642379306292344,0.8138350337772831,-0.5864660724191731,47.32847134608203
6.206756986055591,6.125938277112771,4.650517656630117,1.2871197472381035,-0.4243200349669834,47.310568824063424
6.268016368826719,6.121695076763101,4.663388854102498,1.7602254354787377,-0.6010311276642609,47.221614254733836
6.3292333195943495,6.115684765486458,4.6809911084572855,2.232441578026076,-1.1174493693435863,46.99820580596281
6.3903901672492145,6.104510271793022,4.703315524237547,2.702423636085704,-1.9732253525510648,46.584075581216
6.451435269967145,6.084778018267512,4.730339760598404,3.168264391897864,-3.164682931273354,45.93168170473385
6.5122830501498195,6.0531311889547785,4.762022404517382,3.6275812089452026,-4.682909618310402,45.00395268862338
6.5728143620393675,6.006302092771675,4.798298216606835,4.077620735831436,-6.512186276341853,43.77600272892254
6.632877382967084,5.941180230008256,4.839074423965149,4.515380763120661,-8.62886722650353,42.23662370209092
6.692289185267167,5.854891557743221,4.884228231596356,4.93774700014157,-11.000805482246468,40.38937537869247
6.750838100844599,5.744883502920756,4.933605701597771,5.341640753928495,-13.587395120908639,38.2531297396352
6.808286935873807,5.60900955171167,4.987022109137056,5.724172051324847,-16.34027576676945,35.86196896939916
6.864377031390924,5.445606794043975,5.044263829650305,6.082791741018839,-19.204713775361043,33.26438290353562
6.918833099331364,5.253559656290364,5.105091747060493,6.4154355700541945,-22.121639453792817,30.521758281821125
6.9713686958942676,5.032343261752436,5.1692461027610355,6.720653152872406,-25.030276216764587,27.70620191580463
7.021692128511792,4.78204049958479,5.236452634289759,6.9977151720304525,-27.87124384402312,24.89779793896618
7.06951253350764,4.5033280611445585,5.306429786010064,7.246693151420114,-30.589956896635286,22.18146825189543
7.114545814119086,4.197428492178206,5.378896717524265,7.468507833939069,-33.14008128686126,19.643680480319645
7.1565200990408675,3.8660276793095933,5.453581795863656,7.6649446387422655,-35.48677382130374,17.36931575493295
7.195180375833964,3.511159941096556,5.530231242251078,7.838637796291595,-37.609429248438815,15.439050108913909
7.2302919752449295,3.135065648612168,5.608617620213995,7.993028297380734,-39.503708179694094,13.927600049432108
7.261642631731052,2.740028566815227,5.688547903187802,8.132304297875056,-41.18271434640094,12.903125033550658
7.289042917399204,2.3282014233512176,5.769870946166552,8.261335548210562,-42.677310308153146,12.427968663916193
7.312324931632716,1.901428320269686,5.852484301648658,8.385615234849723,-44.035668955527505,12.560763815518534
7.331339214835413,1.461071630714411,5.936340453997155,8.51122287300491,-45.32219982793647,13.359721142425656
7.345949931142558,1.0078496324350463,6.021452682727204,8.644820084429165,-46.615887234363576,14.886619300319854
7.356028427466908,0.5416907600914105,6.107900883571495,8.793686277432364,-48.00770136446868,17.210471858370084
7.361445335067822,0.06161374644672368,6.195837746345819,8.965790996016064,-49.595832593529636,20.408698377994224
7.3620614725322895,-0.4343445794885727,6.285495656305979,9.169877979796007,-51.47548652675635,24.56106090063932
7.357718026737404,-0.9490994447561363,6.37719443610394,9.4154885888024,-53.71564809711543,29.725898347920783
7.348227032289842,-1.4862559257272907,6.471349321991964,9.712747572281609,-56.306172438457295,35.87584709301692
7.333364473032569,-2.0493176501118637,6.56847679771478,10.071506043211778,-59.04102181902031,42.745768973722846
7.31287129653145,-2.639727868302067,6.669191858146898,10.498963732949006,-61.27634798963521,49.50679335033646
7.2864740178484295,-3.252491348198419,6.774181495476388,10.99403166645237,-61.49193845360563,54.162478872612425
7.253949104366446,-3.8674107327344753,6.884121812140912,11.535656455178495,-56.73706694584936,52.76621818540845
7.215274997039101,-4.434781402192969,6.999478376692697,12.06331863703258,-42.76405016826672,39.54884253728486
7.170927183017171,-4.862421903875636,7.120111563063023,12.458807062405429,-16.97462255098091,10.876272905246175
7.122302963978415,-5.032168129385445,7.244699633687078,12.56756979145789,15.513864658153636,-26.52606612537071
7.07198128268456,-4.877029482803908,7.3703753316016565,12.302309130204183,41.93912350292226,-55.7545709471702
7.023210987856521,-4.457638247774685,7.493398422903699,11.74476342073248,54.32676407949313,-66.60359639213456
6.978634605378774,-3.9143706069797544,7.610846057111024,11.078727456811135,55.55086585087699,-63.38031244959856
6.939490899308977,-3.3588619484709845,7.7216333316791355,10.44492433231515,51.7547959996885,-54.38094768164926
6.905902279824267,-2.8413139884740994,7.826082575002287,9.901114855498657,46.779176021557106,-44.55306885304976
6.877489139939526,-2.3735222282585284,7.925093723557274,9.455584166968158,42.16044006120612,-35.72058176733983
6.853753917656941,-1.9519178276464673,8.019649565226956,9.09837834929476,38.316965674212206,-28.261841797136807
6.834234739380476,-1.5687481709043452,8.110633348719904,8.815759931323392,35.257034653362375,-22.064402690367913
6.818547257671433,-1.2161778243707215,8.198790948033139,8.595115904419712,32.87048451924863,-16.901208801739443
6.806385479427726,-0.8874729791782352,8.284742107077337,8.426103816402318,31.030820387855652,-12.553396780098518
6.7975107496359435,-0.5771647752996787,8.36900314524136,8.300569848601333,29.625557286700793,-8.841262517461967
6.791739101882946,-0.28090920243267076,8.452008843727373,8.212157223426713,28.561780328848116,-5.625672349819703
6.788930009858619,0.00470860085581043,8.534130415961641,8.155900499928515,27.764043027734118,-2.8016650733543864
6.788977095867177,0.28234903113315163,8.615689420960926,8.127883849194971,27.170514930772956,-0.29125904929458135
6.791800586178509,0.5540541804408812,8.696968259452875,8.124971258702026,26.729263289167516,1.9626002538066751
6.797341127982918,0.8213468133325563,8.778217972039895,8.144597261240092,26.395155213060903,4.000672336538833
6.805554596116243,1.0852983654631654,8.859663944652297,8.18460398460548,26.127412320545822,5.850829558486608
6.816407579770875,1.3465724886686237,8.941509984498351,8.243112280190347,25.887727647212515,7.530523958295925
6.829873304657561,1.6054497651407489,9.023941107300255,8.318417519773307,25.63884353561137,9.048567236786088
6.845927802308968,1.8618382004968625,9.107125282497988,8.408903192141167,25.34351030654525,10.406424658820583
6.864546184313937,2.115273303562315,9.1912143144194,8.512967438729373,24.963771374082814,11.599173279100842
6.88569891734956,2.364911017303143,9.276343988806692,8.62895917152038,24.460542650288282,12.61623426682306
6.909348027522592,2.609516443806026,9.362633580521896,8.75512151418861,23.79347123401412,13.441958956084633
6.935443191960652,2.847451156146167,9.450184795663782,8.889541103749456,22.921072188668195,14.056129145782611
6.963917703522114,3.076661878032849,9.539080206701277,9.030102395207283,21.801156171753828,14.434426507435608
6.994684322302442,3.2946734397503876,9.62938123065335,9.174446660281639,20.391579410684976,14.54893822658901
7.027631056699946,3.4985892338572375,9.721125697256166,9.319936042547528,18.651375565562628,14.368801479309475
7.062616949038518,3.6851029895128637,9.814325057681641,9.463624057340622,16.54236815762671,13.86115069167256
7.099467978933647,3.850526671089131,9.908961298255047,9.602235564257349,14.031406908006165,12.992612908078836
7.137973245644538,3.9908407401691925,10.00498365389762,9.732161693338137,11.09340268812004,11.731675832656823
7.17788165304623,4.101774767050393,10.102305270831001,9.849478451664705,7.715316904881562,10.052284630937985
7.218899400716734,4.178927936099209,10.20080005534765,9.950001297974085,3.9011385070290316,7.93893804369174
7.260688680077726,4.217939321169499,10.30030006832739,10.029390678411001,-0.3223994869549406,5.393273987189591
7.302868073289421,4.21471532629995,10.4005939751115,10.083323418282898,-4.90007317823144,2.441612658361099
7.3450152265524205,4.1657145945176355,10.501427209294329,10.10773954486651,-9.74367701624256,-0.8577932394747165
7.386672372497597,4.06827782435521,10.602504604742995,10.099161612471763,-14.730575178295133,-4.409768688888749
7.427355150741149,3.9209720725722588,10.703496220867713,10.055063925582875,-19.707190964280937,-8.081816567166138
7.466564871466871,3.7239001629294495,10.804046860123542,9.974245759911213,-24.498730149482746,-11.710245297931154
7.503803873096166,3.478912861434622,10.903789317722653,9.857143306931901,-28.925011377204388,-15.113405883156737
7.538593001710511,3.1896627476625783,11.002360750791972,9.706009248100333,-32.820332081959656,-18.1105352590225
7.570489629187137,2.861459426842982,11.099420843272975,9.524903895510109,-36.053563408079846,-20.542627310022898
7.5991042234555675,2.5009237927621832,11.194669882228077,9.31947762240988,-38.54400169986772,-22.29064454933493
7.624113461383189,2.115483775763506,11.287864658452175,9.09657117691653,-40.26938880928447,-23.28687760465338
7.645268299140824,1.7127898876706613,11.37883037022134,8.863702400869997,-41.264689000866525,-23.517233215647714
7.662396198017531,1.300142997661996,11.46746739423004,8.62853006871352,-41.61276929604651,-23.01483023210168
7.67539762799415,0.8840153047015309,11.553752694917176,8.398381766392504,-41.430035564497345,-21.847420387609194
7.6842377810411655,0.4697149490565574,11.637736512581101,8.179907562516412,-40.85072561832081,-20.102107482406666
7.688934930531731,0.06120769287334932,11.719535588206266,7.978886487692345,-40.013008075035614,-17.87055074474577
7.689547007460465,-0.33892238787700685,11.79932445308319,7.800180980244888,-39.048803627163075,-15.236754219910942
7.686157783581695,-0.7294104241486377,11.877326262885639,7.6478134380457785,-38.077944303186044,-12.26826159983155
7.678863679340209,-1.1101898671804982,11.953804397266097,7.525130822047463,-37.20632808367028,-9.010536385350218
7.667761780668404,-1.482253148017201,12.029055705486572,7.4350254581939605,-36.52724271315538,-5.4836877885144695
7.652939249188232,-1.847525575148755,12.103405960068512,7.380188580308816,-36.12494982206957,-1.6804718704858448
7.634463993436745,-2.2087750733694507,12.1772078458716,7.363383861603957,-36.07977646645976,2.4354671033589828
7.61237624270305,-2.5695728380340483,12.25084168448764,7.387738532637547,-36.47418648240223,6.931955514991797
7.586680514322709,-2.9343147028580705,12.324719069814014,7.457058087787465,-37.39943613787801,11.911748858595889
7.557337367294129,-3.3083090642368504,12.39928965069189,7.576175576373424,-38.96223957043666,17.516923856569544
7.52425427665176,-3.697931459941217,12.475051406455623,7.751344814939119,-41.2899274698335,23.93246327483195
7.487274962052348,-4.110830734639552,12.552564854605015,7.990669447687439,-44.52975589899663,31.383245334897257
7.446166654705952,-4.556128293629518,12.632471549081888,8.304501901036412,-48.83045818216605,40.10812988024598
7.400605371769657,-5.044432875451179,12.715516568092252,8.705583199838872,-54.27478887442324,50.26795243337903
7.350161043015145,-5.587180764195411,12.80257240009064,9.208262724172663,-60.684958504089124,61.67882171435578
7.294289235373191,-6.194030349236302,12.894655027332366,9.82505094131622,-67.12394364008262,73.12312262806327
7.2323489318808285,-6.865269785637128,12.992905536745528,10.556282167596853,-70.79148340103137,80.81344526695209
7.163696234024457,-7.573184619647442,13.098468358421497,11.364416620266374,-65.32264887833398,76.00657128495051
7.087964387827983,-8.226411108430781,13.21211252462416,12.124482333115878,-41.133137498326576,45.43383699416566
7.005700276743676,-8.637742483414048,13.33335734795532,12.578820703057534,4.172959384921053,-14.28669922665401
6.919322851909535,-8.596012889564838,13.459145554985895,12.435953710790994,49.9189862905811,-74.67230647200643
6.833362723013887,-8.096823026659028,13.583505092093805,11.689230646070929,70.72642940674278,-101.00311347750258
6.752394492747297,-7.3895587325916,13.700397398554514,10.679199511295902,68.80785516742546,-96.72083678767157
6.678498905421381,-6.701480180917345,13.807189393667473,9.711991143419187,58.64078242405153,-81.77715959106496
6.611484103612208,-6.11507235667683,13.904309305101664,8.894219547508538,48.100015271035225,-66.79204154579374
6.55033338004544,-5.634072203966477,13.99325150057675,8.2262991320506,39.320823331038355,-54.509160310021485
6.493992658005775,-5.240863970656093,14.075514491897257,7.681207528950386,32.410547897391574,-44.95656356961337
6.4415840182992135,-4.916758491682177,14.152326567186762,7.2316418932542526,27.01715505877355,-37.58250491152618
6.392416433382392,-4.646586941094442,14.224642986119305,6.855816844138991,22.773566205724155,-31.843591644588166
6.3459505639714475,-4.4188512790372,14.293201154560695,6.537380927693109,19.389055557491062,-27.316544725887027
6.3017620511810755,-4.224960723462289,14.358574963837626,6.264215480434238,16.649731597706737,-23.691161174067652
