th1 (rad),w1 (rad/s),th2 (rad),w2 (rad/s)
1.873870023808798,-1.4947846057121745,3.685085542489391,2.4970151141422834
1.8589221777516762,-1.5563342703580472,3.7100556936308138,2.5113369894434645
1.8433588350480958,-1.6182842873507284,3.7351690635252486,2.5236775481846725
1.8271759921745885,-1.6808350921232658,3.7604058390070954,2.5339046019236857
1.8103676412533558,-1.7442024138705738,3.785744885026332,2.5418676970405802
1.7929256171146501,-1.8086180486135883,3.8111635619967377,2.5473962370930625
1.7748394366285143,-1.8743304839046864,3.8366375243676685,2.550297904546009
1.7560961317894674,-1.9416052328817968,3.8621405034131286,2.5503575814849935
1.7366800794606494,-2.0107246790563824,3.8876440792279787,2.5473370512998774
1.7165728326700855,-2.081987160416276,3.9131174497409775,2.540975871210162
1.6957529610659228,-2.1557049296404456,3.9385272084530794,2.5309939430183
1.6741959117695182,-2.2322005153708857,3.9638371478832624,2.517096478842858
1.6518739066158092,-2.3118008796036014,3.9890081126716908,2.4989822576200065
1.6287558978197731,-2.394828626251913,4.0139979352478905,2.4763562862243047
1.604807611557254,-2.4815893836405016,4.038761498110134,2.448948190949755
1.5799917177208491,-2.572354392358528,4.063250980019631,2.4165378227358225
1.554268173797264,-2.667337334619599,4.087416358246989,2.3789895820170237
1.527594800451068,-2.7666646246745237,4.111206254067159,2.3362967334399345
1.4999281542043228,-2.8703388533623215,4.1345692214015575,2.288636318751588
1.4712247656706996,-2.9781959741308617,4.157455584589074,2.2364339873793484
1.441442805929391,-3.089858252261227,4.179819924462867,2.1804359589163025
1.4105442234067787,-3.2046870213523793,4.201624284052031,2.1217823203338986
1.378497353193255,-3.321741783280612,4.22284210725537,2.0620720957165926
1.3452799353604488,-3.4397547542118465,4.243462828212536,2.003406575248084
1.3108823878183302,-3.5571318472976747,4.263496893965017,1.94839436777961
1.2753110693453535,-3.6719912234641967,4.282980837642813,1.9001011685279565
1.2385911571107115,-3.782247806592229,4.301981849328093,1.861931071466906
1.2007686790447893,-3.885745864347028,4.320601160042762,1.8374355520721848
1.1619112204013191,-3.9804322819056197,4.338975515563484,1.8300605687535012
1.122106897582263,-4.0645523569637225,4.357276121251019,1.842858882085434
1.0814613740126258,-4.136840946624731,4.375704710071873,1.8782089182370023
1.0400929645463786,-4.19667801228506,4.394486799254243,1.937587945161914
0.998126184423528,-4.244181271875446,4.413862678705862,2.0214422897041415
0.9556843717047735,-4.280219626191546,4.434077101602903,2.1291807664786533
0.912882175442858,-4.3063465065017645,4.45536890926769,2.2592935729235877
0.8698187103778403,-4.324667873980349,4.477961844996925,2.4095745741808496
0.8265720316380368,-4.337670928025579,4.502057590738734,2.5774071777222556
0.783195322357781,-4.3480439661500085,4.527831662515957,2.760067302313481
0.7397148826962809,-4.3585150728787845,4.555432335539091,2.95500171199182
0.6961297319674931,-4.371729389138813,4.58498235265901,3.160053056432736
0.6524124380761049,-4.390174744839251,4.616582883223337,3.3736193457742845
0.6085106906277125,-4.416156395335413,4.65031907668108,3.5947505781970346
0.5643491266743583,-4.451815403229025,4.68626658246305,3.823195878519606
0.5198309726420681,-4.499182449738887,4.724498541248246,4.059420010487899
0.47483914814467926,-4.560259112279491,4.765092741353125,4.304609387794993
0.42923655702188435,-4.637120969867001,4.808138835231075,4.560686424238439
0.3828653473232143,-4.73204032195439,4.85374569947346,4.830348937274451
0.3355449441036704,-4.847630059869189,4.902049188846204,5.117149574850645
0.2870686435049785,-4.987013712487507,4.953220684594711,5.42562935324485
0.23719850638010342,-5.154029114562531,5.007476978127159,5.761518797207212
0.18565821523447812,-5.353472664255079,5.065092166099231,6.132017317280377
0.13212348859192732,-5.591382690016723,5.126412339272035,6.546149159435083
0.07620966169176009,-5.875330400753124,5.191873830866386,7.015153431157003
0.017456357684228853,-6.214599230296192,5.262025365177956,7.552746228958793
-0.044689634618733064,-6.619894897995213,5.337552827467544,8.174764969086723
-0.1108885835986852,-7.101608185235751,5.419300477158411,8.896845938752525
-0.18190466545104272,-7.664145852088892,5.508268936545936,9.72668802237661
-0.25854612397193166,-8.29078445637138,5.605535816769702,10.643171621619054
-0.34145396853564547,-8.910632186113013,5.711967532985893,11.550536427818498
-0.43056029039677557,-9.353545689429758,5.827472897264078,12.215624739874944
-0.5240957472910731,-9.37436682484839,5.949629144662828,12.301572270261172
-0.617839415539557,-8.875655455319539,6.07264486736544,11.677539735229242
-0.7065959700927524,-8.07918827352062,6.189420264717732,10.654648191799243
-0.7873878528279586,-7.267799820666017,6.295966746635725,9.6246468225787
-0.8600658510346189,-6.562508183245577,6.392213214861512,8.753122178635673
-0.9256909328670746,-5.974772415836363,6.479744436647868,8.054743879269838
-0.9854386570254382,-5.484131469876542,6.560291875440567,7.501169320184066
-1.0402799717242037,-5.067662336068204,6.635303568642407,7.0614244356649465
-1.0909565950848858,-4.706663975366195,6.705917812999057,6.710828956563686
-1.1380232348385477,-4.386942374363138,6.773026102564693,6.431209848133829
-1.1818926585821792,-4.097835873829831,6.837338201046031,6.209452631556578
-1.2228710173204775,-3.8312518082565523,6.899432727361597,6.036100308019567
-1.261183535403043,-3.5809427345470244,6.959793730441793,5.904286486157904
-1.2969929627485133,-3.342007868391746,7.018836595303371,5.808963929007871
-1.3304130414324307,-3.1105672689144503,7.07692623459345,5.746341269045295
-1.3615187141215752,-2.883564117333821,7.134389647283903,5.713453031109927
-1.3903543552949134,-2.6586640019434844,7.191524177595002,5.707808350349558
-1.4169409953143481,-2.4342302436286865,7.2486022610984975,5.727081374335077
-1.441283297750635,-2.209359261191793,7.305873074841848,5.76882141726585
-1.4633768903625528,-1.983959506677397,7.363561289014507,5.830175858863055
-1.4832164854293268,-1.758851573650718,7.4218630476031375,5.907635732173195
-1.500805001165834,-1.5358563924823279,7.48093940492487,5.996833558382352
-1.5161635650906573,-1.3178256436134497,7.540907740508693,6.0924427793300735
-1.5293418215267918,-1.1085596635598338,7.601832168301994,6.188240957592862
-1.54042741816239,-0.9125627334526965,7.663714577877922,6.277393029033454
-1.549553045496917,-0.7346136843571986,7.726488508168257,6.35297433068963
-1.556899182340489,-0.5791840440362693,7.790018251475153,6.4086835721062245
-1.5626910227808517,-0.4498031878362001,7.854105087196215,6.439611939586529
-1.5671890546592138,-0.34851917778933195,7.91850120659208,6.442876575056972
-1.570674246437107,-0.2756010507471826,7.98292997234265,6.417937316547721
-1.5734302569445788,-0.22956193990414273,8.047109345508128,6.366506126658281
-1.5757258763436202,-0.20747966898031223,8.110774406774711,6.292091071845884
-1.5778006730334233,-0.2055034648242251,8.17369531749317,6.199324828610848
-1.5798557076816655,-0.21940191923838143,8.235688565779279,6.093263235295093
-1.5820497268740492,-0.24503201145138304,8.29662119813223,5.978801603698189
-1.584500046988563,-0.27866532177071957,8.356409214169213,5.860281853285504
-1.5872867002062703,-0.3171631076871126,8.415012032702068,5.741293441013637
-1.5904583312831413,-0.35802754516020996,8.472424967112204,5.624628313678457
-1.5940386067347434,-0.3993695638978646,8.528671250248989,5.512336264579508
-1.598032302373722,-0.43983123472643476,8.583794612894783,5.405832321820222
-1.6024306147209864,-0.47849115081562676,8.637852936112985,5.306021020117419
-1.6072155262291425,-0.514770759046012,8.69091314631416,5.213416094247015
-1.6123632338196026,-0.5483510898370149,8.74304730725663,5.128244857198856
-1.6178467447179727,-0.5791035473302154,8.794329755828619,5.050533606479734
-1.623637780191275,-0.6070350114453457,8.844835091893415,4.980174435089393
-1.6297081303057284,-0.6322457913974864,8.89463683624431,4.916975743369975
-1.6360305882197033,-0.6548983197905711,8.943806593678008,4.860699384240495
-1.642579571417609,-0.6751944141251448,8.992413587520414,4.811087323954227
-1.6493315155588604,-0.693359151524979,9.040524460759956,4.76788033991409
-1.6562651070741101,-0.7096297233143669,9.088203264159096,4.730830819827531
-1.6633614043072538,-0.7242479642428759,9.135511572357371,4.699711280664314
-1.6706038839496826,-0.7374555432986591,9.182508685164015,4.674319837507298
-1.677978439382669,-0.7494910441148719,9.229251883539087,4.654483534003523
-1.685473349823818,-0.7605883520773364,9.275796718879121,4.640060194003784
-1.6930792333445912,-0.7709759075878082,9.322197320819159,4.630939257672897
-1.7007889924204693,-0.7808764874684941,9.368506713395888,4.627041912550355
-1.7085977572951543,-0.7905072457360438,9.414777132521392,4.628320708747679
-1.7165028297525147,-0.8000797860671964,9.461060339608869,4.634758746719931
-1.7245036276131867,-0.8098000546029852,9.507407927076068,4.646368435875641
-1.7326016281592165,-0.8198678348039534,9.553871611434824,4.663189733329943
-1.740800306507256,-0.830475595511822,9.600503508768123,4.685287675080587
-1.749105062462374,-0.8418063870086916,9.647356385518929,4.712748897083404
-1.7575231263324609,-0.8540303938474963,9.694483874489762,4.745676700629379
-1.766063430270936,-0.867299632495811,9.741940641496056,4.784184033885779
-1.774736426595894,-0.88174012121375,9.789782481834914,4.828383528568818
-1.7835538278080316,-0.897440646238037,9.838066317120601,4.8783734397331955
-1.792528234270412,-0.9144370067908613,9.886850051517934,4.934217989369979
-1.8016726043383207,-0.9326903631439407,9.936192231411633,4.995920234755049
-1.81099950796976,-0.9520580924678648,9.986151433759183,5.063385239121374
-1.8205200888944386,-0.9722554942841268,10.036785286150396,5.136371167378736
-1.8302426438372799,-0.9928070028341849,10.088148997824183,5.214426256131216
-1.8401707138656218,-1.0129866342401699,10.140293260385494,5.296810919796603
-1.8503005802080235,-1.0317497888054197,10.19326136958346,5.38240732181962
-1.8606180780960777,-1.0476629514253757,10.247085442801657,5.4696245345215235
-1.8710947076103315,-1.0588448603286207,10.301781688146873,5.55631674363295
-1.8816831562136176,-1.0629420751876142,10.357344855583202,5.639744509707063
-1.8923125769654938,-1.0571711764342457,10.413742300680273,5.716621698184794
-1.9028842887298363,-1.0384631228451802,10.47090851766212,5.7832953252074795
-1.9132689199582882,-1.0037331811429835,10.528741470914195,5.836089512378052
-1.923306251769718,-0.9502640439240863,10.587102366037975,5.871796805322504
-1.9328088922089588,-0.8761335985770684,10.6458203340912,5.88822491069893
-1.9415702281947296,-0.7805671962887722,10.70470258319819,5.884638384104501
-1.9493759001576172,-0.6640872766839564,10.763548967039235,5.861927213362881
-1.9560167729244569,-0.5283947301712231,10.822168239172864,5.8224191240764975
-1.9613007202261692,-0.37602163746542505,10.880392430413629,5.769394705547586
-1.9650609366008234,-0.20988006598480727,10.938086377469105,5.706476687366387
-1.9671597372606715,-0.03284687403416339,10.995151144342769,5.6370809348484885
-1.967488206001013,0.15252485046801267,11.051521953691253,5.564046447397566
-1.9659629574963329,0.34414646677526795,11.10716241816523,5.4894668428607805
-1.9625214928285801,0.5404147965337571,11.162057086593837,5.414680365381072
-1.9571173448632426,0.7401594073444285,11.216203890247648,5.340353998633723
-1.9497157507897984,0.9425572681333587,11.269607430233986,5.266605997722334
-1.940290178108465,1.1470424040901244,11.32227349021121,5.193130722180296
-1.9288197540675638,1.353225222135209,11.374204797433013,5.119307708460476
-1.9152875018462117,1.5608271570079122,11.425397874517618,5.044289135355815
-1.8996792302761325,1.7696312189614718,11.475840765871176,4.96706646727475
-1.8819829180865177,1.9794467449648165,11.525511430543924,4.88651985423491
-1.8621884506368696,2.1900859869820986,11.574376629086274,4.801454498015815
-1.8402875907670486,2.401350280834103,11.622391174066433,4.710627806791976
-1.8162740879587076,2.61302393959784,11.669497452134353,4.612770406955081
-1.7901438485627292,2.824874458869971,11.715625156203904,4.506603278419792
-1.7618951039740296,3.036658000643329,11.760691188988103,4.390852557103382
-1.7315285239675964,3.248129404213247,11.804599714559137,4.264262940991743
-1.699047229925464,3.4590561563807483,11.847242343969054,4.1256101415348
-1.6644566683616564,3.669235852369177,11.888498445384402,3.973712427394577
-1.6277643098379646,3.878516709542628,11.928235569658348,3.8074410036765456
-1.5889791427425384,4.086820672474754,11.966309979695113,3.625728757354538
-1.548110936017791,4.294168579014147,12.002567267268658,3.4275767926055565
-1.5051692502276495,4.500706742072903,12.036843035194714,3.2120582092723313
-1.4601621828069205,4.706734124196212,12.068963617287437,2.978318798470554
-1.4130948415649582,4.912728997498524,12.098746805272143,2.7255748325708695
-1.363967551589973,5.119373499738488,12.126002553597852,2.453109063164172
-1.3127738165925882,5.327573648862059,12.150533644229494,2.1602676621834087
-1.2594980801039677,5.538470861737374,12.172136320851328,1.8464635728847623
-1.204113371486594,5.753438318216028,12.190600956580175,1.5111962932146048
-1.1465789883044337,5.974050751383032,12.20571291951232,1.1541056737197952
-1.0868384807906033,6.2020080468017635,12.217253976249518,0.7750897404157137
-1.0248184003225858,6.438979382005737,12.225004873653676,0.37453653503221435
-0.9604286065025284,6.686313150988643,12.228750239003999,-0.0462494440457521
-0.8935654749926419,6.9445275634879025,12.228287744563541,-0.4843035564513554
-0.8241201993577629,7.212463834620143,12.223444708999027,-0.9337738908018706
-0.7519955610115615,7.485977781952212,12.214106970091008,-1.3840431675983143
-0.6771357831920394,7.756151984624067,12.200266538415024,-1.8171971218101133
-0.5995742633457987,8.007406919920742,12.182094567196923,-2.2054221662038116
-0.5195001941465912,8.216772109913544,12.160040345534885,-2.510196767274271
-0.43733247304745576,8.356677620329123,12.134938377862142,-2.6867177662991577
-0.35376569684416453,8.403252818932438,12.10807120019915,-2.6964316266970183
-0.26973316865484015,8.34777075630588,12.081106883932181,-2.5242131395902527
-0.18625546109178134,8.20276677045796,12.055864752536278,-2.1878198836337255
-0.10422779338720176,7.996192000770276,12.033986553699942,-1.7297550228376561
-0.024265873379498995,7.7583926719379,12.016689003471566,-1.1982060801396992
0.05331805333988,7.512363913691165,12.004706942670168,-0.6322561046309795
0.12844169247679166,7.271281988973594,11.998384381623858,-0.05754828982098892
0.2011545123665276,7.040497471720485,11.997808898725648,0.5113742471775825
0.27155948708373245,6.820468804880358,12.002922641197424,1.0671073799842627
0.33976417513253604,6.609052217325343,12.013593714997267,1.6061910639611403
0.4058546973057895,6.402932056645409,12.02965562563688,2.1270924169887113
0.4698840178722436,6.198422290140012,12.050926549806766,2.6290931696954116
0.5318682407736437,5.9918912520351055,12.07721748150372,3.1117428446015833
0.5917871532939948,5.779981162328439,12.108334909949736,3.574635039870317
0.6495869649172792,5.55972084204267,12.14408126034844,4.017359261984996
0.7051841733377059,5.328582853887312,12.184254852968289,4.439543870634576
0.758470001876579,5.084509501852012,12.228650291674635,4.840942338308673
0.8093150968950991,4.8259180204850844,12.277059715057721,5.221535207845527
0.8575742770999499,4.551688477871303,12.329275067136177,5.58163120305103
0.903091161878663,4.261135218326928,12.385091379166687,5.921957288437166
0.9457025140619323,3.953962305859998,12.444310952051058,6.243731419039738
0.9852421371205322,3.6302044285213255,12.506748266241456,6.548714351768842
1.0215441814057455,3.2901565921924716,12.572235409759143,6.8392385144979935
1.0544457473276703,2.934298520852071,12.640627794904123,7.118212320848062
1.083788732536191,2.563223200395166,12.711809918112603,7.389096769017281
1.1094209645401427,2.17758415854507,12.785700885802775,7.6558463714833325
1.1311968061255935,1.7780843006026354,12.86225934951761,7.922796244326245
1.14897764913162,1.3655429022110024,12.941487311960872,8.194458016736316
1.16263307815373,0.9411003974408296,13.023431892128235,8.475153883873633
1.1720440821281382,0.5066569734891194,13.108183430966971,8.768364607251273
1.1771106518630294,0.06569047459871052,13.195867077039484,9.075592778300066
1.1777675566090164,-0.375358840969895,13.286623004822484,9.394473229454423
1.1740139681993176,-0.8049978022680966,13.380567737117028,9.71590912276671
1.1659639901766365,-1.2041074463651291,13.477726828344695,10.020478897110246
1.1539229157129853,-1.5441687479590709,13.577931617315798,10.275776227861224
1.1384812282333947,-1.7893803968862656,13.68068937959441,10.438819550306732
1.120587424264532,-1.9064399192972699,13.785077575097478,10.468652631495045
1.1015230250715593,-1.8807083091830936,13.889764101412428,10.347496224856224
1.0827159419797283,-1.7270664677050491,13.99323906366099,10.094820982145556
1.065445277302678,-1.4833262906727298,14.094187273482445,9.758322804246674
1.0506120143959505,-1.1916757303407743,14.191770501524912,9.389572144118457
1.0386952570925427,-0.8845932002387376,14.285666222966096,9.026261067323992
1.0298493250901553,-0.5816267873624881,14.375928833639335,8.688951637199736
1.0240330572165304,-0.2924009332341743,14.462818350011332,8.385679545941487
1.0211090478841887,-0.020581780404620054,14.546675145470747,8.117401337350943
1.0209032300801424,0.23324482641000505,14.627849158844256,7.881758957846682
1.0232356783442424,0.46989163498892517,14.706666748422723,7.675174513860468
1.0279345946941316,0.6906924359679263,14.783418493561328,7.493874377507481
1.034841519053811,0.897079439558449,14.858357237336403,7.334333498784047
1.0438123134493955,1.090397556236496,14.931700572324242,7.1934334331033805
1.0547162890117605,1.2718359603694513,15.003634906655277,7.068488979142936
1.0674346486154551,1.4424150982606254,15.074319796446707,6.957219991564061
1.0818587995980613,1.6029982002482899,15.143891996362347,6.857704461012443
1.0978887816005443,1.7543121967398942,15.212469040972472,6.768328972009151
1.1154319035679432,1.896970886995823,15.280152330692564,6.687743079949509
1.1344016124379015,2.0314971411098277,15.34702976149206,6.614819709517276
1.1547165838489997,2.1583428292406626,15.413177958587232,6.548621718684937
1.1763000121414062,2.277906080158094,15.478664175774082,6.488373992605852
1.1990790729429872,2.390545882697103,15.54354791570014,6.433440196858216
1.2229845317699581,2.4965942140699267,15.607882317668722,6.383303324664475
1.2479504739106575,2.5963659357101116,15.671715350915367,6.337549272930518
1.2739141332677586,2.6901667035318995,15.735090843644672,6.295852809972843
1.3008158003030776,2.778299125746531,15.7980493717444,6.25796542382953
1.328598791560543,2.8610673818284518,15.860629025982695,6.223704652102167
1.3572094653788276,2.938780496810667,15.922866072503716,6.1929445886488415
1.3865972703469343,3.0117544477624514,15.984795518390204,6.16560733912941
1.4167148148245587,3.08031326419551,16.046451591781498,6.141655257899518
1.4475179474665139,3.14478927067686,16.10786814436049,6.121083845093717
1.4789658401732824,3.2055226073646175,16.169078982811428,6.103915217060251
1.5110210662469286,3.2628601519026703,16.230118134982032,6.090192087661399
1.5436496677659552,3.3171539537024706,16.291020055858645,6.079972214241016
1.57682120730298,3.368759278930488,16.351819778001055,6.07332327202835
1.6105088000922847,3.418032351544244,16.41255301072134,6.070318125966623
1.6446891236077272,3.465327862680487,16.473256191981005,6.071030470824705
1.679342402234532,3.5109963079130755,16.533966496689253,6.075530810193486
1.7144523653136627,3.5553811997493154,16.594721804791188,6.083882743634268
1.750006177311156,3.598816191630722,16.65556063222753,6.096139529714335
1.785994339227463,3.641622140049664,16.716522027524675,6.11234089165474
1.8224105606279597,3.6841041235596017,16.777645436441222,6.132510032399961
