th1 (rad),w1 (rad/s),th2 (rad),w2 (rad/s),a1 (rad/s^2),a2 (rad/s^2)
1.74508962019159,-1.8773646502720656,5.9796941213847425,2.139129792677844,-11.506769106174685,0.7676151251629112
1.7263159736888694,-1.9924323413338123,6.001085419311521,2.146805943929473,-11.457882279412669,1.4680695562809312
1.7063916502755312,-2.107011164127939,6.022553478750816,2.1614866394922823,-11.439381872507841,2.205991418249316
1.6853215386342517,-2.221404982853018,6.044168345145739,2.1835465536747756,-11.455856523120188,2.983288697782462
1.6631074888057216,-2.33596354808422,6.066003810682487,2.2133794406526004,-11.512299907146726,3.802789387341323
1.6397478533248793,-2.451086547155687,6.088137605089012,2.2514073345260135,-11.614230421367125,4.6683939673901245
1.6152369878533224,-2.567228851369358,6.110651678434272,2.2980912741999147,-11.76783685659669,5.585256806208126
1.5895646993396289,-2.684907219935325,6.133632591176271,2.353943842261996,-11.980154929451329,6.560004031340431
1.5627156271402756,-2.8047087692298382,6.1571720295988905,2.4195438825754003,-12.259280437444078,7.600996240869774
1.534668539447977,-2.927301573604279,6.181367468424645,2.495553844984098,-12.614625331772517,8.718644673739934
1.5053955237119343,-3.0534478269220044,6.206323006874485,2.5827402917214974,-13.057222557647718,9.925788281801063
1.4748610454427142,-3.1840200524984814,6.2321504097917,2.6819981745395083,-13.600082866089442,11.238134793494634
1.4430208449177295,-3.3200208811593757,6.258970391537095,2.7943795224744545,-14.258599512523174,12.674757862253033
1.4098206361061358,-3.4626068762846076,6.286914186761839,2.921127101096985,-15.050980012861366,14.258617936463269
1.3751945673432897,-3.613116676413221,6.316125457772809,3.0637132804616174,-15.998648477942329,16.01702322932312
1.3390634005791575,-3.7731031611926444,6.346762590577425,3.2238835127548486,-17.126488987960418,17.98184302905381
1.3013323689672311,-3.9443680510722485,6.379001425704974,3.4037019430453865,-18.46265387739342,20.189077740352314
1.2618886884565086,-4.128994589846183,6.413038445135428,3.6055927204489095,-20.037370691215546,22.676980098124364
1.2205987425580467,-4.3293682967583385,6.449094372339918,3.832362521430153,-21.87961474402465,25.481122819039392
1.1773050595904633,-4.548164444198585,6.487417997554219,4.087173749620547,-24.009427099288967,28.623277568084625
1.1318234151484774,-4.788258715191475,6.528289735050425,4.373406525301393,-26.421644054838694,32.0881383280219
1.0839408279965626,-5.052475155739862,6.572023800303439,4.694287908581612,-29.053336585011095,35.77705020098408
1.033416076439164,-5.343008521589973,6.618966679389255,5.052058410591453,-31.72225311506171,39.42088075421736
0.9799859912232642,-5.66023105274059,6.66948726349517,5.4462672181336265,-34.01990104451653,42.42906645241787
0.9233836806958583,-6.000430063185755,6.723949935676506,5.870557882657805,-35.154484953318274,43.66826043613861
0.8633793800640007,-6.351974912718938,6.782655514503085,6.307240487019191,-33.807312476173365,41.26046606808361
0.7998596309368113,-6.690048037480672,6.845727919373276,6.719845147700028,-28.259401564311997,32.762751522728976
0.7329591505620046,-6.972642053123792,6.912926370850276,7.047472662927317,-17.28949264907395,16.4352293762419
0.6632327300307667,-7.145536979614532,6.9834010974795495,7.211824956689736,-1.9441405326896466,-6.260016003240202
0.5917773602346214,-7.164978384941428,7.055519347046447,7.149224796657334,13.602620568132787,-29.438963758250715
0.5201275763852071,-7.0289521792600995,7.127011595013021,6.854835159074827,24.560990848531183,-46.32278823545307
0.4498380545926061,-6.783342270774788,7.195559946603769,6.391607276720296,29.203667297886554,-54.41867461638895
0.3820046318848582,-6.491305597795922,7.259476019370972,5.847420530556406,29.016321956155696,-55.75326414273145
0.317091575906899,-6.201142378234365,7.317950224676536,5.289887889129092,26.31051824889956,-53.534939855489185
0.25508015212455537,-5.938037195745369,7.370849103567827,4.7545384905742,22.730794477657124,-50.056470448604436
0.19569978016710168,-5.7107292509687975,7.418394488473569,4.253973786088156,19.11916340741477,-46.49571842936494
0.13859248765741372,-5.51953761689465,7.460934226334451,3.7890166017945064,15.817093461056604,-43.331530343152
0.08339711148846722,-5.361366682284084,7.498824392352396,3.3557012983629866,12.92238422622223,-40.69972844330469
0.02978344466562638,-5.2321428400218615,7.532381405336026,2.9487040139299396,10.431346169137157,-38.59061721288723
-0.02253798373459224,-5.12782937833049,7.5618684454753256,2.5627978418010673,8.305416077621786,-36.94174241103996
-0.07381627751789713,-5.044775217554272,7.587496423893336,2.1933804176906677,6.499435289116831,-35.677442303423476
-0.12426402969343985,-4.979780864663104,7.609430228070243,1.8366059946564328,4.9724339205111425,-34.72412117057089
-0.17406183834007088,-4.930056525457992,7.627796288016808,1.489364782950724,3.690895367662018,-34.01512671588541
-0.22336240359465082,-4.893147571781372,7.642689935846315,1.14921351579187,2.6289653001343023,-33.49147237220848
-0.2722938793124645,-4.866857918780029,7.654182071004234,0.8142987920697851,1.767526644746891,-33.101111524290964
-0.32096245850026484,-4.84918265233256,7.662325058924932,0.4832876768268754,1.092936303596849,-32.797896867525914
-0.36945428502359046,-4.838253289296592,7.667157935693201,0.15530870815161624,0.5957344985500289,-32.54066892931776
-0.41783681791655636,-4.832295944311092,7.668711022774717,-0.17009798114156138,0.2694365009815679,-32.29261835540356
-0.4661597773596673,-4.8296015793012765,7.667010042963302,-0.493024164695597,0.10943939821128101,-32.020936677397856
-0.5144557931526801,-4.828507185319164,7.662079801316346,-0.8132335314695756,0.11205237489414577,-31.696713627477752
-0.5627408650058717,-4.827386661570222,7.65394746600165,-1.130200667744353,0.27365575318711455,-31.29501452519827
-0.6110147316215739,-4.824650104038351,7.642645459324207,-1.4431508129963357,0.5899970315126106,-30.795062152234507
-0.6592612326619575,-4.818750133723225,7.628213951194244,-1.7511014345186808,1.0556345514907308,-30.180447760660098
-0.7074487339991897,-4.808193788208317,7.610702936849057,-2.052905912125282,1.6635382752407821,-29.439303458665496
-0.7555306718812729,-4.79155840545591,7.590173877727804,-2.3472989467119367,2.404851803333474,-28.564382212179662
-0.803446255935832,-4.767509887422575,7.5667008882606845,-2.6329427688337335,3.26881105120443,-27.55301065707582
-0.8511213548100577,-4.734821776910531,7.540371460572347,-2.9084728754044917,4.242804766978379,-26.40690146403817
-0.8984695725791629,-4.692393729240747,7.511286731818302,-3.1725418900448736,5.312552608451266,-25.131833025454146
-0.9453935098715704,-4.6392682031562344,7.479561312917854,-3.423860220299415,6.462369955585765,-23.73722150431864
-0.9917861919031328,-4.574644503600377,7.445322710714859,-3.6612324353426016,7.67548648823407,-22.235621202670053
-1.0375326369391364,-4.497889638718036,7.408710386361434,-3.883588647369302,8.934388231322275,-20.642192456625462
-1.0825115333263169,-4.408545756404813,7.36987449988774,-4.090010571935557,10.221159555364782,-18.974172121577414
-1.126596990890365,-4.306334160851165,7.328974394168385,-4.279752293151331,11.517810891354785,-17.250371930216744
-1.1696603324988766,-4.191156051937617,7.286176871236871,-4.452256012453498,12.806587554623754,-15.490717352360553
-1.2115718930182529,-4.06309017639138,7.241654311112336,-4.607163185977104,14.07026297574993,-13.715827154780957
-1.2522027947821666,-3.9223875466338805,7.195582679252565,-4.744321457524913,15.292424209497003,-11.946624385604753
-1.2914266702485053,-3.7694633045389105,7.148139464677316,-4.863787701380961,16.457758059393147,-10.20396482020562
-1.3291213032938944,-3.604885723944979,7.099501587663506,-4.965827349583017,17.552342687243534,-8.508269629827382
-1.3651701605333442,-3.4293622970725437,7.049843314167676,-5.050910045881291,18.56394321139495,-6.879154570754569
-1.3994637835040695,-3.243722864958594,6.999334213708863,-5.119701591588837,19.482302186448596,-5.335056738838156
-1.4319010121536555,-3.048899843094108,6.948137197792975,-5.173052158977218,20.29940889790484,-3.892869692151213
-1.4623900105845966,-2.8459057541150594,6.896406676203203,-5.21198085589873,21.009726832741638,-2.5676062137303974
-1.4908490681257471,-2.635808485787643,6.8442868676442155,-5.237656918036034,21.61035770596469,-1.3721132562713239
-1.5172071529836235,-2.419704908727996,6.791910298463855,-5.251378050598747,22.101123461573174,-0.3168645425874509
-1.5414042020709036,-2.1986936741122642,6.739396517957868,-5.254546696024621,22.484554305488498,0.5901472813407397
-1.5633911388120263,-1.9738481310573792,6.686851050997622,-5.248645223211214,22.7657799265829,1.3434043620224159
-1.5831296201226002,-1.7461903317915501,6.63436459876551,-5.23521117959099,22.95233103985728,1.9397382337064253
-1.6005915234405157,-1.5166670213929774,6.5820124869695995,-5.215813797253926,23.053867589626066,2.37809036796376
-1.6157581936544454,-1.2861283454967167,6.52985434899706,-5.1920328935742885,23.081857003583078,2.6591725743087427
-1.6286194771094125,-1.055309775460886,6.477934020061317,-5.165441167831201,23.04922993804431,2.785047433483999
-1.6391725748640213,-0.8248174760804429,6.426279608383005,-5.137590693496361,22.970041765510768,2.758652018616097
-1.6474207496248259,-0.5951170584253351,6.374903701448042,-5.1100041733102,22.85916594872194,2.583288007282476
-1.6533719202090793,-0.36652539893811575,6.323803659714939,-5.084171293237375,22.732041116283916,2.2620984622910183
-1.6570371741984604,-0.1392049877752766,6.272961946782566,-5.061550308614465,22.60448793170767,1.7975470198620036
-1.6584292240762133,0.08683989154180011,6.222346443696421,-5.043574838415845,22.492605437313333,1.1909101865185823
-1.6575608251607954,0.31176594591493345,6.171910695312262,-5.031665736550659,22.412749804976762,0.4417893197315899
-1.654443165701646,0.5358934439647011,6.121594037946756,-5.027247843353343,22.381591089221722,-0.4523526451678036
-1.649084231261999,0.7597093548569183,6.071321559513223,-5.03177136980502,22.416234512199253,-1.4966212130310699
-1.64148713771343,0.9838716999789108,6.021003845815172,-5.046737581935331,22.534379491773606,-2.699066452764495
-1.6316484207136408,1.209215494896647,5.970536469995818,-5.073728246462976,22.754467260480144,-4.0709572891289225
-1.6195562657646743,1.4367601675014483,5.919799187531188,-5.114437819354266,23.09572779556356,-5.626851830251983
-1.6051886640896598,1.6677174454570838,5.868654809337645,-5.170706337656786,23.57796322740922,-7.3842591437320335
-1.588511489635089,1.903497077731176,5.816947745961078,-5.2445489290941065,24.22077004657748,-9.362498615030743
-1.569476518857777,2.1457047781969507,5.764502256670137,-5.338173915244414,25.041657687388504,-11.580018959230859
-1.5480194710758075,2.396121355070836,5.711120517517693,-5.453974104836722,26.052085447402007,-14.048825978765546
-1.5240582575250992,2.656642209544856,5.656580776469326,-5.594462364624378,27.24969148357809,-16.763613315244196
-1.4974918354296507,2.9291391243806366,5.600636152823082,-5.76209849777682,28.603789126232634,-19.68149484411366
-1.4682004441858443,3.215177015642963,5.543015167845314,-5.958913446217957,30.029564605899104,-22.685898873793178
-1.4360486740294147,3.515472661701954,5.483426033383134,-6.185772434955888,31.34507441384306,-25.526226938252226
-1.4008939474123951,3.8289234058403845,5.421568309033575,-6.441034704338411,32.20729618771849,-27.72773305255922
-1.3626047133539914,4.150996367717569,5.3571579619901915,-6.718312034864003,32.038311019635145,-28.486578318651084
-1.3210947496768157,4.471379477913921,5.289974841641551,-7.003177818050514,29.998091002520113,-26.628327604911902
-1.2763809548976766,4.771360387939122,5.219943063461046,-7.269461094099634,25.145662348827422,-20.827724435348276
-1.2286673510182853,5.022817011427397,5.147248452520049,-7.477738338453117,16.972608558791823,-10.347898517289392
-1.1784391809040113,5.192543097015315,5.072471069135518,-7.581217323626011,6.213109320706176,3.8316971573489274
-1.1265137499338582,5.254674190222376,4.996658895899258,-7.542900352052522,-4.8739277072147615,18.61773376315744
-1.0739670080316344,5.205934913150228,4.921229892378733,-7.356723014420948,-13.615846257909515,30.339722604837824
-1.0219076589001321,5.069776450571133,4.847662662234524,-7.053325788372569,-18.617919182914125,37.08886995178287
-0.9712098943944208,4.883597258741992,4.777129404350798,-6.682437088854741,-20.20335681875718,39.31767534589135
-0.922373921807001,4.6815636905544205,4.710305033462251,-6.289260335395827,-19.530263760333632,38.614445320704526
-0.8755582849014567,4.486261052951084,4.647412430108292,-5.903115882188782,-17.696116589388417,36.47221987952049
-0.8306956743719459,4.3092998870572,4.588381271286404,-5.538393683393577,-15.420797887931545,33.860597032985396
-0.7876026755013739,4.1550919081778845,4.532997334452468,-5.199787713063723,-13.089442259491426,31.290764851133954
-0.746051756419595,4.02419748558297,4.480999457321831,-4.8868800645523836,-10.87715112703838,28.989352877766528
-0.7058097815637653,3.9154259743125865,4.432130656676307,-4.596986535774718,-8.846933833598815,27.033108700932235
-0.6666555218206394,3.8269566359765985,4.386160791318559,-4.326655448765396,-7.007985779422789,25.428139312255432
-0.6283859554608734,3.7568767781823706,4.342894236830905,-4.072374055642841,-5.346391506611436,24.151082979940533
-0.5908171876790497,3.7034128631162564,4.302170496274477,-3.830863225843436,-3.8402101805251596,23.168909710163376
-0.5537830590478872,3.665010761311005,4.263861864016042,-3.599174128741802,-2.4664761133123365,22.447748159893916
-0.5171329514347771,3.640346000177882,4.227870122728624,-3.374696647142863,-1.2042181341971494,21.956350906553794
-0.4807294914329983,3.6283038188359105,4.194123156257195,-3.155133138077325,-0.03559546340792841,21.667039193066177
-0.4444464532446392,3.6279478642018312,4.162571824876422,-2.938462746146663,1.0538132801336895,21.555516957352552
-0.4081669746026209,3.638485997003168,4.133187197414956,-2.7229075765731374,2.0750688105961945,21.60021790920831
-0.37178211463258926,3.6592366851091302,4.105958121649224,-2.5069053974810545,3.036045936395687,21.781495848296395
-0.33518974778149796,3.6895971444730873,4.080889067674414,-2.2890904389980906,3.9416250782621653,22.080800861109534
-0.29829377633676707,3.7290133952557087,4.057998163284433,-2.0682824303869953,4.7938672982561075,22.479908442135827
-0.26100364238421,3.77695206823827,4.037315338980562,-1.843483345965637,5.592173190027093,22.9602382836441
-0.22323412170182727,3.8328738001385405,4.018880505520906,-1.613880963129196,6.333443630787218,23.502291165027817
-0.18490538370044185,3.896208236446413,4.002741695889615,-1.3788580514789177,7.012269730293751,24.085233934940863
-0.14594330133597772,3.9663309337493504,3.9889531153748257,-1.138005712129509,7.621183403241846,24.68666706032781
-0.1062799919984842,4.042542767781769,3.9775730582535305,-0.891139041526231,8.150999533989681,25.282611910946624
-0.06585456432066651,4.124052763121666,3.9686616678382682,-0.6383129224167647,8.591275246501917,25.847752178614865
-0.02461403668944985,4.209965515586685,3.9622785386141004,-0.3798354006306161,8.93090060780328,26.355952714504845
0.017485618466416997,4.299274521664717,3.958480184607794,-0.11627587348556767,9.158817927630734,26.781057920513238
0.06047836368306417,4.390862700941025,3.9573174258729384,0.15153470571956473,9.264844585280269,27.09794091694806
0.10438699069247442,4.483511146793827,3.9588327729301342,0.42251411488904533,9.240549593767268,27.283736987908597
0.1492221021604127,4.5759166427314995,3.9630579140790245,0.6953514847681312,9.080111207845976,27.319156218834895
0.19498126858772769,4.666717754809959,3.9700114289267057,0.9685430469564802,8.78106725027249,27.189739099859118
0.24164844613582728,4.7545284273126835,3.9796968593962703,1.2404404379550713,8.34486678614157,26.886904132693356
0.28919373040895413,4.837977095174099,3.992101263775821,1.5093094792820048,7.777144762861695,26.408645154381016
0.33757350136069514,4.915748542802716,4.007194358568641,1.773395930825815,7.087670228012199,25.759770534866814
0.3867309867887223,4.9866252450828386,4.024928317876899,2.030993636174483,6.289959508195516,24.95163263430576
0.4365972392395507,5.049524840164794,4.045238254238644,2.2805099625175407,5.4005904939518565,24.00136386273651
0.4870924876411986,5.103530745104313,4.068043353863819,2.5205236011449057,4.438293605395091,22.930701685894732
0.5381277950922417,5.147913681158263,4.093248589875269,2.749830618003853,3.4229209651676915,21.76453554702111
0.5896069319038244,5.18214289080994,4.120746896055307,2.9674759734740643,2.3744031846574027,20.529334640461382
0.6414283608119238,5.205886922656514,4.150421655790048,3.172769319878678,1.3117930407777105,19.251613997099078
0.6934872300384889,5.219004853064291,4.182149348988834,3.3652854598496686,0.2524714134951598,17.95657122887372
0.7456772785691318,5.2215295671992425,4.215802203587331,3.5448511721384057,-0.7884401739113034,16.666985951815025
0.7978925742411243,5.21364516546013,4.251250715308715,3.711521031656556,-1.7984473016144844,15.40242840262622
0.8500290258957256,5.195660692443985,4.288365925625281,3.865545315682818,-2.767843609745429,14.178781923139951
0.9019856328201654,5.167982256346531,4.327021378782109,4.007333134914218,-3.689695735898576,13.008051682425458
0.9536654553836307,5.1310852989875455,4.367094710131251,4.1374136517384725,-4.559692093314697,11.898411667106478
1.0049763083735062,5.085488378054398,4.408468846648636,4.2563977684095375,-5.3758968863154655,10.854433131510078
1.0558311921540502,5.031729409191244,4.4510328243327315,4.364942099724638,-6.138446886550563,9.877438065304915
1.1061484862459627,4.970344940325738,4.494682245329978,4.463716480377688,-6.849221526152529,8.965927781148288
1.15585193564922,4.901852725064213,4.539319410133754,4.553375758189171,-7.51150878731938,8.116046527787043
1.204870462899862,4.82673763719102,4.5848531677156465,4.634536223467041,-8.129681609739995,7.322050754594758
1.2531378392717722,4.745440821093619,4.631198529950317,4.707756731012989,-8.708892951738937,6.576764688309046
1.3005922474827085,4.658351891576229,4.678276097260447,4.773524377896079,-9.254792613869393,5.872011310304962
1.347175766398471,4.565803965437535,4.726011341039408,4.832244490999129,-9.773265529435532,5.19901424589289
1.3928338060528462,4.46807131014318,4.774333785949399,4.884234633458058,-10.270189325136418,4.548770444597044
1.437514519154278,4.365369416891816,4.8231761322839795,4.929722337904028,-10.751208354002655,3.9123959855009236
1.481168213323196,4.257857333351789,4.872473355663019,4.968846297759037,-11.221521877337233,3.2814481175361196
1.523746786656714,4.145642114578417,4.9221618186406095,5.001660778934398,-11.685685400511845,2.648226006239036
1.5652032078024982,4.028785260573298,4.972178426429953,5.028143038996788,-12.147426128439248,2.0060508851682086
1.6054910604082313,3.9073109992889057,5.022459856819921,5.04820354784847,-12.60947586377017,1.3495237036455827
1.6445641704011205,3.781216240651204,5.072941892298406,5.061698784884926,-13.07342715037175,0.6747552691909414
1.6823763328076324,3.6504819691474863,5.123558880147256,5.068446337576836,-13.539620739319894,-0.02043928443208619
1.7188811524991072,3.515085761754287,5.174243343523024,5.068241944732515,-14.00707414425263,-0.7363926280262797
1.75403201011665,3.375015020311761,5.224925762970349,5.060878018452252,-14.473461748144505,-1.4714966934167282
1.7877821603197677,3.230280402830316,5.275534543154872,5.046163051518085,-14.935156238268759,-2.222186489128388
1.8200849643480708,3.080928840447628,5.3259961736700525,5.023941186626801,-15.38733879582846,-2.9830076646198225
1.8508942527525472,2.9270554524893435,5.37623558553632,4.994111109980603,-15.824181361234059,-3.7467753616516104
1.8801648072774406,2.768813638877003,5.4261766966361265,4.956643356364086,-16.23909862439253,-4.504825892681473
1.9078529436662106,2.6064226526330776,5.475743130199767,4.911595097437272,-16.625060668600906,-5.247355093169574
