th1 (rad),w1 (rad/s),th2 (rad),w2 (rad/s),a1 (rad/s^2),a2 (rad/s^2)
4.272377544755232,-2.208644879571421,2.520836322741087,2.1832338495728667,6.546835165240117,0.27534730895491694
4.2502910959595175,-2.14317652791902,2.5426686612368155,2.185987322662416,6.398285961204747,-0.10178938609516996
4.2288593306803275,-2.0791936683069725,2.5645285344634394,2.1849694288014643,6.278617339178871,-0.4559842789174042
4.208067393997258,-2.0164074949151836,2.586378228751454,2.1804095860122903,6.185802057253208,-0.7905182112732242
4.187903319048106,-1.9545494743426515,2.608182324611577,2.1725044038995582,6.117960529910314,-1.1083223998155698
4.168357824304679,-1.8933698690435483,2.6299073686505725,2.1614211799014025,6.073348754672881,-1.4119834975879746
4.149424125614243,-1.8326363814968194,2.6515215804495864,2.147301344925523,6.050341981595379,-1.7037528844950443
4.131097761799275,-1.7721329616808656,2.6729945938988418,2.1302638160805727,6.047415953550007,-1.9855579727184234
4.113376432182466,-1.7116588021453656,2.6942972320596477,2.1104082363533885,6.063127084687082,-2.259014172536259
4.096259844161013,-1.6510275312984948,2.7154013144231817,2.087818094628026,6.096092625773605,-2.5254368081878367
4.079749568848028,-1.5900666050407588,2.736279495369462,2.0625637265461476,6.144971651663471,-2.7858527533241975
4.06384890279762,-1.528616888524124,2.7569051326349236,2.0347051990129055,6.208447566818124,-3.041011908228265
4.048562733912378,-1.4665324128559427,2.777252184625053,2.004295079930623,6.285212733103556,-3.2913988913636065
4.033897409783819,-1.403680285524907,2.797295135424359,1.9713810910169869,6.373955757347509,-3.537245481132342
4.01986060692857,-1.339940727951432,2.817008946334529,1.9360086362056634,6.473351914894345,-3.778544427843758
4.006461199649055,-1.2752072088024884,2.8363690326965854,1.8982231919272259,6.582057113307595,-4.015065263855527
3.9937091275610306,-1.2093866376694125,2.8553512646158574,1.8580725392886706,6.698705704553677,-4.246372672537973
3.9816152611843365,-1.1423995806238756,2.873931990008744,1.8156088125632908,6.821912325726684,-4.471847835591103
3.970191265378098,-1.0741804573666087,2.892088078134377,1.7708903342073796,6.950277784008208,-4.690712967981816
3.9594494608044317,-1.0046776795265266,2.909796981476451,1.7239832045275614,7.082398803459559,-4.902058980510933
3.9494026840091663,-0.9338536914919311,2.9270368135217266,1.6749626147224521,7.216881228347823,-5.10487589894152
3.940064147094247,-0.8616848792084528,2.9437864396689513,1.6239138557330368,7.3523560454256485,-5.298085340370715
3.9314472983021624,-0.7881613187541964,2.9600255782262814,1.5709330023293298,7.4874973668008185,-5.480574033237575
3.9235656851146206,-0.7132863450861882,2.9757349082495748,1.516127261996954,7.621041330035265,-5.651227102082169
3.9164328216637587,-0.6370759317858355,2.9908961808695445,1.4596149909761322,7.751804747571245,-5.808959656901787
3.9100620623459004,-0.5595578843101231,3.0054923307793056,1.4015253944071144,7.878702294892441,-5.952745159729767
3.9044664835027993,-0.4807708613611987,3.0195075847233768,1.3419979428098168,8.000761080419275,-6.081639107974698
3.8996587748891876,-0.4007632505570059,3.032927564151475,1.2811815517300698,8.117131594428466,-6.194796781104191
3.8956511423836173,-0.31959193461272123,3.0457393796687753,1.2192335839190278,8.227094281968622,-6.29148413406506
3.8924552230374903,-0.237320991793035,3.0579317155079657,1.1563187425783772,8.330061306867602,-6.371081360844494
3.8900820131195597,-0.15402037872435898,3.0694949029337497,1.0926079289699322,8.42557344190676,-6.433079154895159
3.8885418093323163,-0.06976464430529138,3.080420982223449,1.0282771374209807,8.513292399468481,-6.477068211599786
3.8878441628892633,0.015368279689393444,3.090703753597659,0.9635064553049828,8.592989271404372,-6.5027230014753785
3.887997845686157,0.10129817240343716,3.1003388181507088,0.898479225290229,8.664530043706222,-6.509781245936992
3.8890108274101913,0.1879434728404994,3.109323610403611,0.8333814128308591,8.727859365100013,-6.498020814659879
3.8908902621385963,0.2752220664914995,3.1176574245319197,0.7684012046842603,8.7829838628509,-6.4672359127986585
3.893642482803511,0.3630519051200085,3.125341436578762,0.7037288455562737,8.829956308223263,-6.4172144299318274
3.8972730018547113,0.45135146820224115,3.132378725034325,0.6395567012569554,8.868861842230695,-6.347718186391925
3.901786516536734,0.540040086624548,3.138774292046895,0.5760795193930361,8.899807291396861,-6.258467553184381
3.907186917402979,0.6290381595385167,3.144535087240825,0.5134948438611924,8.92291435050638,-6.149131562994569
3.913477298998364,0.7182673030435806,3.149670035679437,0.4520035282312467,8.938317105102431,-6.019324200037615
3.9206599720288,0.8076504740946049,3.1541900709617496,0.39181028623087055,8.946164032346173,-5.868607085592813
3.9287364767697457,0.8971121144180666,3.158108173824058,0.3331242153749424,8.946624276382147,-5.696498293950793
3.9377075979139264,0.986578357181888,3.1614394159778074,0.2761592324354345,8.93989766459293,-5.502486569518844
3.9475733814857454,1.0759773338278174,3.164201008302162,0.22113436674024606,8.926227634328065,-5.286049798420111
3.9583331548240235,1.165239610171098,3.1664123519695644,0.16827386875604494,8.905915995072686,-5.04667624434309
3.9699855509257342,1.254298770121825,3.168095090657125,0.11780710631261404,8.879338276158464,-4.783886813904328
3.9825285386269527,1.3430921528834094,3.169273161720251,0.06996823817357076,8.846958319803708,-4.497256493014346
3.995959460155787,1.4315617360814465,3.1699728441019865,0.024995673243427295,8.809340783817388,-4.186433108292477
4.010275077516601,1.5196551439196204,3.170222800834421,-0.01686865783949748,8.767160321587793,-3.8511517232050787
4.025471628955797,1.6073267471354984,3.170054114256026,-0.05538017507154827,8.721206404633273,-3.4912432725648586
4.041544896427152,1.6945388111818311,3.1695003125053103,-0.09029260779719686,8.67238303133106,-3.1066364534801645
4.05849028453897,1.7812626414951418,3.1685973864273382,-0.12135897233199851,8.621702901588248,-2.69735239491543
4.076302910953921,1.8674796705110244,3.1673837967040184,-0.1483324962811528,8.570276000766963,-2.2634921800563874
4.094977707659032,1.953182430518694,3.1659004717412067,-0.17096741808171667,8.519292892300173,-1.8052178475309304
4.114509531964218,2.038375359441696,3.1641907975603893,-0.18901959655702597,8.47000333209053,-1.3227280004727713
4.134893285558635,2.123075392762601,3.162300601594819,-0.20224687656175366,8.423691058270226,-0.8162295634821942
4.1561240394862615,2.2073123033453035,3.1602781328292013,-0.2104091721965756,8.381645754939385,-0.285907515342476
4.178197162519715,2.2911287608946975,3.1581740411072357,-0.21326824735000036,8.34513322706631,0.2681054259674728
4.201108450128662,2.3745800931653607,3.1560413586337357,-0.21058719309032564,8.315364757087712,0.8457571787293942
4.224854251060315,2.457733740736238,3.1539354867028324,-0.2021296213030317,8.293466454580074,1.447100856616692
4.249431588467678,2.5406684052820387,3.1519141904898023,-0.18765861273686477,8.280449180312694,2.072313837341277
4.274838272520498,2.6234728970851657,3.1500376043624336,-0.166935474363452,8.277179352090053,2.721709925637131
4.301073001491349,2.7062446906060664,3.148368249618799,-0.13971837510708068,8.284350650722553,3.3957434736534755
4.3281354483974095,2.789088197113292,3.1469710658677283,-0.10576094037054593,8.302456367160373,4.095004586275046
4.356026330368542,2.8721127607848955,3.1459134564640228,-0.06481089450779547,8.331761889040116,4.820204764445403
4.384747457976391,2.9554303796752968,3.145265347518945,-0.01660884686334143,8.372276633979611,5.572152511596642
4.414301761773144,3.0391531460150927,3.1450992590503115,0.039112678252624995,8.423724609809248,6.351718543431068
4.444693293233295,3.123390392113185,3.145490385832838,0.10262986368693569,8.485512725889743,7.159790307046196
4.475927197154427,3.2082455193720825,3.1465166844697072,0.17422776675739765,8.556695999010625,7.997215548744009
4.508009652348148,3.2938124793621886,3.148258962137281,0.25419992224483773,8.635938894988113,8.864734695539909
4.540947777141771,3.3801718683120696,3.1508009613597294,0.34284726920023684,8.72147222603346,9.762901863912617
4.574749495824891,3.467386590572404,3.154229434051732,0.440476287839363,8.811045288512515,10.691994415165613
4.609423361730615,3.5554970434575295,3.1586341969301253,0.5473962319910192,8.9018732817604,11.651911176441295
4.6449783321651905,3.6445157762751337,3.1641081592500355,0.6639153437554322,8.99058050326321,12.642059776587644
4.681423489927941,3.7344215813077657,3.17074731268759,0.7903359415213086,9.073140375799067,13.661234041111626
4.718767705741019,3.825152985065756,3.178650672102803,0.9269482819324248,9.144814032763355,14.707483079418534
4.7570192355916765,3.91660112539339,3.187920154922127,1.0740231127266102,9.200089968214849,15.777974600132582
4.79618524684561,4.008602025075539,3.198660386049393,1.231802858727936,9.23262813830418,16.86885611181722
4.8362712670963655,4.100928306458581,3.2109784146366724,1.4004914198461083,9.235212857421265,17.975118991847776
4.877280550160951,4.1932804350327935,3.2249833288351337,1.580242609764586,9.199719824880622,19.090471894051483
4.919213354511279,4.285277633281599,3.2407857549327796,1.771147328705101,9.11710358478489,20.20723154268883
4.962066130844095,4.376448669129449,3.258497228219831,1.9732196441319894,8.977412579210384,21.316240518144475
5.0058306175353895,4.466222794921553,3.2782294246611507,2.1863820493134343,8.769839598465037,22.406823036151405
5.050492845484605,4.553921190906203,3.3000932451542853,2.4104502796749485,8.482815741133406,23.466790788227545
5.096032057393667,4.638749348317536,3.3241977479510347,2.645118187557224,8.10415584242031,24.482511463562613
5.142419550876842,4.719790906741739,3.350648929826607,2.88994330219285,7.621262586773801,25.439052435669968
5.18961745994426,4.796003532609477,3.3795483628485354,3.1443338265495497,7.02139507985082,26.320411124520902
5.237577495270354,4.866217483407985,3.410991701114031,3.4075379377947588,6.292005429603681,27.109841642002724
5.286239670104434,4.9291375377040225,3.4450670804919787,3.678636354214786,5.421143817228578,27.790284464720916
5.335531045481474,4.983348975876308,3.4818534440341264,3.956539198861995,4.397928586869843,28.344902082430803
5.385364535240237,5.027328261745007,3.5214188360227463,4.239988219686303,3.2130730159857763,28.757718906931864
5.435637817857687,5.059458991904864,3.5638187182196095,4.527565408755622,1.8594546074236347,29.014358254018507
5.486232407776736,5.078053537979101,3.609094372307166,4.817708991295808,0.3327059269575415,29.102862943693335
5.537012943156527,5.0813805972486765,3.6572714622201237,5.108737620732741,-1.3682018112140766,29.0145789586266
5.587826749129014,5.067698579136536,3.708358838427451,5.398883410319007,-3.2404199120138726,28.745073611942757
5.638503734920379,5.035294380016397,3.762347672530641,5.686334146438434,-5.276774801133018,28.295050899204423
5.688856678720542,4.982526632005067,3.8192110139950253,5.969284655430479,-7.465467517493411,27.671217622585786
5.738681945040593,4.9078719568301326,3.8789038605493302,6.245996831656337,-9.789982405477812,26.887045616951674
5.787760664608895,4.809972132775354,3.9413638288658936,6.514867287825854,-12.229270059225977,25.963369998403248
5.835860385936648,4.687679432183095,4.006512501744152,6.774500987809886,-14.758265582668363,24.928763697868117
5.882737180258479,4.540096776356411,4.074257511622251,7.023788624788567,-17.348790022063735,23.819638047498746
5.928138148022043,4.366608876135774,4.144495397870136,7.261985005263555,-19.970858953884214,22.680040961129066
5.9718042367834006,4.166900286596932,4.217115247922772,7.488785414874846,-22.594388293717245,21.56115992010708
6.01347323964937,3.9409564036597597,4.29200310207152,7.704397014075917,-25.191246914817178,20.520585469726228
6.052882803685968,3.689043934511588,4.36904707221228,7.909602868773179,-27.737565011651736,19.621447641084746
6.089773243031083,3.4116682843950707,4.448143100900012,8.105817345184027,-30.216174439225476,18.93159443632764
6.123889925875034,3.109506540002816,4.529201274351852,8.295133289547303,-32.6190397803548,18.52302717210411
6.154984991275062,2.783316142199268,4.612152607247325,8.480363561268344,-34.949539069913214,18.471828823738267
6.182818152697054,2.4338207515001358,4.696956242860009,8.665081849505727,-37.22446303641148,18.85880187752124
6.207156360212055,2.061576121136021,4.783607061355066,8.853669868280939,-39.47559508539131,19.770944377023277
6.227772121423415,1.6668201702821077,4.872143760037876,9.051379312051171,-41.750651480713856,21.30367879930415
6.244440323126236,1.249313655474969,4.962657553158388,9.264416100044214,-44.11307703316654,23.56327042393043
6.256933459680986,0.8081828851433037,5.05530171415883,9.500048804283518,-46.63943995447142,26.667801509030355
6.265015288532418,0.3417884855985895,5.150302202201665,9.76672681937382,-49.41137148612859,30.742638017348952
6.268433173388404,-0.15232522926269637,5.247969470395403,10.07415319954731,-52.494888340204064,35.900800006459384
6.266909921095777,-0.677274112664737,5.348711002390876,10.433161199611902,-55.890870588775016,42.1863016374617
6.26013717996913,-1.2361828185524872,5.453042614386995,10.85502421598652,-59.42160366625375,49.43239755592066
6.247775351783605,-1.8303988552150248,5.561592856546859,11.349348191545726,-62.48454810274228,56.93888684756414
6.229471363231455,-2.4552443362424476,5.675086338462316,11.918737060021368,-63.57076277979907,62.82161174177671
6.20491891986903,-3.090951964040438,5.79427370906253,12.546953177439134,-59.5406368650231,63.007312945416636
6.174009400228625,-3.686358332690669,5.9197432408369215,13.1770263068933,-45.35026116145252,50.79417497696007
6.137145816901718,-4.139860944305195,6.051513503905855,13.6849680566629,-16.745110163895895,20.39969347665676
6.0957472074586665,-4.307312045944154,6.188363184472483,13.888964991429468,22.088388225442003,-22.781699958523255
6.052674086999225,-4.0864281636897335,6.327252834386778,13.661147991844235,55.75513848802887,-58.626008531757314
6.011809805362328,-3.528876778809445,6.46386431430522,13.074887906526662,72.56081416978603,-72.47286948219332
5.9765210375742335,-2.8032686371115845,6.594613193370487,12.350159211704728,75.20716724793672,-68.84939563455701
5.9484883512031175,-2.0511969646322172,6.718114785487534,11.661665255359157,71.51207592869318,-58.41486786697649
5.927976381556795,-1.3360762053452855,6.834731438041125,11.077516576689392,66.34127221392525,-47.427445052283886
5.914615619503342,-0.672663483206033,6.945506603808019,10.603242126166553,61.527124454905966,-38.0429287018516
5.907888984671282,-0.05739223865697329,7.051539025069684,10.222812839148036,57.49541699422982,-30.632455819839144
5.907315062284712,0.5175619312853249,7.153767153461165,9.916488280949645,54.18845990593211,-25.017175729903133
5.912490681597565,1.059446530344646,7.2529320362706615,9.666316523650615,51.422789448215795,-20.916267552489717
5.923085146901012,1.573674424826804,7.349595201507167,9.457153848125717,49.007003320093006,-18.076863781356796
5.93882189114928,2.063744458027734,7.444166739988424,9.27638521031215,46.7749659631588,-16.297734072582173
5.959459335729557,2.531494117659322,7.5369305920915455,9.113407869586327,44.59209731124407,-15.4222303487461
5.98477427690615,2.9774150907717627,7.628064670787409,8.959185566098865,42.35431127968766,-15.324942052252638
6.014548427813868,3.4009582035686394,7.717656526448398,8.80593614557634,39.985691375572046,-15.899342297617574
6.048558009849555,3.80081511732436,7.805715887904161,8.646942722600164,37.43640599510499,-17.04825277868104
6.086566161022798,4.17517917727541,7.892185315130162,8.476460194813354,34.68088557173422,-18.677330724263268
6.128317952795552,4.521988032992753,7.976949917078296,8.289686887570722,31.715898561029633,-20.69133113509868
6.173537833125479,4.839147018603049,8.059846785954003,8.082773576219736,28.55817849241441,-22.992759537988878
6.2219293033115095,5.124728803527193,8.1406745217162,7.852845980839848,25.241416215009462,-25.482451698884056
6.273176591346782,5.3771429656772884,8.219202981524598,7.5980214638510075,21.812629440334707,-28.061551927192273
6.326948021003554,5.595269260080635,8.295183196163109,7.317405944579085,18.32809332075518,-30.634328908659946
6.382900713604361,5.778550193288187,8.368357255608899,7.011062655492486,14.849123237420368,-33.11129108528561
6.440686215537243,5.927041425662391,8.438467882163824,6.67994974463963,11.438029376954473,-35.412147984821836
6.499956629793867,6.041421719431935,8.50526737961022,6.3258282647914115,8.154520393672632,-37.46829245320751
6.560370846988186,6.122966923368661,8.568525662258134,5.951145340259337,5.05274637908401,-39.22461982910021
6.621600516221872,6.173494387159502,8.628037115660728,5.558899141968334,2.179071955125834,-40.64062166594303
6.683335460093467,6.19528510671076,8.68362610708041,5.152492925308904,-0.4294142234085061,-41.69077368233941
6.745288311160574,6.190990964476676,8.7351510363335,4.735585188485509,-2.745702725046738,-42.364277820342544
6.807198220805341,6.163533937226208,8.782506888218355,4.311942410282084,-4.753054913343277,-42.664229016593104
6.8688335601776025,6.116003388092775,8.825626312321177,3.885300120116153,-6.444665495068783,-42.6062773348851
6.92999359405853,6.051556733142087,8.864479313522338,3.459237346767302,-7.822879053901815,-42.21686130713147
6.990509161389951,5.973327942603069,8.89907168699001,3.037068733695987,-8.898046326048737,-41.53110540761321
7.050242440815981,5.884347479342582,8.929442374326971,2.621757679619855,-9.687113914202113,-40.590500125302256
7.109085915609406,5.787476340200561,8.95565995112317,2.2158526783668324,-10.212051248904913,-39.44050703231446
7.166960679011412,5.685355827711512,8.977818477906839,1.8214476080436879,-10.498224999766078,-38.128242505170704
7.2238142372885275,5.580373577713852,8.996032953987276,1.4401651829919808,-10.572828544464297,-36.70038531106932
7.279617973065666,5.474645292269209,9.010434605817196,1.0731613298812877,-10.463460327426107,-35.201424625133775
7.334364425988358,5.370010688994948,9.021166219116008,0.7211470836299498,-10.196921521672467,-33.67232171070557
7.388064532878308,5.268041473778223,9.028377689952308,0.3844238665228942,-9.798274675456842,-32.149609351154986
7.44074494761609,5.170058727023655,9.032221928617536,0.06292777301134433,-9.290176347621713,-30.664907135535664
7.492445534886326,5.077156963547438,9.03285120634765,-0.2437212983440123,-8.692472845174125,-29.24479436191388
7.5432171045218,4.9902322350956965,9.03041399336421,-0.5361692419631511,-8.022032160441068,-27.910958451619837
7.593119426872757,4.910011913491286,9.025052300944578,-0.8152788264793495,-7.292778306015585,-26.680524639827173
7.64221954600767,4.83708413043113,9.016899512679785,-1.0820840728776213,-6.515896293536603,-25.56646898919921
7.690590387311981,4.7719251674957635,9.006078671951009,-1.3377487627696134,-5.700186153118908,-24.57801667313467
7.738309638986939,4.714923305964574,8.992701184323312,-1.58352892950096,-4.852561874356773,-23.72092567920596
7.7854588720465845,4.666397687221006,8.976865895028302,-1.8207381862930196,-3.978715825525854,-22.9975473156744
7.832122848918795,4.626610528965748,8.958658513165371,-2.0507136594497637,-3.084001768426686,-22.406534259098017
7.878388954208452,4.595770511281481,8.938151376570874,-2.2747790020407437,-2.174631190748229,-21.94203040767764
7.924346659321267,4.574024199373999,8.915403586550466,-2.49419930611752,-1.2593284475276305,-21.592123344626113
7.970086901315007,4.561430914898723,8.890461593489292,-2.710120539563781,-0.3516453158950246,-21.336276483105404
8.015701210463995,4.557914461739772,8.863360388093653,-2.923483304394835,0.5268236271133389,-21.141410603645397
8.061280355081392,4.563182698010905,8.834125555049704,-3.134897410431289,1.3421075633317936,-20.956345242641163
8.106912182061501,4.576603773644223,8.802776580945391,-3.3444608628577006,2.0423948669530994,-20.704601134576734
