th1 (rad),w1 (rad/s),th2 (rad),w2 (rad/s)
0.847897400772513,-1.5781741634330206,2.0797277511139973,2.7413851417856434
0.8321156591381828,-1.5992577729771333,2.1071416025318537,2.6393265203894716
0.8161230814084114,-1.6235880717608338,2.133534867735748,2.5377135272121887
0.7998872006908031,-1.6510849950397457,2.15891200300787,2.436199692777716
0.7833763507404057,-1.6816714685403447,2.183273999935647,2.3344421362463734
0.7665596360550022,-1.7152741800035372,2.206618421298111,2.232102509262419
0.7494068942549669,-1.751823728095737,2.228939446390735,2.1288475254326227
0.7318886569740095,-1.791254294750304,2.2502279216450614,2.02434929025653
0.7139761140265065,-1.8335029409134787,2.2704714145476266,1.9182855901066174
0.6956410846173717,-1.8785085926371785,2.289654270448693,1.8103402592805888
0.676855998691,-1.9262107611394144,2.3077576730414986,1.7002037162682284
0.6575938910796059,-1.9765480244260074,2.324759710204181,1.5875737404799002
0.6378284108353458,-2.029456287633455,2.34063544760898,1.4721565459811168
0.6175338479590112,-2.084866833243782,2.355357013068791,1.353668197143204
0.5966851796265734,-2.1427041699564686,2.368893695040223,1.231836400910112
0.5752581379270088,-2.2028836897682766,2.381212059049324,1.1064027003031998
0.553229301029326,-2.2653091463709694,2.392276086052356,0.9771250828173936
0.5305762095656164,-2.329869974083528,2.40204733688053,0.843781004712499
0.507277509824781,-2.3964384749623764,2.4104851469276554,0.7061708173072568
0.4833131250751573,-2.464866912204963,2.4175468551007278,0.5641215639235045
0.4586644559531077,-2.5349845600930383,2.423188070739963,0.417491096077353
0.4333146103521773,-2.6065947739614703,2.4273629817007363,0.26617243519411815
0.4072486626125626,-2.679472157268925,2.4300247060526776,0.11009828225699386
0.38045394103987334,-2.753359915802056,2.4311256888752477,-0.05075444644637106
0.3529203418818528,-2.827967500158374,2.430618144410784,-0.21636020231883277
0.32464066688026905,-2.9029686455453922,2.4284545423875956,-0.3866406707580392
0.29561098042481515,-2.9779999211486077,2.424588135680015,-0.5614610994578588
0.2658309812133291,-3.0526598984714726,2.4189735246854367,-0.7406272734669225
0.23530438222861438,-3.126509038011522,2.4115672519507676,-0.9238833175193677
0.20403929184849917,-3.1990703757667833,2.402328418775574,-1.1109104898373752
0.17204858809083134,-3.2698310654308593,2.3912193138772,-1.3013271023598896
0.13935027743652276,-3.3382447996905875,2.378206042853601,-1.494689660570149
0.10596782943961688,-3.4037350967355806,2.3632591462479,-1.6904952636883046
0.07193047847226108,-3.465699398836389,2.346354193611017,-1.8881852464963709
0.03727348448389719,-3.5235138923347824,2.327472341146053,-2.0871499824951947
0.002038345560549361,-3.5765389267222494,2.306600841321101,-2.28673471058288
-0.033727043706673135,-3.624124888686798,2.2837334942152725,-2.4862462005747235
-0.06996829259354112,-3.6656183784402576,2.2588710322095253,-2.684960042861579
-0.1066244763779437,-3.700368542394401,2.2320214317809097,-2.8821283392339296
-0.1436281618018877,-3.7277334386684986,2.2032001483885706,-3.076987588127019
-0.18090549618857268,-3.747086348236349,2.1724302725073006,-3.268766598182361
-0.21837635967093616,-3.7578219908571624,2.139742606525477,-3.45669432580698
-0.2559545795795078,-3.7593626554341206,2.1051756632674072,-3.6400076089374718
-0.293548206133849,-3.751164301788005,2.0687755871780324,-3.8179588513784664
-0.3310598491517291,-3.7327227269388503,2.0305959986642477,-3.989823788896559
-0.36838707642111757,-3.7035799058943923,1.990697760775282,-4.154909527944576
-0.4054228754800615,-3.66333060780412,1.9491486654958363,-4.312563079232806
-0.4420561815581027,-3.611629348463302,1.9060230347035083,-4.462180602074311
-0.47817247504273575,-3.5481976680237106,1.8614012286827653,-4.603217525625008
-0.5136544517229729,-3.4728316209217027,1.8153690534265152,-4.735199618662522
-0.5483827679321899,-3.3854092406700396,1.76801705723989,-4.857734945060719
-0.5822368603388903,-3.2858976072932324,1.719439707789283,-4.970526478702088
-0.6150958364118226,-3.174359016121541,1.669734443002262,-5.073384976608918
-0.6468394265730381,-3.0509556425962483,1.6190005932361728,-5.166241545129303
-0.6773489829990006,-2.9159520384449706,1.5673381777848798,-5.249159206556297
-0.7065085033834503,-2.7697147972635916,1.514846585719317,-5.322342707585489
-0.7342056513560862,-2.612708803314656,1.461623158643462,-5.3861458269175495
-0.7603327393892327,-2.4454896280425253,1.4077617003742866,-5.4410755486792715
-0.784787635669658,-2.2686918548370034,1.3533509448874939,-5.487792670654047
-0.807474554218028,-2.083013372769683,1.2984730181809534,-5.527108697504901
-0.8283046879457249,-1.889195953713819,1.2432019312059044,-5.559979202698186
-0.847196647482863,-1.6880026785969378,1.1876021391789224,-5.587494193466277
-0.8640766742688324,-1.480192972264163,1.1317271972442597,-5.610866342862275
-0.878878603991474,-1.266496113834139,1.075618533815637,-5.631418227742541
-0.8915435651298154,-1.0475840931333145,1.0193043515382116,-5.650569907517946
-0.9020194060611485,-0.8240445802856703,0.9627986524630322,-5.6698282861658065
-0.9102598518640052,-0.5963545749526781,0.9061003696013741,-5.6907797250871495
-0.9162233976135319,-0.3648550252588949,0.8491925723505026,-5.715087335961514
-0.9198719478661208,-0.12972638248964852,0.7920416989908875,-5.744494308044745
-0.9211692116910173,0.10903528166940055,0.73459675591044,-5.780834541441754
-0.9200788588743233,0.3516422883366095,0.6767884104960225,-5.826051785828985
-0.9165624359909572,0.5985404461910695,0.6185278926377326,-5.882228419109532
-0.9105770315290466,0.8504363123754323,0.5597056084466372,-5.9516248932843165
-0.9020726684052922,1.1083275981112413,0.5001893595137941,-6.0367305884975435
-0.8909893924241798,1.373537121723441,0.43982205362881865,-6.140326042044418
-0.8772540212069454,1.6477491921231953,0.37841879320837446,-6.265554604568561
-0.8607765292857135,1.9330438669219177,0.31576324716268883,-6.4159971717275335
-0.8414460906164943,2.2319171771899002,0.2516032754454135,-6.595733983999359
-0.8191269188445953,2.547260115043261,0.18564593560541992,-6.809356979669947
-0.7936543176941627,2.8822379699666265,0.11755236580872044,-7.06185369901906
-0.7648319379944964,3.239949439351645,0.04693382881852985,-7.358198152560273
-0.73243244360098,3.6226264754840467,-0.02664815270707288,-7.702319453261675
-0.6962061788461396,4.029930618939994,-0.10367134723968964,-8.094831258836594
-0.6559068726567396,4.455624955645838,-0.1846196598280556,-8.528511617741287
-0.6113506231002812,4.881826834062966,-0.26990477600546847,-8.980398237166755
-0.5625323547596516,5.271279859601648,-0.359708758377136,-9.401040231012864
-0.5098195561636351,5.563037559970545,-0.45371916068726464,-9.708292988960672
-0.4541891805639296,5.685589818857478,-0.5508020905768714,-9.805050428117605
-0.3973332823753548,5.597574169228459,-0.6488525948580474,-9.634972425447554
-0.3413575406830702,5.326301175337993,-0.7452023191125229,-9.23503637667917
-0.2880945289296903,4.951094385020755,-0.8375526828793146,-8.712076751628224
-0.23858358507948274,4.548844835420111,-0.9246734503955969,-8.168205728760482
-0.19309513672528164,4.164694500178095,-1.0063555076832018,-7.661644683329937
-0.15144819172350069,3.816262829505262,-1.082971954516501,-7.213412121176654
-0.11328556342844806,3.506423931233666,-1.1551060757282676,-6.82511046017941
-0.07822132411611141,3.2320867066000054,-1.2233571803300618,-6.490866431373872
-0.04590045705011135,2.9884473091102413,-1.2882658446438005,-6.2029758465166225
-0.01601598395900894,2.770702570372201,-1.3502956031089668,-5.954091272145643
0.011691041744713072,2.574620704744896,-1.4098365158304231,-5.737887870326117
0.03743724879216204,2.3966538202137535,-1.4672153945336843,-5.549138653422897
0.061403786994299575,2.233886855520118,-1.5227067810679134,-5.383591854276003
0.08374265554950075,2.083941105688078,-1.5765426996106733,-5.237803423148609
0.10458206660638153,1.9448763856117743,-1.6289207338421594,-5.108978875294841
0.12403083046249927,1.8151060369931948,-1.6800105225951079,-4.994839948457383
0.1421818908324312,1.6933275149918976,-1.7299589220796816,-4.8935172466432215
0.1591151659823502,1.578467269008696,-1.7788940945461138,-4.8034654553352
0.17489983867243716,1.4696375391310486,-1.826928749099466,-4.723396800131149
0.18959621406374766,1.3661026805267655,-1.8741627171007773,-4.652228782595081
0.2032572408690153,1.26725296226193,-1.9206850049267281,-4.589042930929147
0.21592977049163462,1.1725841794485643,-1.9665754342360195,-4.533052009253752
0.22765561228612025,1.0816817685394424,-2.011905954328557,-4.483573732974939
0.23847242997151466,0.9942083988050285,-2.0567416916583063,-4.440009522836669
0.24841451395956493,0.9098942298421676,-2.101141786886673,-4.401827210574791
0.2575134562579866,0.8285291855498015,-2.145160058992421,-4.368546905152444
0.26579874811348464,0.7499567113584338,-2.188845528043945,-4.339729459172857
0.273298315227069,0.674068565126943,-2.2322428226356736,-4.314967154625964
0.28003900087833844,0.6008002536003556,-2.2753924941819332,-4.293876365162573
0.28604700341434197,0.5301267754418295,-2.318331257833559,-4.2760920537087
0.2913482711687603,0.4620583777415795,-2.361092178370646,-4.261264030969764
0.2959688549461761,0.396636083866393,-2.403704818680344,-4.249054931433026
0.29993521578484,0.3339268133947868,-2.446195367994674,-4.239139857383845
0.30327448391878786,0.2740179940054394,-2.4885867665685124,-4.231207598120272
0.30601466385884224,0.21701166099635655,-2.530898842549715,-4.224963254529187
0.3081847804688058,0.16301814795793967,-2.5731484750950067,-4.2201319976077345
0.3098149619483852,0.11214958172938143,-2.615349795071084,-4.216463579016856
0.310936457765679,0.06451349100963816,-2.6575144308612524,-4.213737113624163
0.3115815926757754,0.02020690334862814,-2.699651801997494,-4.211765592045751
0.3117836617092617,-0.020688676230419978,-2.7417694579179517,-4.210399576645164
0.3115767749469575,-0.05811104973604749,-2.783873453684403,-4.209529599922364
0.31099566444959703,-0.0920196127229336,-2.8259687496836268,-4.209086918850163
0.3100754683223677,-0.12239601981323392,-2.8680596188721283,-4.209042466287214
0.3088515081242354,-0.14924326622869918,-2.9101500435350003,-4.209404052103807
0.3073590754619484,-0.17258337699079465,-2.9522440840560384,-4.210212066836556
0.3056332416920405,-0.1924540189109785,-2.994346204724404,-4.2115340966903805
0.3037087015029307,-0.2089044244568644,-3.0364615456913078,-4.213458948014419
0.3016196572583621,-0.2219910339670294,-3.078596135171452,-4.2160905944260225
0.2993997469186918,-0.23177322799361177,-3.120757041115712,-4.219542508032735
0.2970820146387557,-0.2383094481145464,-3.1629524661960393,-4.223932736372047
0.29469892015761023,-0.24165391007781895,-3.20519179355976,-4.229379962548471
0.292282381056832,-0.24185401509643653,-3.2474855931852447,-4.236000660490061
0.28986384090586764,-0.238948477346437,-3.2898455997901452,-4.243907347911525
0.2874743561324033,-0.23296611677855897,-3.3322846732692604,-4.253207856875966
0.2851446949646177,-0.2239252194773312,-3.37481675183802,-4.26400548918761
0.28290544276984436,-0.21183334201675327,-3.417456806729896,-4.276399899206851
0.2807871093496768,-0.19668742794172178,-3.4602208057219643,-4.290488544776958
0.2788202350702596,-0.1784741088663618,-3.5031256911697337,-4.3063685612516736
0.277035493981596,-0.1571700749312392,-3.5461893767822503,-4.324138937808148
0.2754637932322836,-0.13274241539446602,-3.5894307661603317,-4.343902904115849
0.27413636907833894,-0.10514884682664341,-3.6328697952014903,-4.365770465250649
0.2730848806100725,-0.07433776161769924,-3.676527499853997,-4.3898610511561325
0.27234150299389553,-0.04024804201964159,-3.7204261103655583,-4.416306272818341
0.2719390225736991,-0.0028085941166390085,-3.7645891730937415,-4.445252800390288
0.27191093663253274,0.03806243827113682,-3.8090417010976445,-4.476865399144212
0.2722915610152441,0.08245881764554255,-3.8538103550890868,-4.511330178085804
0.2731161491916995,0.13048775402845836,-3.898923656869945,-4.54885812428683
0.2744210267319841,0.18227188699330754,-3.9444122381128133,-4.589689014529709
0.27624374560191717,0.23795175986197026,-3.9903091282581102,-4.634095815789122
0.2786232632005369,0.29768884809461993,-4.036650086416001,-4.682389708465291
0.28160015168148306,0.3616692175962196,-4.083473983500654,-4.734925892128912
0.2852168438574453,0.4301079052179373,-4.130823242421943,-4.792110363678398
0.28951792290962464,0.5032541327309694,-4.1787443460587275,-4.854407892739101
0.2945504642369343,0.5813974859650675,-4.227288424986119,-4.922351458616974
0.300364439096585,0.6648752103631713,-4.276511939572289,-4.996553455453214
0.3070131912002167,0.7540807882564915,-4.326477474126821,-5.077719012835419
0.3145539990827816,0.8494739626164634,-4.377254664255175,-5.1666618079212805
0.32304873870894624,0.9515923395927807,-4.428921282334388,-5.264322741634278
0.33256466210487406,1.061064605431514,-4.48156450975073,-5.371791775709565
0.34317530815918923,1.1786251723617542,-4.535282427507826,-5.49033300293396
0.35496155988280675,1.3051296119475237,-4.590185757537165,-5.621412505730837
0.368012856002282,1.441569339158629,-4.646399882594474,-5.766727478257062
0.3824285493938683,1.5890823008898918,-4.704067157377044,-5.928232940985806
0.3983193724027672,1.7489532120248368,-4.763349486786902,-6.108158231594223
0.41580890452301555,1.9225909249253599,-4.824431069102844,-6.30899760248439
0.43503481377226916,2.1114596035162227,-4.887521045127688,-6.533444628477958
0.4561494098074314,2.316920750121283,-4.952855491412468,-6.78421347269075
0.4793186173086442,2.539909048508031,-5.020697626139375,-7.063643197498471
0.5047177077937245,2.780309734014906,-5.09133405811436,-7.372904409991629
0.5325208051338736,3.035828647702825,-5.165063102214276,-7.710519202649724
0.5628790916109018,3.3000828042084818,-5.2421682942407735,-8.069811108808583
0.5958799196529866,3.5597356758731635,-5.32286640532886,-8.435021094528851
0.6314772764117182,3.791153086455649,-5.407216616274148,-8.77670379219243
0.6693888072762747,3.958879317417378,-5.494983654196073,-9.049513334706907
0.7089776004504484,4.020906968121141,-5.585478787543142,-9.199171588653618
0.7491866701316598,3.9449064578383664,-5.677470503429678,-9.184314931329261
0.7886357347100436,3.728441733422081,-5.76931365274297,-9.003619564653714
0.8259201520442644,3.4034425995370197,-5.859349848389507,-8.701266617232866
0.8599545780396346,3.0175333901523222,-5.9463625145618355,-8.341107907626691
0.8901299119411579,2.6114255226118663,-6.029773593638103,-7.976210711476465
0.9162441671672765,2.20992839917692,-6.1095357007528674,-7.6374095524286085
0.9383434511590457,1.8244247704390744,-6.185909796277153,-7.337310672302124
0.9565876988634364,1.458282434436866,-6.259282903000175,-7.077924205250592
0.9711705232078051,1.1109940154772007,-6.330062145052681,-6.856312686449088
0.982280463362577,0.7805379595526998,-6.3986252719171715,-6.667716487296039
0.990085842958104,0.4645399088845976,-6.4653024367901315,-6.507028117777135
0.99473124204695,0.1607848309419198,-6.530372717967903,-6.369396192368273
0.9963390903563691,-0.13258741769018456,-6.5940666798915855,-6.250419423554605
0.9950132161794673,-0.41703079922793246,-6.656570874127132,-6.146164371470798
0.9908429081871879,-0.6936032206861611,-6.71803251784184,-6.053117107576396
0.9839068759803263,-0.963000180478393,-6.778563688917604,-5.9681180398502045
0.9742768741755424,-1.2255955551498203,-6.838244869316106,-5.888300562543329
0.9620209186240443,-1.481483117178275,-6.897127874941539,-5.811041190409871
0.9472060874522615,-1.7305168172236747,-6.9552382868456375,-5.733923089593677
0.9299009192800248,-1.9723496904909013,-7.012577517741574,-5.654712464973426
0.9101774223751158,-2.20647184485135,-7.0691246423913086,-5.571346266728945
0.8881127039266022,-2.4322480193750673,-7.124838105058598,-5.481929300507975
0.8637902237328515,-2.64895498615105,-7.179657398063678,-5.384738699517078
0.837300673871341,-2.855818766776715,-7.233504785058848,-5.278233695558553
0.8087424862035738,-3.0520513339151893,-7.286287122014434,-5.161068661047961
0.778221972864422,-3.236886216992447,-7.337897808624914,-5.032107478005209
0.7458531106944974,-3.4096122572798717,-7.388218883404965,-4.890437427782094
0.7117569881216987,-3.5696046738777714,-7.437123257682786,-4.735380989869574
0.676060941382921,-3.7163526083485903,-7.484477067581482,-4.56650418486068
0.6388974152994351,-3.849482401209549,-7.530142109430089,-4.383620382683204
0.6004025912873396,-3.968775999884922,-7.57397831325692,-4.186788804343718
0.5607148312884904,-4.0741840832057505,-7.615846201300357,-3.9763072545110814
0.519972990456433,-4.16583369107059,-7.655609273845468,-3.7526989176588574
0.47831465354572705,-4.244030352703702,-7.6931362630220566,-3.5166933228381367
0.43587435001869,-4.30925490250908,-7.728303196250438,-3.2692018288074354
0.3927818009935992,-4.362155354211802,-7.760995214538512,-3.011288204090214
0.3491602474514812,-4.403534371063404,-7.791108096579414,-2.7441350781531613
0.30512490374084716,-4.434333022415605,-7.818549447360946,-2.469007219495882
0.2607815735166911,-4.455611652860471,-7.843239519555905,-2.187212747033764
0.21622545698808643,-4.468528803514632,-7.865111647026242,-1.9000634892776804
0.1715401689529401,-4.474319206386923,-7.884112281919019,-1.6088357540372158
0.12679697688907088,-4.4742719109776505,-7.900200639459391,-1.3147327430106046
0.08205425777929437,-4.469709587654125,-7.913347966889497,-1.0188497302398194
0.037357161902753115,-4.461969979870448,-7.923536464191895,-0.7221429214591725
-0.007262537895951361,-4.452390348490974,-7.930757893406486,-0.4254026365932313
-0.0517864413808611,-4.442295574548869,-7.9350119197724185,-0.1292311366878352
-0.0962093971263498,-4.432990374448261,-7.936304231139297,0.16597491384517482
-0.1405393008708324,-4.425755846943676,-7.934644482000845,0.4600376553489629
-0.18479685934026918,-4.421850321741778,-7.930044105447355,0.7530074325019105
-0.22901536255768695,-4.422514210038809,-7.922514031122336,1.0451689883131117
-0.27324050465807503,-4.4289782404904505,-7.9120623412392055,1.337044939039018
-0.31753028706297953,-4.442474037709978,-7.898691891848816,1.629396607994111
-0.3619550274400793,-4.464245346504244,-7.882397925768874,1.923221442080282
-0.4065974809051217,-4.495557115852783,-7.8631657113480715,2.2197446693926737
-0.45155305206364954,-4.537697776800689,-7.840968264654145,2.5204001158200517
-0.49693002983165646,-4.591966782749054,-7.815764263495945,2.826790387323091
-0.542849697659147,-4.659633860087109,-7.787496359622714,3.140608623402424
-0.5894460362600181,-4.741846951207081,-7.75609027338869,3.463490684112824
-0.636864505772089,-4.8394505022828636,-7.721455366547562,3.7967451511327748
-0.6852590107949176,-4.952652690591596,-7.683487915036234,4.140876311589157
-0.7347855377008335,-5.080450646280235,-7.642079151920342,4.494774095025925
-0.7855900441636359,-5.219700118079395,-7.597131410970083,4.854413502584281
-0.8377870453444298,-5.36374787531269,-7.54858727594424,5.21095086095478
-0.8914245240975567,-5.500749992701487,-7.496477767334692,5.548391148181253
-0.9464320240245716,-5.612374384567107,-7.44099385585288,5.841805660709493
-1.0025557678702426,-5.674592153987114,-7.382575799245785,6.058485632519692
-1.0593016894101137,-5.662880464867094,-7.321990942920588,6.165273058444625
-1.1159304940587846,-5.562085639472718,-7.260338212336142,6.142383447343228
-1.1715513504535118,-5.375462594070323,-7.19891437786271,5.995991958762709
-1.225305976394215,-5.124425186537248,-7.138954458275083,5.757721392556446
-1.2765502282595873,-4.8381714301835,-7.081377244349518,5.469942821954088
-1.3249319425614223,-4.542219917206007,-7.026677816129977,5.1696368439500855
-1.3703541417334824,-4.253240891296269,-6.974981447690476,4.881162167302262
-1.412886550646445,-3.9796708505580174,-6.926169826017453,4.617163967698519
-1.4526832591520251,-3.724425917444848,-6.879998186340468,4.38242176323472
-1.4899275183264735,-3.487374902770262,-6.83617396870812,4.17734879456347
