th1 (rad),w1 (rad/s),th2 (rad),w2 (rad/s)
2.531706845118873,-1.203901075312684,4.268026437032989,0.06824211708676324
2.519667834365746,-1.2545861198775818,4.268708858203857,0.13407785727883978
2.5071219731669703,-1.3059260944241347,4.270049636776645,0.19799611825363517
2.494062712222729,-1.3579133576945654,4.272029597959182,0.25989622726056866
2.4804835786457833,-1.410550239274355,4.274628560231787,0.3196749125099664
2.4663780762530396,-1.4638495808365308,4.277825309356887,0.3772259146668446
2.4517395804446744,-1.5178352836970261,4.281597568503555,0.4324394665986755
2.436561227607704,-1.572542864434533,4.2859219631695415,0.4852016389565655
2.420835798963359,-1.6280200204088757,4.290773979559107,0.5353935512364272
2.40455559875927,-1.684327206656459,4.296127915071471,0.5828904504998479
2.3877123266927054,-1.7415382247028035,4.3019568195764695,0.6275606631032503
2.3702969444456774,-1.7997408221305553,4.308232426207502,0.6692644288226509
2.352299536224372,-1.8590372990552604,4.314925070495728,0.7078526319836043
2.333709163233819,-1.9195451137181827,4.322003596815564,0.7431654510226459
2.3145137120966375,-1.9813974738709683,4.3294352513257905,0.7750309568445164
2.2946997373579276,-2.044743893093227,4.337185560894236,0.8032637020604766
2.2742522984269953,-2.1097506811602407,4.345218197914841,0.8276633585109596
2.2531547916153927,-2.176601324484748,4.35349483149995,0.8480134803673781
2.2313887783705453,-2.2454966958301927,4.361974966303624,0.8640804957102074
2.208933811412243,-2.316655011204827,4.370615771260726,0.8756130620641414
2.185767261300195,-2.3903114253522713,4.379371901881368,0.8823419622719166
2.161864147046672,-2.4667171248851636,4.388195321504087,0.8839807675725934
2.1371969757978206,-2.54613773942591,4.397035129179813,0.8802275557792093
2.1117355984035617,-2.6288508461619373,4.405837404737605,0.870768044301055
2.085447089941942,-2.715142292880862,4.414545085180616,0.8552805794385125
2.0582956670131334,-2.805301011085707,4.423097890975001,0.8334435118041146
2.0302426569022765,-2.899611938536738,4.4314323260930415,0.8049455765671218
2.0012465375169093,-2.9983466267967063,4.439481781858713,0.7694999754823969
1.9712630712489423,-3.101751085236982,4.447176781613536,0.7268629080255037
1.9402455603965725,-3.2100304244287265,4.454445410693792,0.6768572961551195
1.9081452561522851,-3.3233299300546033,4.461213983655343,0.6194023569937532
1.8749119568517392,-3.4417123493076387,4.467408007225281,0.5545494571049026
1.8404948333586628,-3.5651314335719753,4.472953501796329,0.48252428234381045
1.804843519022943,-3.693402180112092,4.477778744619767,0.4037747310368587
1.7679094972218221,-3.8261687673698583,4.481816491930136,0.31902305178727813
1.7296478095481236,-3.9628718776614065,4.485006722448008,0.22931959878493383
1.6900190907715096,-4.102717907580449,4.487299918435857,0.13609421976070846
1.648991911695705,-4.244653394772719,4.488660860633464,0.04119985317457789
1.606545377747978,-4.387348705377317,4.48907285916521,-0.053058391994889625
1.5626718906942048,-4.529195456072793,4.488542275245261,-0.14391627364293358
1.5173799361334768,-4.668322105012655,4.487103112508832,-0.22817327963386236
1.4706967150833503,-4.802631488146028,4.484821379712494,-0.3022520648352795
1.42267040020189,-4.929862735302239,4.481798859064141,-0.3622989915390282
1.3733717728488675,-5.047678022025402,4.4781758691487505,-0.4043268239003135
1.3228949926286135,-5.153772156758811,4.474132600909748,-0.42439610327358146
1.2713572710610255,-5.2460002943321395,4.469888639877012,-0.41882656476973934
1.2188972681177042,-5.322516340897275,4.465700374229314,-0.3844246683124115
1.1656721047087315,-5.38191208798897,4.46185612754619,-0.3187085001985639
1.1118529838288418,-5.423345017905044,4.458669042544204,-0.2201076217631196
1.0576195336497913,-5.44664140728309,4.456467966326573,-0.08811370775613431
1.0031531195769605,-5.452361362399847,4.455586829249012,0.07664100960448841
0.948629505952962,-5.441814426921609,4.456353239345057,0.27239545856155695
0.8942113616837459,-5.4170189515861,4.459077193930672,0.49637026508172877
0.8400411721678849,-5.3806054715776055,4.46404089658149,0.7449728107126343
0.7862351174521088,-5.3356729220265215,4.471490624688616,1.0140780630559714
0.7328783882318436,-5.285614719289391,4.481631405319176,1.2993539053787042
0.6800222410389497,-5.2339372508144,4.494624944372963,1.596592716760386
0.6276828685308057,-5.184094412937037,4.5105908715405665,1.9020118662248615
0.5758419244014353,-5.139358162214493,4.529610990202815,2.2124944887065094
0.5244483427792904,-5.102737848213135,4.55173593508988,2.525755819043266
0.4734209642971591,-5.076952672566866,4.5769934932803125,2.8404354989470293
0.42265143757149043,-5.064454345672916,4.605397848269782,3.1561289266252843
0.3720068941147613,-5.067492486730756,4.636959137536035,3.473378718440937
0.3213319692474537,-5.088214011934193,4.671692924720444,3.7936504475293344
0.2704498291281118,-5.128789217809099,4.709629429195738,4.119316218619514
0.21916193695002079,-5.191560536816125,4.750822591381933,4.453667118237762
0.16724633158185953,-5.279213956206736,4.795359262564311,4.800972685829029
0.11445419201979216,-5.39497675839674,4.8433689894226015,5.166602928166072
0.060504424435824766,-5.542847028493487,4.895035018704262,5.557225061533085
0.005075954150889898,-5.727856994409706,4.950607269319593,5.981078903683806
-0.05220261579320716,-5.956355354191462,5.010418058356431,6.448309948575052
-0.11176616933512179,-6.236241522564665,5.074901157842182,6.971267133897555
-0.17412858456076843,-6.576941079755186,5.144613829181157,7.564474827197974
-0.2398979953583203,-6.98853620127416,5.220258577453137,8.243469497609988
-0.3097833573710619,-7.4785327422020895,5.302693272429237,9.020396111683608
-0.3845686847930828,-8.04267575257083,5.392897233546073,9.891369271074316
-0.4649954423187911,-8.642998813645116,5.491810926256816,10.806074647841974
-0.5514254304552423,-9.16837913032541,5.599871672735236,11.612933399731622
-0.6431092217584964,-9.409788496258072,5.716001006732552,12.024663105947267
-0.7372071067210771,-9.169486960473595,5.836247637792025,11.770542794104669
-0.8289019763258131,-8.505590147478696,5.953953065733072,10.936130855032024
-0.9139578778006,-7.6972013219570155,6.063314374283392,9.911628974404628
-0.9909298910201702,-6.946045789469698,6.162430664027438,8.976643449359228
-1.0603903489148672,-6.308495171636622,6.25219709852103,8.208599987835285
-1.1234753006312335,-5.776527782202744,6.334283098399383,7.596439220378464
-1.181240578453261,-5.328241376607952,6.410247490603168,7.110592814094334
-1.2345229922193404,-4.943296264919624,6.481353418744111,6.72410820524552
-1.2839559548685366,-4.605682109028031,6.5485945007965665,6.416301269256689
-1.330012775958817,-4.303271598063392,6.612757513489133,6.17204057931879
-1.3730454919394508,-4.02687606256308,6.674477919282321,5.980380571805057
-1.4133142525650817,-3.7694357833707963,6.734281725000372,5.833390243492966
-1.4510086103987896,-3.525432101103458,6.792615627435302,5.725279179140568
-1.4862629314098241,-3.290488181452116,6.849868419226707,5.651761039574255
-1.5191678132243454,-3.0611128544261903,6.90638602962245,5.6095789197775074
-1.5497789417686072,-2.8345522111492905,6.962481818820224,5.596131602947711
-1.5781244638801002,-2.6087250399476636,7.018443134849702,5.609156665055978
-1.6042117142795769,-2.3822258253287703,7.074534701500261,5.646440840374939
-1.6280339725328645,-2.154381950072417,7.13099910990401,5.705541137699136
-1.6495777920335888,-1.925349596092482,7.188054521281002,5.783514172814575
-1.6688312879945135,-1.696225480151913,7.245889663009147,5.876667921868513
-1.6857935427960327,-1.469139699418125,7.304656342227832,5.980369817380933
-1.700484939790214,-1.2472815151013081,7.364460040401641,6.088964740670044
-1.7129577549412272,-1.0348013585952909,7.425349687808342,6.1958681303217595
-1.72330576852718,-0.8365387398198044,7.48730836911156,6.293890755270098
-1.7316711559253781,-0.6575571021606471,7.550247276664261,6.375810709129348
-1.7382467269469846,-0.5025249340877963,7.614005383755554,6.435133780496463
-1.7432719762878626,-0.3750523552141415,7.678356721560519,6.466896588767137
-1.747022499840004,-0.27714082320557454,7.74302568744819,6.468310686018075
-1.7497939080720597,-0.20889577387593328,7.807708794308371,6.439063145863379
-1.751882865810819,-0.1685785576595362,7.872099425767005,6.381188418593861
-1.7535686513874142,-0.15296566118511895,7.935911309952944,6.298564881473372
-1.7550983079992655,-0.15789369756988517,7.998896958767678,6.196198428800926
-1.7566772449749644,-0.1788376753298959,8.060858943055687,6.079487056330693
-1.7584656217282633,-0.21139910233293022,8.121653813618993,5.953617012312
-1.7605796127515925,-0.2516405989320523,8.181189983742113,5.823162075717147
-1.763096018740913,-0.29626131144039947,8.239421604499285,5.691885386261004
-1.766058631855317,-0.34264351012989774,8.296340458361895,5.5627003535951
-1.769485066956616,-0.3888133980841015,8.351967461897846,5.437734134292924
-1.773373200937457,-0.43335588770812516,8.406344803240776,5.318443425558164
-1.7777067598145382,-0.4753128410830966,8.459529237496358,5.205746397766008
-1.782459888225369,-0.5140832328837726,8.511586701474018,5.100148857381909
-1.7876007205542068,-0.5493348337751333,8.562588190047837,5.001853805928668
-1.793094068891958,-0.5809310285561042,8.612606728107124,4.910850823833815
-1.798903379177519,-0.6088728804216627,8.661715236345463,4.826985819540834
-1.8049921079817357,-0.6332548113649539,8.70998509454087,4.75001362318584
-1.8113246560953853,-0.6542316229308809,8.75748523077273,4.67963652958702
-1.817866972324694,-0.6719945397521514,8.8042815960686,4.615531821287128
-1.8245869177222156,-0.6867542030960239,8.850436914281472,4.557370914995069
-1.831454459753176,-0.6987288881992811,8.896010623431422,4.5048322924652515
-1.8384417486351687,-0.7081365705756051,8.941058946356074,4.457609909922388
-1.8455231143409248,-0.7151897787663652,8.985635045455298,4.415418375382644
-1.8526750121285884,-0.7200924294407495,9.029789229209126,4.3779958533377235
-1.859875936422996,-0.7230380452775297,9.073569187742503,4.345105397513031
-1.8671063168757713,-0.7242089129754422,9.117020241717634,4.316535214433374
-1.8743484060055258,-0.7237758562760455,9.160185593861968,4.292098211426621
-1.8815861645682863,-0.7218983850758326,9.203106575976234,4.27163107134127
-1.8888051484190447,-0.7187250435010937,9.245822886689647,4.25499301316999
-1.8959923988540557,-0.7143938228376521,9.288372816821347,4.242064335275748
-1.9031363370824321,-0.7090325337944515,9.330793460174105,4.232744789955213
-1.9102266624203768,-0.7027590499891561,9.373120908073657,4.226951799943182
-1.9172542529202683,-0.6956813431516403,9.415390426073088,4.224618495535933
-1.9242110663517846,-0.6878972320596375,9.457636611028448,4.225691522515428
-1.931090038672381,-0.6794937629053458,9.499893526253603,4.23012854391221
-1.9378849763014345,-0.6705461296532147,9.542194811692724,4.23789533141186
-1.9445904375979666,-0.661116029992761,9.584573765006843,4.248962314135517
-1.9512015978978943,-0.6512493370151016,9.627063388148198,4.263300423741111
-1.9577140912680453,-0.6409729507406571,9.669696392385609,4.280876046696259
-1.964123820775452,-0.6302906803318814,9.712505152852572,4.301644870452586
-1.9704267275787708,-0.6191780024500808,9.755521601557097,4.325544396192602
-1.9766185076032716,-0.6075755518865227,9.798777045519023,4.352484896938028
-1.982694263122137,-0.5953812394325441,9.842301894488402,4.382338641688719
-1.9886480755164624,-0.5824409760308265,9.88612528090529,4.414927306323193
-1.9944724852767706,-0.5685381339219456,9.930274553968522,4.450007680014988
-2.00015786661599,-0.5533821209566177,9.974774630768671,4.487256087287227
-2.005691687825556,-0.5365968085461509,10.019647191641543,4.526252415061851
-2.0110576559110176,-0.5177100498408064,10.064909715792162,4.566465280277115
-2.0162347564094256,-0.4961461341292143,10.110574368594932,4.607240674562711
-2.0211962177507177,-0.47122366788123443,10.15664677534056,4.647797276300758
-2.02590845442953,-0.4421618829460841,10.203124748103567,4.687232303296775
-2.0303300732589906,-0.4080984703765704,10.249997071136535,4.724541921404365
-2.0344110579627563,-0.3681213664737679,10.297242490350579,4.7586593479721895
-2.038092271627494,-0.3213151509925016,10.3448290838303,4.788511460052074
-2.0413054231374193,-0.2668197758121194,10.39271419843082,4.813090832329564
-2.0439736208955406,-0.20389564355509796,10.440845106754116,4.831535256581406
-2.0460125773310915,-0.1319856449349282,10.48916045931993,4.843202343408167
-2.047332433780441,-0.05076310194893806,10.537592482754011,4.847724736291068
-2.04784006479993,0.03984411106637946,10.586069730116922,4.8450334123544705
-2.0474416236892665,0.1396584824726438,10.634520064240466,4.835342720118238
-2.04604503886454,0.24828557744620905,10.682873491441647,4.819099464542663
-2.043562183090078,0.36516720149061954,10.731064486087075,4.796906400621623
-2.039910511075172,0.48964404766501046,10.77903355009329,4.769435064741172
-2.0350140705985216,0.6210166885678654,10.826727900740702,4.737342773855809
-2.028803903712843,0.7585964679937436,10.87410132847926,4.701204736562263
-2.0212179390329057,0.9017418843277141,10.921113375844882,4.661466669523782
-2.0122005201896287,1.049879882054761,10.96772804254012,4.618418201975166
-2.001701721369081,1.202514129413502,11.013912224559872,4.5721839172724374
-1.989676580074946,1.359223639509325,11.059634063732597,4.522727356805074
-1.9760843436798528,1.5196552635716902,11.104861337300648,4.469863273529218
-1.9608877910441358,1.6835130978161734,11.14955997003594,4.413274231596245
-1.944052660065974,1.8505471002369909,11.193692712351902,4.352528753878222
-1.925547189063604,2.020542473116145,11.237217999890685,4.2870992699250845
-1.9053417643324426,2.1933107583956684,11.280088992589937,4.216378950709277
-1.883408656748486,2.3686831495100638,11.32225278209703,4.139697098523882
-1.8597218252533854,2.5465062272672268,11.363649753082269,4.056333122010345
-1.8342567629807132,2.7266401417511075,11.404213084302372,3.9655293227374804
-1.8069903615632021,2.9089591477155152,11.443868377529746,3.8665028072013827
-1.777900770086047,3.093354323505128,11.48253340560176,3.758456864778152
-1.7469672268509957,3.2797382357833116,11.520117974249542,3.6405921574659588
-1.7141698444931626,3.468051231909754,11.556523895824203,3.5121180849012976
-1.679489332174065,3.65826892837432,11.591645076673215,3.3722647507820587
-1.6429066428903216,3.850410295215913,11.625367724181036,3.2202961015131444
-1.6044025399381625,4.044545484571935,11.657570685196168,3.0555250821367324
-1.5639570850924431,4.240802176401302,11.688125936017535,2.8773321235451306
-1.52154906332843,4.4393686574366455,11.716899257252987,2.6851890296291456
-1.4771553767540637,4.640491025663335,11.743751147549277,2.4786914991457962
-1.4307504664974304,4.8444607041946055,11.768538062540735,2.257605261236551
-1.3823058594554845,5.051586705209697,11.7911141151531,2.0219333265692567
-1.3317899924033876,5.262144649164879,11.811333448418793,1.7720153499035216
-1.2791685459117388,5.4762913386756065,11.829053601917828,1.5086746120975338
-1.2244056325249828,5.693929939140923,11.844140348038803,1.2334332230725997
-1.1674663331335735,5.914507577952901,11.856474680269528,0.9488201499383673
-1.1083212573540444,6.136727316804987,11.865962881768912,0.6587952286175548
-1.0469539841859945,6.358166312516214,11.872550834055087,0.3692960665592572
-0.9833723210608324,6.57482306219782,11.87624379472068,0.0888670000219628
-0.9176240904388542,6.780684552039192,11.8771324647209,-0.17077221282173477
-0.8498172449184622,6.967517302931157,11.875424742592683,-0.39452653424018747
-0.7801420718891506,7.125213284477215,11.871479477250281,-0.5645865919641195
-0.7088899390443785,7.243042652399094,11.86583361133064,-0.6624668194929314
-0.6364595125203876,7.3118793637247705,11.85920894313571,-0.6725095928632218
-0.5633407188831399,7.326794897330606,11.852483847207079,-0.5859509320883186
-0.4900727699098338,7.2887594315964,11.846624337886196,-0.4036664945610725
-0.4171851755938698,7.204343749572719,11.842587672940585,-0.13592002119476343
-0.34514173809814264,7.083496440729125,11.841228472728638,0.2008403174972816
-0.2743067736908514,6.936663570232542,11.84323687590361,0.5883094417223638
-0.20494013798852595,6.772608249352531,11.849119970320833,1.0097517403828014
-0.13721405549500065,6.5974611379380175,11.859217487724662,1.4516718984184735
-0.07123944411562047,6.41475354555736,11.873734206708846,1.904028059103002
-0.007091908660046872,6.225935868549073,11.892774487299876,2.3596871192695343
0.05516745002544386,6.031002348163783,11.916371358492572,2.813679665957454
0.1154774735070817,5.829037419147434,11.944508155152146,3.262540331401441
0.17376784769855602,5.618632050549588,11.97713355846616,3.7038239322711455
0.2299541682040519,5.398179713248525,12.014171797788872,4.135792273782495
0.28393596533653714,5.166079334557282,12.055529720526698,4.557234274404836
0.33559675868211,4.920871635597566,12.101102063270746,4.967378712169079
0.38480547503808565,4.661329082210172,12.150775850392437,5.365865068348085
0.43141876586018735,4.386513949624366,12.204434501075918,5.752745268941611
0.475283905356431,4.0958155082562815,12.261961953765335,6.128494703955249
0.5162420604389938,3.788976438372243,12.323246900804888,6.494013942144283
0.5541318248227162,3.4661202989054853,12.388187040226331,6.850602714908713
0.588793027811771,3.127796358516772,12.456693067375419,7.19988444199269
0.6200709913969388,2.775065740716625,12.528691911795345,7.543651798406932
0.647821648804105,2.4096640864025267,12.604128429779415,7.88359036429623
0.6719182896681303,2.034290402996322,12.682964333422378,8.220818023990786
0.6922611936980935,1.6530856162425027,12.765172513662286,8.555156717964712
0.7087920498605185,1.2723640354936387,12.850724080841934,8.884047623085971
0.7215156902154548,0.9016111851948018,12.939564557072794,9.2010778020695
0.7305318020674029,0.5545910484169152,13.031575335093489,9.494302940347273
0.7360777125515721,0.25002209912818896,13.126518364496961,9.745057204866956
0.738577933542854,0.01070517932923637,13.223968936545631,9.92872097089684
0.7386849853361463,-0.14030032136302942,13.3232561462546,10.019332368294775
0.737281982122516,-0.1866997783615431,13.423449469937548,9.998427816304222
0.7354149843389006,-0.12626464161475665,13.52343374810059,9.864302684847226
0.734152337922753,0.02693749695586517,13.622076774949063,9.634698005134872
0.7344217128923117,0.24784873556768092,13.718423755000412,9.339822835886194
0.7369002002479885,0.509354469521084,13.811821983359273,9.011010925212073
0.7419937449431994,0.7889350866458793,13.901932092611395,8.672688763772548
0.7498830958096582,1.070868655920834,13.98865898024912,8.340197437235322
0.7605917823688665,1.3454349126913572,14.072060954621474,8.02133305669974
0.77404613149578,1.607161737722462,14.15227428518847,7.718892026677285
0.7901177488730047,1.853235953741256,14.229463205455243,7.432825620561242
0.8086501084104173,2.082386742971601,14.303791461660856,7.161685392825327
0.8294739758401333,2.2941927162975237,14.375408315589109,6.903480215864142
0.8524159030031085,2.488682512813431,14.44444311774775,6.656143673440168
0.8773027281312429,2.6661168180687786,14.511004554482152,6.417769376364855
0.9039638963119306,2.8268756307002167,14.5751822482458,6.1867160169987985
0.9322326526189328,2.9714039056798494,14.63704940841579,5.961642122098613
0.9619466916757313,3.1001881157113615,14.696665829636775,5.741504112848889
0.992948572832845,3.21374809835605,14.754080870765264,5.525535975621046
1.0250860538164055,3.312635496183265,14.809336230521476,5.313220339101308
1.058212408778238,3.3974341085499384,14.862468433912488,5.104256155014622
1.0921867498637374,3.468759782426033,14.913510995462634,4.898525746741626
1.1268743476879977,3.527258796728746,14.96249625293005,4.696062725250673
1.1621469356552852,3.573604451879352,15.009456880182556,4.497021620768472
1.1978829801740787,3.608491997242351,15.05442709639024,4.301649739676709
1.2339679001465023,3.632632246983098,15.097443593787007,4.110261568407046
