th1 (rad),w1 (rad/s),th2 (rad),w2 (rad/s),a1 (rad/s^2),a2 (rad/s^2)
2.835248151790789,3.131167747185126,0.24003419915042717,1.2819309138583164,-3.4668235372760297,-0.19767142529190054
2.86655982926264,3.0964995118123655,0.2528535082890103,1.2799541996053974,-3.26532027796605,-0.4427550383950635
2.8975248243807634,3.063846309032705,0.2656530502850643,1.2755266492214468,-3.051492916162607,-0.6561679464244693
2.9281632874710906,3.033331379871079,0.2784083167772788,1.268964969757202,-2.825703536838639,-0.8388666469039422
2.9584966012698013,3.0050743445026926,0.2910979664748508,1.2605763032881627,-2.5883531946786684,-0.9918898825366843
2.9885473447148283,2.979190812555906,0.30370372950773245,1.2506574044627958,-2.339870180832394,-1.1163455865387397
3.0183392528403874,2.955792110747582,0.3162103035523604,1.2394939485974084,-2.0807015455071283,-1.2134011746109394
3.047897173947863,2.9349850952925105,0.3286052430383345,1.227359936851299,-1.811307778801925,-1.2842773845679694
3.0772470249007884,2.9168720175044913,0.34087884240684746,1.2145171630056193,-1.5321605237997797,-1.3302457676139197
3.106415745075833,2.9015504122664937,0.35302401403690364,1.2012147053294802,-1.2437431781545343,-1.35262985954713
3.135431249198498,2.8891129804849482,0.36503616109019843,1.1876884067340088,-0.9465542298182794,-1.3528100006148727
3.1643223790033472,2.8796474381867654,0.37691304515753854,1.17416030672786,-0.6411131656699528,-1.3322317237929964
3.193118853385215,2.8732363065300657,0.38865464822481716,1.16083798948993,-0.32796878522703166,-1.2924175873234356
3.2218512164505158,2.8699566186777954,0.4002630281197165,1.1479138136166958,-0.007709742132051495,-1.2349822828895853
3.2505507826372937,2.869879521256475,0.41174216625588345,1.1355639907878,0.3190228792729518,-1.161650800563097
3.2792495778498583,2.8730697500492046,0.42309780616376147,1.123947482782169,0.6515211689309695,-1.0742793706660103
3.30798027535035,2.8795849617385145,0.43433728099158314,1.1132046890755087,0.9889944291720573,-0.9748788264435732
3.3367761249677352,2.889474906030235,0.44546932788233823,1.103455900811073,1.330551945355378,-0.8656399359671247
3.3656708740280377,2.902780425483789,0.45650388689044896,1.0947995014514016,1.67518485086089,-0.7489601337108956
3.3946986782828756,2.919532273992398,0.46745188190496295,1.0873099001142927,2.0217475262127302,-0.6274709393863328
3.4238940010227994,2.939749749254525,0.47832498090610587,1.0810351907204294,2.3689390661324037,-0.5040651826169131
3.4532914985153447,2.9634391399158493,0.4891353328133102,1.0759945388942602,2.7152854581226125,-0.3819229570652407
3.4829258899145032,2.9905919944970756,0.49989527820225277,1.0721753093236077,3.059123240678831,-0.2645350086263675
3.512831809859474,3.021183226903864,0.5106170312954889,1.069529959237344,3.398585546350471,-0.15572202340031735
3.5430436421285125,3.0551690823673687,0.5213123308878623,1.0679727390033409,3.7315915814405907,-0.05964802911602939
3.5735953329521863,3.092484998181775,0.5319920582778958,1.0673762587121807,4.055840745652036,0.019174131566668837
3.604520182934004,3.133043405638295,0.5426658208650176,1.0675680000278474,4.3688127454153,0.0758875421695614
3.635850616990387,3.176731533092448,0.5533415008652961,1.068326875449543,4.667775196017268,0.10530867013529908
3.667617932321311,3.223409285052621,0.5640247696197915,1.069379962150896,4.949800329599025,0.10196020680360654
3.6998520251718374,3.272907288348611,0.5747185692413005,1.070399564218932,5.211792515011465,0.0601220358500203
3.7325810980553236,3.325025213498726,0.5854225648834898,1.071000784577432,5.4505283335803805,-0.026096963775152686
3.765831350190311,3.37953049683453,0.5961325727292641,1.0707398149396805,5.662710918696706,-0.16266378236513204
3.799626655158656,3.436157606021497,0.6068399708786609,1.0691131771160292,5.845040126605277,-0.35550074602262405
3.8339882312188713,3.49460800728755,0.6175311026498213,1.065558169655803,5.994299822676642,-0.6103382436240892
3.868934311291747,3.5545510055143166,0.6281866843463793,1.059454787219562,6.107463095612764,-0.9325404613356116
3.90447982134689,3.615625636470444,0.6387812322185749,1.050129382606206,6.181815499012516,-1.3269054012650927
3.9406360777115945,3.6774437914605693,0.6492825260446369,1.036860328593555,6.215095411848667,-1.7974424971042382
3.9774105156262003,3.739594745579056,0.6596511293305725,1.0188859036225126,6.2056492615239955,-2.347133721447722
4.014806463081991,3.801651238194296,0.6698399883667976,0.9954145664080354,6.152597644192917,-2.9776871918635255
4.0528229754639336,3.863177214636225,0.679794134030878,0.9656376944894002,6.0560063316842605,-3.6892958231900037
4.091454747610296,3.9237372779530677,0.6894505109757719,0.9287447362575001,5.917053869595402,-4.480417314229657
4.130692120389827,3.9829078166490217,0.698737958338347,0.8839405631152035,5.738185142854815,-5.347595311705709
4.170521198556317,4.04028966807757,0.707577363969499,0.8304646099981464,5.523238227271117,-6.285344402357915
4.210924095237093,4.095522050350281,0.7158820100694805,0.7676111659745672,5.277530490525833,-7.286122929809614
4.251879315740596,4.148297355255539,0.7235581217292262,0.6947499366764711,5.007889772219346,-8.340416719334186
4.293362289293151,4.198376252977733,0.7305056210959909,0.6113457694831292,4.72261808993187,-9.43695288246965
4.3353460518229285,4.2456024338770515,0.7366190787908222,0.5169762406584327,4.43137910861051,-10.563055488074129
4.377802076161699,4.289916224963156,0.7417888411974065,0.4113456857776914,4.145006736536354,-11.705144049838085
4.420701238411331,4.33136629232852,0.7459022980551834,0.2942942452793106,3.875240427551582,-12.849362226817487
4.464014901334616,4.3701186966040355,0.7488452405079765,0.1658006230111357,3.6344023291323198,-13.982309411705423
4.507716088300657,4.406462719895359,0.7505032467380879,0.025977528894081475,3.4350410877166344,-15.091834263238631
4.551780715499611,4.440813130772525,0.7507630220270287,-0.12494081373830485,3.2895753590921637,-16.167839387843276
4.596188846807336,4.473708884363447,0.7495136138896457,-0.28661920761673765,3.209975326574616,-17.203042800694416
4.64092593565097,4.505808637629193,0.7466474218134783,-0.4586496356236818,3.207521661660209,-18.19364621447599
4.685984022027262,4.537883854245795,0.7420609254572414,-0.6405860977684417,3.292678009143897,-19.139873002935353
4.73136286056972,4.570810634337234,0.7356550644795571,-0.8319848277977953,3.4751058764603684,-20.046358694754357
4.777070966913093,4.605561693101838,0.7273352162015791,-1.0324484147453388,3.763841352029335,-20.922401546014964
4.823126583844111,4.643200106622131,0.7170107320541258,-1.2416724302054885,4.1676436307543385,-21.782106857349756
4.869558584910332,4.684876542929675,0.7045940077520709,-1.459493498778986,4.695518337640956,-22.644483111442902
4.916407350339629,4.731831726306084,0.6899990727642811,-1.685938329893415,5.357416250614852,-23.533568524286462
4.96372566760269,4.785405888812233,0.673139689465347,-1.9212740151362797,6.165111663864642,-24.478682504332717
5.011579726490812,4.847057005450879,0.6539269493139842,-2.166060840179607,7.133274804667242,-25.51490851947819
5.06005029654532,4.918389753497552,0.6322663409121881,-2.421209925374389,8.280768823635885,-26.683924480147855
5.109234194080296,5.00119744173391,0.6080542416584442,-2.6880491701758675,9.63222178018132,-28.035304668959494
5.159246168497635,5.097519659535723,0.5811737499566856,-2.9684022168654627,11.219942575766284,-29.62842026481871
5.210221365092992,5.209719085293386,0.551489727788031,-3.26468641951365,13.086254609400722,-31.535049784719238
5.262318555945926,5.340581631387393,0.5188428635928944,-3.580036917360842,15.286281974874093,-33.84273655402208
5.3157243722598,5.493444451136134,0.48304249441928604,-3.918464282901063,17.89106653528194,-36.65869552065381
5.3706588167711615,5.672355116488953,0.4438578515902754,-4.285051238107601,20.990439450843564,-40.11342347825105
5.427382367936051,5.882259510997389,0.4010073392091994,-4.686185472890112,24.693875694013926,-44.361485740348016
5.486204963046025,6.129198267937528,0.35414548448029826,-5.129800330293592,29.124549167625663,-49.572731415350276
5.5474969457254,6.420443759613785,0.3028474811773623,-5.625527644447095,34.39440514288585,-55.89682110616336
5.611701383321538,6.764387811042644,0.24659220473289137,-6.184495855508729,40.53041977173345,-63.35922324191845
5.679345261431965,7.169692008759978,0.18474724617780408,-6.818088087927913,47.28287509015236,-71.59168129995459
5.751042181519565,7.642520759661502,0.11656636529852495,-7.534004900927459,53.67387841426431,-79.1983209522166
5.82746738911618,8.179259543804145,0.04122631628925036,-8.325988110449625,57.09052991443944,-82.48311213863548
5.909259984554221,8.75016484294854,-0.042033564815245894,-9.15081923183598,52.10823626149615,-73.800221639395
5.996761632983707,9.271247205563501,-0.1335417571336057,-9.88882144822993,31.35008490818144,-42.76959481361775
6.089474105039342,9.584748054645315,-0.232429971615905,-10.316517396366107,-6.146686745916776,11.955543498622024
6.185321585585795,9.523281187186148,-0.3355951455795661,-10.196961961379888,-44.024052157110226,67.3713438102538
6.2805543974576565,9.083040665615046,-0.43756476519336496,-9.52324852327735,-62.37881800538726,95.48591733913211
6.371384804113807,8.459252485561173,-0.5327972504261385,-8.568389349886028,-61.52597584603934,96.65316613921745
6.455977328969419,7.84399272710078,-0.6184811439249988,-7.601857688493853,-52.612488286493544,86.4273389240462
6.534417256240427,7.3178678442358445,-0.6944997208099373,-6.737584299253391,-42.691414932281546,74.67889381612719
6.607595934682785,6.890953694913029,-0.7618755638024712,-5.990795361092119,-34.058979348570155,64.64840432691688
6.676505471631915,6.550363901427327,-0.8217835174133924,-5.34431131782295,-27.035188353306754,56.81337742956918
6.742009110646189,6.28001201789426,-0.8752266305916219,-4.776177543527258,-21.394826730424185,50.87976932115284
6.804809230825131,6.0660637505900175,-0.9229884060268945,-4.26737985031573,-16.838215619161076,46.43825132584108
6.865469868331031,5.8976815943984064,-0.9656622045300518,-3.802997337057319,-13.111595697523757,43.13290957366812
6.924446684275015,5.766565637423169,-1.003692177900625,-3.371668241320638,-10.023710541748338,40.685146221455
6.9821123406492465,5.666328532005686,-1.0374088603138314,-2.964816779106088,-7.436732499764344,38.88157920141142
7.038775625969303,5.591961207008042,-1.0670570281048923,-2.576000987091974,-5.2537128540572136,37.55701950608973
7.0946952380393835,5.53942407846747,-1.092817037975812,-2.2004307920310766,-3.407906695796413,36.580222120200254
7.150089478824058,5.505345011509506,-1.1148213458961227,-1.8346285708290742,-1.8545991913141298,35.843529663920656
7.2051429289391535,5.486799019596365,-1.1331676316044135,-1.4761932741898676,-0.5649269376708645,35.25592114180767
7.260010919135117,5.4811497502196564,-1.147929564346312,-1.123634062771791,0.47892866839882786,34.738753144571206
7.3148224166373135,5.485939036903645,-1.15916590497403,-0.7762465313260789,1.287659864336254,34.22356996965589
7.36968180700635,5.4988156355470075,-1.1669283702872908,-0.43401083162952,1.868166018766491,33.651461465990344
7.424669963361819,5.517497295734672,-1.171268478603586,-0.09749621696961652,2.2264402355924564,32.973497187492676
7.479844936319166,5.539761698090596,-1.1722434407732822,0.23223875490531026,2.3700139494324346,32.15177129676265
7.535242553300072,5.563461837584921,-1.1699210532242292,0.5537564678729368,2.309873865184589,31.160587474731702
7.590877171675921,5.586560576236766,-1.1643834885454998,0.8653623426202538,2.0617276517458687,29.987334112842447
7.6467427774382895,5.607177852754225,-1.1557298651192973,1.1652356837486781,1.6465144746056217,28.63267557662954
7.702814555965832,5.623642997500281,-1.1440775082818104,1.4515624395149735,1.0901277218605254,27.109823791317993
7.759050985940834,5.634544274718886,-1.1295618838866608,1.7226606774281534,0.42242033774286486,25.44283914729792
7.815396428688023,5.638768478096314,-1.1123352771123793,1.9770890689011327,-0.3243320219779041,23.66410297862398
7.871784113468986,5.635525157876535,-1.092564386423368,2.2137300986873725,-1.117259324734021,21.811259999901907
7.928139365047752,5.624352564629195,-1.0704270854364943,2.4318426986863915,-1.9247413935202993,19.924011866045994
7.984382890694044,5.605105150693992,-1.0461086584496304,2.6310828173468512,-2.7180224193194156,18.041138862884576
8.040433942200984,5.577924926500798,-1.0197978302761619,2.811494205975697,-3.472422388669611,16.19804792721687
8.096213191465992,5.543200702614102,-0.9916828882164049,2.973474685247866,-4.1680636692471795,14.425022555661188
8.151645198492133,5.50152006592163,-0.9619481413639263,3.117724910804478,-4.790118062277096,12.746219966924071
8.20666039915135,5.453618885298859,-0.9307708922558815,3.2451871104737187,-5.328644921437455,11.179352641311624
8.261196588004339,5.400332436084484,-0.8983190211511443,3.356980636886835,-5.77812719226698,9.735921116254222
8.315199912365184,5.342551164161814,-0.864749214782276,3.454339848049377,-6.136821161856534,8.42183495216955
8.368625424006803,5.281182952543249,-0.8302058163017821,3.5385581975710725,-6.406024546375283,7.238261691654378
8.421437253532234,5.217122707079496,-0.7948202343260714,3.6109408144876163,-6.589345176205011,6.182567724093178
8.47360848060303,5.151229255317446,-0.7587108261811952,3.672766491728548,-6.69202674707638,5.2492487120124816
8.525120773156205,5.084308987846683,-0.7219831612639097,3.7252589788486725,-6.72036424669823,4.430781811258403
8.575963863034671,5.017105345379701,-0.684730571475423,3.7695667969612567,-6.6812225497458195,3.718361941518317
8.626134916488468,4.950293119882242,-0.6470349035058105,3.80675041637644,-6.581658110863447,3.102507475914827
8.67563784768729,4.884476538773607,-0.6089673993420461,3.8377754911355884,-6.428635234491122,2.5735366732070495
8.724482613075025,4.820190186428696,-0.5705896444306903,3.863510857867659,-6.228824027142969,2.1219259188557857
8.772684514939312,4.757901946157266,-0.5319545358520137,3.884730117056217,-5.988465672036715,1.7385657914916501
8.820263534400885,4.698017289436899,-0.4931072346814515,3.9021157749711333,-5.713291059364089,1.4149325691158154
8.867243707295254,4.640884378843258,-0.4540860769317402,3.9162651006622915,-5.408480237630188,1.1431922632369809
8.913652551083686,4.586799576466956,-0.4149234259251173,3.9276970232946615,-5.0786520427141575,0.916252557139057
8.959520546848356,4.536013056039814,-0.37564645569217064,3.9368595488660523,-4.727875238953612,0.7277757823172495
9.004880677408755,4.488734303650278,-0.33627786020351014,3.9441373066892247,-4.359694355643372,0.5721637162360294
9.049768020445258,4.445137360093844,-0.29683648713661787,3.949858943851585,-3.977165017519669,0.4445227705457142
9.094219394046197,4.405365709918648,-0.257337897698102,3.9543041715570424,-3.5828949139399486,0.3406161853567894
9.138273051145383,4.369536760779249,-0.21779485598253157,3.9577103334106103,-3.17908763449795,0.2568081970289549
9.181968418753176,4.337745884434269,-0.17821775264842546,3.9602784153808996,-2.7675874458663867,0.19000380216635815
9.225345877597519,4.310070009975605,-0.13861496849461646,3.9621784534025632,-2.3499237314450916,0.13758667201975694
9.268446577697276,4.286570772661154,-0.09899318396059083,3.963554320122761,-1.9273542987924752,0.09735694111916567
9.311312285423888,4.267297229673229,-0.059357640759363214,3.9645278895339526,-1.5009071139520844,0.0674699609827684
9.35398525772062,4.252288158533708,-0.01971236186402369,3.96520258914378,-1.0714202762461575,0.04637663562114167
9.396508139305956,4.241573955771247,0.01993966402741411,3.9656663554999914,-0.6395802264808456,0.032765606201268165
9.438923878863669,4.235178153506438,0.059596327582414024,3.965994011562004,-0.2059583055627565,0.02550729891333789
9.481275660398733,4.23311857045081,0.09925626769803406,3.9662490845511376,0.22895413527866398,0.023599669436179836
9.523606846103242,4.235408111803597,0.13891875854354543,3.9664850812454993,0.6647118153800851,0.02611535108101708
9.565960927221278,4.242055229957398,0.17858360935600043,3.9667462347563096,1.1008825027475622,0.03214982786187788
9.608381479520851,4.253064054984874,0.21825107170356353,3.9670677330349284,1.537014572315535,0.040770198499888846
9.6509121200707,4.268434200708029,0.2579217490339128,3.9674754350199275,1.9726048137636563,0.05096406630344208
9.69359646207778,4.288160248845665,0.2975965033841121,3.9679850756829618,2.40706615243324,0.061588079648386626
9.736478064566237,4.312230910369998,0.3372763541409417,3.9686009564794458,2.8396949484368923,0.07131565792862243
9.779600373669936,4.340627859854367,0.37696236370573616,3.969314113058732,3.2696375493167658,0.07858347057006305
9.82300665226848,4.373324235347535,0.41665550483632346,3.9700999477644325,3.6958557934414342,0.08153629691250086
9.866739894621956,4.410282793281949,0.4563565043139678,3.9709153107335577,4.1170911992461505,0.0779699901982952
9.910842722554776,4.45145370527441,0.4960656574213034,3.971695010635541,4.531827635778743,0.06527241037734414
9.95535725960752,4.496771981632198,0.5357826075276588,3.9723477347393144,4.938252361325409,0.040362392194636686
10.000324979423842,4.546154505245451,0.575506084875052,3.972751358661261,5.33421545024721,-0.00037290477799212625
10.045786524476297,4.599496659747923,0.6152335984616646,3.972747629613481,5.7171878177366,-0.061141536330249616
10.091781491073776,4.656668537925289,0.6549610747577994,3.9721362142501784,6.084218315860074,-0.14680996667574248
10.138348176453029,4.717510721083889,0.6946824369003012,3.970668114583421,6.4318907341118985,-0.2629640068182712
10.185523283663867,4.781829628425008,0.7343891180461354,3.968038474515238,6.756282020594238,-0.4159647226763665
10.233341579948117,4.84939244863095,0.7740695027912877,3.9638788272884744,7.052923677456112,-0.6129954313186351
10.281835504434428,4.9199216854055114,0.8137082910641724,3.957748872975288,7.316769111972083,-0.8620945188120613
10.331034721288482,4.993089376525233,0.8532857797939253,3.9491279277871674,7.542170779989418,-1.1721671146214634
10.380965615053734,5.068511084325126,0.8927770590717969,3.9374062566409527,7.722872275816187,-1.5529666261847073
10.431650725896985,5.145739807083288,0.9321511216382065,3.9218765903791057,7.852022124673602,-2.015034786812833
10.483108123967817,5.224260028330024,0.9713698875419975,3.9017262425109775,7.9222179169648825,-2.569586272372234
10.535350724251117,5.303482207499672,1.0103871499671073,3.876030379787255,7.925591534876518,-3.2283212649590944
10.588385546326114,5.382738122848438,1.0491474537649799,3.843747167137664,7.853948425182452,-4.003146899617031
10.642212927554597,5.461277607100262,1.0875849254363565,3.803715698141494,7.6989759022532835,-4.905786849523645
10.6968257036256,5.5382673661227955,1.1256220824177714,3.7546578296462574,7.452536870114244,-5.947258197201525
10.752208377286827,5.6127927348239375,1.163168660714234,3.695185247674242,7.107065431262707,-7.1371973658212
10.808336304635066,5.683863389136564,1.2001205131909765,3.62381327401603,6.65607860483887,-8.48302378382266
10.865174938526431,5.750424175184953,1.2363586459311366,3.5389830361778034,6.09481251062993,-9.988942974402697
10.922679180278282,5.811372300291253,1.2717484762929148,3.4390936064337763,5.420980392773712,-11.654811808459229
10.980792903281195,5.86558210421899,1.3061394123572525,3.322545488349184,4.635632341865222,-13.474919184866359
11.039448724323385,5.911938427637642,1.3393648672407443,3.1877962965005207,3.7440717248252477,-15.436775505857492
11.098568108599762,5.949379144885894,1.3712428302057496,3.0334285414419457,2.7567517946442193,-17.52005148961654
11.15806190004862,5.976946662832336,1.401577115620169,2.8582280265457802,1.6900408795866921,-19.69585455526826
11.217831366676943,5.9938470716282035,1.430159395885627,2.6612694809930977,0.5667125946494808,-21.926567550905133
11.277769837393226,5.999514197574698,1.456772090695558,2.4420038054840463,-0.5840008353614154,-24.166483375997473
