th1 (rad),w1 (rad/s),th2 (rad),w2 (rad/s)
2.4757419399719383,1.516263592797811,5.266968125364662,-1.3391370438985213
2.490904575899916,1.4768287837001377,5.253576754925676,-1.3007554248117081
2.5056728637369177,1.4399516248735116,5.24056920067756,-1.259089131171933
2.5200723799856526,1.4054253014178957,5.227978309365841,-1.2143562659860105
2.5341266329998318,1.3730491698311398,5.215834746705981,-1.1667751285825907
2.547857124698143,1.3426327884982043,5.204166995420155,-1.1165583194190765
2.561283452583125,1.3139987735769707,5.193001412225964,-1.0639085341254078
2.574423440318895,1.2869846622504826,5.18236232688471,-1.0090157776154907
2.5872932869414,1.2614439690348889,5.172272169108555,-0.9520557275885002
2.5999077266317485,1.2372466099561412,5.16275161183267,-0.8931889949860842
2.6122801927313097,1.2142788500803636,5.153819721882809,-0.832561058325781
2.6244229812321134,1.192442906734246,5.145494111299551,-0.7703026828788586
2.636347410299456,1.1716563169879977,5.137791084470763,-0.7065306700339608
2.648063973469336,1.1518511556086681,5.130725777770423,-0.641348814199005
2.6595824850254224,1.1329731698308088,5.124312289628433,-0.5748489728195629
2.6709122167237305,1.1149808803965842,5.118563799900238,-0.507112178989219
2.682062025527696,1.0978446844305694,5.113492678110346,-0.43820974571738114
2.693040472372002,1.0815459846284299,5.109110580653172,-0.36820432655038593
2.703855932218286,1.0660763606187562,5.105428537387668,-0.297150909419414
2.7145166958244737,1.0514367918223857,5.1024570282934745,-0.2250977298701481
2.7250310637426978,1.037636936306081,5.100206050994773,-0.15208709675396676
2.7354074331057587,1.0246944666614035,5.098685180027233,-0.07815612851593426
2.745654377772373,1.0126344615334422,5.097903618742073,-0.0033374018200114375
2.7557807223877075,1.0014888498241374,5.0978702447238735,0.07234048324517389
2.7657956108859487,0.9912959035937927,5.098593649556325,0.14885241545486172
2.775708569921887,0.9820997751158247,5.100082173710874,0.22617635522323476
2.785529567673045,0.9739500732732188,5.102343937263106,0.3042929802021094
2.7952690684057773,0.9669014744193619,5.105386867065127,0.3831853856822621
2.804938083149971,0.9610133628837464,5.109218720921949,0.4628388316183035
2.8145482167788085,0.9563494964264379,5.113847109238132,0.5432405280688616
2.8241117117430727,0.9529776920912714,5.119279514518821,0.6243794508929609
2.8336414886639854,0.9509695280454117,5.12552330902775,0.7062461796357453
2.8431511839444394,0.9504000571003994,5.132585770824107,0.7888327496487746
2.8526551845154433,0.9513475276726517,5.140474098320595,0.8721325106076365
2.86216865979217,0.9538931079509908,5.149195423426672,0.9561399837050033
2.87170759087168,0.9581206089914202,5.158756823263722,1.040850709908209
2.881288796961594,0.9641162023555018,5.169165330362804,1.1262610817789198
2.890929958985149,0.9719681277525881,5.180427941180594,1.2123681514641105
2.900649640262675,0.9817663859457785,5.192551622695235,1.299169407591314
2.9104673041221325,0.9936024119484786,5.205543316771148,1.3866625139492927
2.9204033282416173,1.0075687232884856,5.219409941910641,1.47484500302369
2.930479015474502,1.0237585378694996,5.234158391940878,1.563713917705539
2.940716600853197,1.0422653557405057,5.249795531117933,1.6532653948226068
2.9511392544106023,1.0631824989213337,5.266328185066159,1.7434941845880123
2.9617710793998158,1.0866026033632352,5.2837631269120395,1.834393100650905
2.972637105433448,1.1126170571878007,5.3021070579185485,1.9259523962089635
2.983763276005326,1.14131537959326,5.321366581880638,2.018159062645815
2.9951764298012584,1.1727845352973696,5.341548172507096,2.110996048436463
3.0069042751542323,1.2071081801590497,5.362658132991461,2.2044413976719595
3.018975356955823,1.2443658347489521,5.384702546968181,2.2984673095437627
3.0314190153033125,1.2846319841860934,5.407687220063618,2.3930391225496104
3.0442653351451736,1.3279751045858468,5.431617611289115,2.48811423008147
3.0575450861910323,1.3744566190298013,5.456498753589929,2.583640937465621
3.0712896523813304,1.424129789113628,5.482335162964585,2.679557274459561
3.085530950272467,1.4770385518779665,5.5091307357091805,2.7757897816565356
3.1003013357912463,1.5332163162722505,5.536888633525746,2.872252294154024
3.1156334989539687,1.5926847381939757,5.565611156467286,2.9688447511053186
3.1315603463359083,1.6554524984846686,5.595299603978339,3.0654520652295125
3.148114871320755,1.7215141138819408,5.625954124630634,3.1619430917677156
3.1653300124595747,1.7908488165815484,5.657573555548311,3.2581697414236426
3.1832385006253903,1.8634195434274383,5.690155252962547,3.3539662861104285
3.201872696059665,1.9391720804081207,5.723694915823651,3.44914890935563
3.221264416863746,2.018034411600495,5.758186404917207,3.5435155544359507
3.2414447609797508,2.0999163234093903,5.793621560461566,3.6368461221210295
3.2624439242138448,2.1847093143099103,5.829990021682776,3.7289030656959934
3.284291017356944,2.2722868567273022,5.867279052339736,3.819432423150668
3.307013885924217,2.3625050506711136,5.905473376571242,3.908165314634811
3.3306389364309283,2.455203697901959,5.94455502971759,3.994819917248371
3.355190973409948,2.550207810592295,5.984503228890074,4.079103909009914
3.380693051515871,2.6473295497819085,6.025294267980173,4.160717349826784
3.4071663470136904,2.746370566914147,6.066901441478441,4.239355940287973
3.4346300526828317,2.8471246972515205,6.109295000881321,4.314714570352814
3.4631012996553467,2.9493809282788988,6.152442146584849,4.386491041150852
3.4925951089381355,3.052926540915534,6.196307056996357,4.454389816087919
3.5231243743472906,3.1575502983110355,6.240850955157236,4.518125634386981
3.554699877330401,3.2630455381087713,6.286032211501106,4.577426803173667
3.5873303327114887,3.3692130111215284,6.331806479532843,4.632037975097373
3.621022462822704,3.47586330385792,6.3781268592838165,4.681722218649015
3.6557810958612835,3.5828186852366475,6.424944081470307,4.726262198539336
3.69160928271365,3.6899142294564076,6.472206703455701,4.765460303719923
3.728508425008214,3.796998086971379,6.5198613064929,4.7991375900688995
3.766478405877928,3.903930802800247,6.567852682393589,4.827131441949423
3.8055177139059304,4.010583614371376,6.616123996813084,4.8492918998287555
3.8456235500496443,4.1168356978522365,6.664616915811371,4.865476647777467
3.8867919070281665,4.222570370451005,6.713271682289146,4.875544702958825
3.9290176107326764,4.327670294781419,6.762027129318734,4.879348897658884
3.9722943136804907,4.432011768840368,6.810820618295323,4.876727292262648
4.016614431368894,4.535458220994546,6.8595878912179495,4.867493705085874
4.06196901357884,4.637853064016024,6.908262828268808,4.851427593406377
4.108347544219,4.739012096957312,6.956777104202872,4.828263571660929
4.155737665188573,4.838715680640363,7.005059739919481,4.797680910594873
4.204124821994976,4.936700954484033,7.05303654902543,4.759293428541248
4.253491831539817,5.032654412311684,7.1006294833108425,4.712640266112757
4.303818375662933,5.126205215444237,7.1477558859719705,4.6571781305374165
4.355080427817375,5.216919694678652,7.194327667277345,4.592275705690392
4.4072496247641615,5.304297578766191,7.240250424334249,4.517211045131595
4.460292600551823,5.387770582859837,7.285422534785565,4.431172889524764
4.5141703063804215,5.466704088797237,7.3297342636808125,4.333266960876929
4.568837347268394,5.54040273664688,7.373066933289582,4.222528359028907
4.624241374634862,5.6081208025842795,7.415292216879871,4.097941184754227
4.680322582660705,5.669078231976637,7.456271628727413,3.958466391359058
4.737013364980471,5.722483090073072,7.495856292641004,3.8030785663468287
4.794238195881202,5.76756094174337,7.533887078304472,3.630811807440162
4.8519138052986355,5.803591233285471,7.570195196378874,3.4408140341055686
4.90994971763149,5.829950093821454,7.60460333671993,3.2324079480249215
4.968249218569705,5.846158102673293,7.636927416200179,3.0051554618272625
5.0267107995964375,5.851930535816786,7.666978970818452,2.7589208779585848
5.085230104954605,5.8472265329518045,7.694568179598037,2.4939266466812122
5.143702370284124,5.832292717313872,7.719507446064849,2.210794492597174
5.202025297457262,5.807696311867004,7.7416153909908205,1.9105644587739532
5.260102260575932,5.774342993891055,7.76072103557856,1.5946853276511217
5.317845690514843,5.7334758060628195,7.776667888855071,1.2649721243366057
5.375180448575471,5.686653418308305,7.789317610098437,0.9235298799713265
5.432046982758554,5.635708697661386,7.7985529088981504,0.5726470505782262
5.488404069735168,5.58269144532338,7.8042793794039325,0.21466614596155426
5.544230984188402,5.529801712350048,7.806426040863548,-0.14815772022423918
5.599529001311902,5.479321747491179,7.804944463661306,-0.5137982979097733
5.654322218786814,5.4335550155001995,7.799806480682208,-0.8805884738434127
5.708657768941816,5.394779839381619,7.791000595943774,-1.247331031776715
5.762605567335632,5.365223390646131,7.778527285626007,-1.6133858691911838
5.8162578012420925,5.347059523658065,7.762393426934095,-1.9787344176075718
5.869728396478673,5.342431909410736,7.7426060827580185,-2.3440264131165014
5.923152715572781,5.3535025264873175,7.719165818626854,-2.710617594120856
5.9766877408376535,5.38252503274161,7.692059642685646,-3.0806091329172327
6.03051299116507,5.431942813732422,7.661253551356474,-3.4569006732336316
6.084832419302394,5.504512215939649,7.626684544624137,-3.8432687907694016
6.13987754146179,5.60345179999659,7.588251856716443,-4.2444811001413125
6.195912059461756,5.732616626993697,7.54580704571503,-4.666451333619453
6.253238225731693,5.896688620913482,7.499142532378835,-5.116427482234308
6.312205111940829,6.1013505014997955,7.447978257556493,-5.603170732379247
6.3732186169558265,6.353349146318446,7.3919465502327,-6.1369962649694765
6.436752108419011,6.660201440433065,7.330576587583005,-6.72933398806654
6.503354122823342,7.028932423731416,7.26328324770234,-7.390961103820981
6.573643447060656,7.462429313554059,7.18937363666413,-8.12693291045959
6.6482677401961965,7.950488840677015,7.108104307559534,-8.924130636517338
6.727772628602967,8.451222977539887,7.018863001194361,-9.72535956958096
6.812284858378366,8.863755356001874,6.921609405498551,-10.3912864101883
6.900922411938384,9.023989920592385,6.817696541396669,-10.694686688852235
6.991162311144308,8.7992307868266,6.710749674508146,-10.452934110536095
7.079154619012574,8.24497296325893,6.606220333402785,-9.746681687867861
7.161604348645163,7.565268727358775,6.508753516524107,-8.863047237193147
7.237257035918751,6.917494617595874,6.4201230441521755,-8.022737555884001
7.3064319820947095,6.356782384133232,6.339895668593336,-7.3034835080165195
7.369999805936041,5.8845238446503245,6.266860833513171,-6.70819066781202
7.428845044382545,5.486462349165241,6.199778926835051,-6.218050823242212
7.483709667874197,5.14709902975607,6.137598418602629,-5.812552788815571
7.5351806581717575,4.85341401591338,6.079472890714473,-5.47463560469872
7.583714798330892,4.595208870273949,6.024726534667486,-5.191160698380651
7.629666887033631,4.364624416376792,5.972814927683679,-4.952245380702229
7.673313131197399,4.155580208991356,5.923292473876656,-4.750487785966706
7.714868933287312,3.963313955836832,5.875787596016989,-4.5803269592307
7.754502072845681,3.7840384205371906,5.8299843264246825,-4.437559908527952
7.792342457051053,3.6146954671767344,5.785608727339403,-4.318985322932693
7.82848941172282,3.452783532749689,5.742418874110076,-4.2221389802989435
7.863017247050316,3.296239519150756,5.700197484307086,-4.145092277270672
7.895979642241824,3.14336143091099,5.65874656153438,-4.086292703369543
7.927413256550934,2.9927622513661687,5.617883634500684,-4.044431182682618
7.957340879064596,2.8433483253448215,5.5774393226738574,-4.0183259706935335
7.985774362318044,2.6943170298873826,5.5372560629669225,-4.0068166963494365
8.012717532616918,2.5451689182824015,5.497187896003428,-4.00866568384935
8.038169221799741,2.3957289532302797,5.457101239164935,-4.022467241081382
8.062126511332044,2.2461700895946977,5.416876566754121,-4.046569291196941
8.084588212227992,2.097030675265394,5.376410873842151,-4.07901533345367
8.105558518980645,1.9492155309736015,5.335620720507615,-4.1175175860197495
8.125050674290382,1.803970076276838,5.2944455446474175,-4.159473172188781
8.14309037505315,1.6628185924577077,5.25285081292553,-4.202033016910519
8.159718560977728,1.5274625365895484,5.210830482756425,-4.242226698987086
8.174993186343624,1.3996427896164114,5.168408215766553,-4.2771359784599605
8.188989614239787,1.2809794627554538,5.125636855981954,-4.304097091730794
8.201799408867341,1.1728115415899112,5.082595885064646,-4.320901079508627
8.21352752428324,1.0760627167767811,5.039386874269559,-4.32595697715842
8.224288151451008,0.9911567467965238,4.996127304497975,-4.318387720620028
8.234199718918973,0.91799574291665,4.952943427291775,-4.298042605808465
8.24337967634814,0.856000970998632,4.90996300123369,-4.265428681376842
8.251939686058126,0.8042028894208119,4.867308714419922,-4.221580176647191
8.259981714952334,0.7613592775007689,4.82509291265345,-4.167894728584831
8.26759530772734,0.7260790707926067,4.783413965367602,-4.105965955307465
8.274856098435267,0.6969337968386992,4.742354305814527,-4.037435597806956
8.281825436403654,0.6725455948915854,4.701979949836458,-3.963878744781351
8.28855089235257,0.6516479514061907,4.662341162388644,-3.8867262004904437
8.295067371866631,0.6331207082204816,4.62347390038374,-3.8072210955869137
8.301398578948836,0.6160040157892708,4.58540168942787,-3.7264030172211857
8.307558619106729,0.5994969875591941,4.548137659255659,-3.645111778717979
8.313553588982321,0.582946522500614,4.511686541468479,-3.564003538362926
8.319383054207327,0.565830770703126,4.47604650608485,-3.4835734156069402
8.325041361914359,0.5477405208842722,4.44121077192878,-3.404180394506823
8.330518767123202,0.5283606825766867,4.407168967983712,-3.326071780832583
8.335802373948969,0.5074531488524131,4.373908250175386,-3.2494056397876867
8.340876905437494,0.4848416822597922,4.341414193777509,-3.1742704678252824
8.345725322260092,0.4603990384049601,4.309671489099256,-3.1007018918094227
8.350329312644142,0.4340362804344327,4.278664470181162,-3.02869650991355
8.354669675448486,0.4056940954272631,4.2483775050820265,-2.9582231568028994
8.358726616402759,0.3753358601663292,4.218795273513997,-2.8892319443144463
8.362479975004423,0.3429421887084815,4.189902954070853,-2.8216614374965787
8.365909396891507,0.3085067065419307,4.161686339695887,-2.755444301577308
8.368994463956925,0.27203282209536916,4.134131896680114,-2.6905117156553997
8.37171479217788,0.23353129741884646,4.10722677952356,-2.626796804238282
8.374050105152069,0.19301845107515125,4.080958811481177,-2.5642372941428397
8.37598028966282,0.15051485509058538,4.055316438539749,-2.5027775647354096
8.377485438213727,0.10604441309166643,4.030288662892395,-2.442370225230279
8.378545882344643,0.05963372822133315,4.005864960640092,-2.3829773239858483
8.379142219626855,0.011311687264971775,3.9820351874002333,-2.324571271094016
8.379255336499504,-0.03889079797718695,3.958789474689293,-2.267135536470963
8.378866428519732,-0.09094093918076468,3.9361181193245836,-2.2106651704748073
8.377957019127924,-0.14480414738047193,3.9140114676198356,-2.155167182164749
8.37650897765412,-0.20044406603105158,3.8924597957981883,-2.100660801105943
8.37450453699381,-0.2578225847416389,3.8714531877871288,-2.0471776416191703
8.371926311146392,-0.31689985202535575,3.850981411370937,-1.9947617831555817
8.368757312626139,-0.3776343011275479,3.831033793539381,-1.9434697766945614
8.364980969614864,-0.43998269938640655,3.8115990957724355,-1.8933705844263846
8.360581142621,-0.5039002284783294,3.7926653899281715,-1.844545458248742
8.355542140336215,-0.5693406001857839,3.774219935345684,-1.7970877615745529
8.349848734334358,-0.6362562099082252,3.7562490577299386,-1.7511027384461932
8.343486172235275,-0.7045983279531136,3.7387380303454765,-1.7067072338316989
8.336440188955745,-0.7743173266507054,3.7216709580071594,-1.6640293691150878
8.328697015689238,-0.8453629395046767,3.7050306643160087,-1.6232081770756783
8.320243386294191,-0.9176845469033967,3.688798582545252,-1.5843932009841433
8.311066540825157,-0.9912314813638317,3.6729546505354103,-1.5477440627422618
8.30115422601152,-1.065953343856262,3.6574772099079875,-1.513430005186098
8.290494692572956,-1.1418003214601666,3.6423429098561266,-1.4816294136958803
8.279076689358355,-1.2187234954273154,3.6275266157191677,-1.4525293220567672
8.266889454404081,-1.2966751276743813,3.6130013224986,-1.4263249070483202
8.253922703127337,-1.375608912790022,3.598738073428117,-1.4032189754706133
8.240166613999437,-1.4554801818147698,3.584705883673411,-1.3834214462133478
8.225611812181288,-1.536246043329123,3.5708716692112774,-1.3671488285210573
8.210249351747997,-1.6178654467579494,3.557200180926067,-1.3546236957906874
8.194070697280418,-1.7002991522594588,3.54365394396816,-1.3460741520545776
8.177067705757823,-1.7835095911072145,3.5301932024476144,-1.341733285758862
8.15923260984675,-1.8674606000889191,3.5167758695900257,-1.3418386025622187
8.140558003845861,-1.9521170131351613,3.5033574835644035,-1.3466314256829377
8.12103683371451,-2.0374440931606252,3.4898911693075743,-1.3563562488582797
8.100662392782903,-2.123406786964299,3.4763276068189914,-1.3712600233108507
8.079428324913259,-2.209968786021321,3.462615006585883,-1.391591356323891
8.057328637053045,-2.297091376150569,3.448699093022644,-1.417599595215578
8.034357723291539,-2.3847320594220798,3.4345230970704885,-1.4495337668029002
8.010510402697317,-2.4728429323635193,3.4200277594024597,-1.4876413390199084
7.985781973373682,-2.5613688056490505,3.4051513460122607,-1.5321667683989513
7.960168285317192,-2.6502450521506935,3.389829678328271,-1.5833497948705404
7.9336658347956845,-2.7393951726767685,3.3739961803795655,-1.6414234440622413
7.906271883068917,-2.828728072120624,3.357581945938943,-1.7066116972964571
7.877984602347711,-2.9181350433304347,3.3405158289659784,-1.77912679116003
7.848803251914407,-3.0074864620448065,3.322724561054378,-1.8591661122421974
7.818728387293959,-3.0966282039892334,3.304132899931956,-1.9469086588384121
7.787762105254067,-3.18537780496302,3.284663813343572,-2.04251105053871
7.755908327204437,-3.273520396710991,3.264238702838185,-2.146103079099138
7.723173123237327,-3.360804465767581,3.2427776720471937,-2.257782810239581
7.689565078579651,-3.446937499402513,3.220199843944798,-2.377611266360196
7.655095703585626,-3.5315816022923467,3.1964237312811963,-2.505606744851665
7.619779887562703,-3.614349189440663,3.1713676638326795,-2.6417388557655577
7.583636395668296,-3.6947988848232085,3.144950275275024,-2.78592239597888
7.5466884068200635,-3.7724317806517096,3.117091051315235,-2.938011214245424
7.5089640890135465,-3.8466882381524594,3.087710939172781,-3.0977922619902927
7.470497206632022,-3.916945436133674,3.056733016552878,-3.2649800673486857
7.431327752270685,-3.982515896786618,3.0240832158793913,-3.439211913380489
7.391502593302819,-4.04264723713455,2.9896910967455863,-3.6200440438156467
7.351076120931474,-4.096523406865126,2.9534906563074297,-3.806949258885985
7.310110886862822,-4.143267676028602,2.9154211637185696,-3.999316297110652
7.268678210102536,-4.181947625831114,2.8754280007474633,-4.196451423176029
7.2268587338442245,-4.211582368597834,2.833463486515703,-4.397582653628958
7.1847429101582465,-4.231152174638563,2.789487659979413,-4.601867046820739
7.142431388411861,-4.239610609763128,2.743468989511206,-4.808401456812059
7.10003528231423,-4.235899183345478,2.695384974943085,-5.016237098007011
7.057676290480775,-4.218964369796265,2.645222603963015,-5.224398183673112
7.015486646782812,-4.187776694590668,2.592978622126284,-5.431904783935223
6.973608879836906,-4.141351371195755,2.538659574286932,-5.6377998964494225
6.932195366124948,-4.07876974336915,2.4822815753224377,-5.841180538998233
6.891407668691257,-3.999200540055398,2.4238697699324554,-6.041232466867187
6.8514156632907035,-3.901919705566553,2.3634574452637835,-6.237267905845202
