th1 (rad),w1 (rad/s),th2 (rad),w2 (rad/s)
2.1338627227718345,2.9831942407387384,1.3090587812528933,-0.904732964527535
2.163694665179222,2.8845398036568195,1.300011451607618,-0.8670795458508714
2.19254006321579,2.790740378674564,1.2913406561491092,-0.8373161846655748
2.220447467002536,2.7014062748194423,1.2829674943024534,-0.8150020097328191
2.2474615297507303,2.6161638616244347,1.2748174742051253,-0.7996985859537267
2.2736231683669748,2.53465976521011,1.266820488345588,-0.7909810920162645
2.2989697660190758,2.456562315035366,1.2589106774254253,-0.7884447900006244
2.3235353891694293,2.381561312707946,1.251026229525419,-0.7917084371921922
2.3473510022965085,2.309366827369741,1.2431091451534972,-0.8004157517128676
2.370444670570206,2.239707472542637,1.2351049876363687,-0.8142356718807404
2.3928417452956325,2.172328452090393,1.2269626309175612,-0.8328618962614311
2.4145650298165364,2.1069895523142232,1.2186340119549468,-0.8560120209436998
2.4356349253396785,2.043463184842416,1.2100738917455098,-0.8834264766179811
2.4560695571881026,1.981532538238341,1.20123962697933,-0.9148673923510564
2.4758848825704862,1.9209898665301264,1.1920909530558195,-0.9501174630138443
2.4950947812357875,1.8616349243723687,1.182589778425681,-0.9889788646153239
2.5137111304795114,1.8032735474246406,1.1726999897795276,-1.0312722405680748
2.5317438659537577,1.7457163702125154,1.162387267373847,-1.0768357682857919
2.5492010296558827,1.688777670534829,1.151618909690989,-1.1255243068890992
2.566088806361231,1.6322743282876653,1.140363666622098,-1.1772086214284336
2.5824115496441076,1.57602488666949,1.1285915804078137,-1.2317746757519843
2.5981717985108026,1.5198487046484321,1.1162738336502938,-1.2891229841679657
2.613370285557287,1.463565191018055,1.103382603808614,-1.3491680108465827
2.6280059374674676,1.406993112161735,1.0898909237001482,-1.4118376051225228
2.642075868589085,1.3499499676830808,1.075772547648923,-1.4770724602528893
2.655575368265916,1.292251430285982,1.0610018230463942,-1.5448255825938773
2.6684978825687757,1.2337108486814543,1.0455535672204554,-1.6150617574690682
2.6808349910555904,1.174138814859706,1.0294029496457648,-1.687756997134748
2.6925763792041875,1.1133427998085859,1.0125253796744174,-1.7628979551494326
2.7037098072022734,1.0511268647048846,0.994896400122923,-1.8404812900909633
2.714221075849322,0.987291457775964,0.9764915872220133,-1.9205129599165367
2.724093990427082,0.9216333104458576,0.957286457622848,-2.0030074263269797
2.7333103235315406,0.8539454500535495,0.9372563833595783,-2.0879867462938506
2.741849778032076,0.7840173503573378,0.9163765158966398,-2.1754795254782664
2.7496899515356494,0.7116352451899917,0.8946217206418572,-2.265519705687133
2.7568063039875494,0.6365826349426992,0.8719665235849858,-2.358145155890491
2.7631721303369763,0.5586410199225273,0.8483850720260809,-2.4533960338315537
2.7687585405362016,0.4775908988768444,0.8238511116877654,-2.551312883135699
2.77353444952497,0.3932130748568146,0.7983379828564083,-2.651934429388322
2.777466580273538,0.30529031374746873,0.7718186385625251,-2.7552950383294643
2.780519483411013,0.21360940274789864,0.7442656881792304,-2.8614218006516676
2.782655577438492,0.11796365622196608,0.7156514701727138,-2.9703312115680136
2.7838352140007117,0.018155913877341945,0.6859481580570337,-3.0820254201639012
2.784016773139485,-0.08599792977890607,0.6551279038553947,-3.196488034519291
2.783156793841696,-0.19466483642149549,0.6231630235102017,-3.313679484757371
2.781210145477481,-0.3079899635766986,0.590026228662628,-3.433531968659359
2.778130245841714,-0.4260914449163339,0.5556909089760345,-3.555944034346761
2.7738693313925507,-0.5490546551221352,0.5201314686325669,-3.6807748926181616
2.7683787848413295,-0.6769260445008097,0.48332371970638527,-3.807838598236129
2.7616095243963215,-0.8097066793260744,0.445245333724024,-3.9368982944381212
2.7535124576030605,-0.947345683670028,0.40587635077964274,-4.067660776718235
2.74403900076636,-1.089733845369631,0.3651997430124604,-4.199771697489125
2.733141662312664,-1.2366977191135975,0.32320202603756915,-4.332811797661667
2.720774685121528,-1.3879946276749853,0.27987390806095247,-4.4662946073577245
2.706894738844778,-1.5433090199985091,0.23521096198737523,-4.599666096564249
2.691461648644793,-1.7022506819659344,0.18921430102173276,-4.732306766375196
2.6744391418251334,-1.8643553004804134,0.1418912333579808,-4.863536640502475
2.6557955888203293,-2.02908784206795,0.09325586695295604,-4.9926235336788
2.63550471039965,-2.1958491132552305,0.04332963161616804,-5.118794830207802
2.6135462192670977,-2.3639857155700046,-0.007858316685909986,-5.2412527998780485
2.589906362111398,-2.5328033941549393,-0.060270844684690475,-5.359193216021994
2.564578328169848,-2.7015835161049355,-0.11386277684491042,-5.471826738648533
2.537562493008799,-2.869602123750621,-0.16858104423139575,-5.578402212488131
2.508866471771293,-3.0361507201135196,-0.22436506635627707,-5.678230742980616
2.4785049645701576,-3.2005576962351743,-0.28114737378608323,-5.770709194964286
2.4464993876078056,-3.362209141696178,-0.3388544657357261,-5.855341649074326
2.412877296190844,-3.520567722914691,-0.39740788222646933,-5.931757379100181
2.377671618961697,-3.675188387842219,-0.45672545601747117,-5.999724091206399
2.3409197350832747,-3.8257298606974808,-0.5167226969295352,-6.059155481694479
2.3026624364762998,-3.9719612059550746,-0.57731425174648,-6.110112589792657
2.262942824416749,-4.113763128473964,-0.6384153776444066,-6.152798894028033
2.2218051931320093,-4.251124086719808,-0.6999433665846869,-6.187549564892695
2.1792939522648114,-4.384131676876498,-0.7618188622336138,-6.214815685464197
2.1354526354960464,-4.512960053125422,-0.8239670190882558,-6.2351445412864015
2.090323034964792,-4.637854354100198,-0.8863184645011197,-6.249157237149837
2.0439444914237903,-4.759113196321875,-0.9488100368726181,-6.257524919547091
1.9963533594605716,-4.877070278690434,-1.011385286068089,-6.260944787060725
1.9475826566736671,-4.992076037876663,-1.0739947339386962,-6.260116887649944
1.8976618962949006,-5.104480130571976,-1.1365959028151955,-6.255722468475348
1.8466170949891807,-5.214615324704204,-1.199153127499949,-6.248404396179609
1.7944709417421387,-5.322783184576662,-1.2616371714617451,-6.238749932879273
1.741243109896372,-5.429241754987588,-1.3240246707905379,-6.2272759560932665
1.6869506923464963,-5.534195299973957,-1.3862974303514706,-6.2144165606730315
1.6316087393467567,-5.637786039137997,-1.4484415959582009,-6.200512880576036
1.5752308789553766,-5.740087749089427,-1.5104467247639612,-6.185804914993508
1.5178300014644823,-5.841101055902965,-1.5723047739138962,-6.1704251300217825
1.4594189909054527,-5.940750230872875,-1.634009025214114,-6.154393625071444
1.4000114885967239,-6.0388813095791365,-1.6955529614648284,-6.137614693617498
1.3396226755009324,-6.135261376846017,-1.7569291084010032,-6.119874662574749
1.2782700617324723,-6.229578891859205,-1.8181278550267508,-6.100840956747619
1.2159742728138803,-6.321444963940489,-1.879136264594227,-6.080062399203332
1.1527598231744753,-6.410395526936076,-1.9399368885862602,-6.056970821291778
1.0886558679051146,-6.4958943967352525,-2.000506596799178,-6.030884114919745
1.023696923937762,-6.577337231039998,-2.0608154379483756,-6.001010913136803
0.9579235516273621,-6.654056442950277,-2.1208255470797437,-5.966457132352591
0.8913829871978594,-6.725327150611598,-2.1804901184032697,-5.926234650142404
0.8241297156917433,-6.7903742747707225,-2.2397524649046936,-5.8792724260386215
0.756225972944036,-6.848380925161292,-2.29854518916508,-5.824430397704046
0.6877421636924231,-6.898498245122899,-2.3567894931421205,-5.760516498866055
0.6187571812411942,-6.9398569104149,-2.414394658130781,-5.686307143701609
0.5493586121370452,-6.971580499495755,-2.4712577295677973,-5.600571497466739
0.4796428071420876,-6.992800962505288,-2.5272634445424647,-5.502099793948091
0.40971479751703477,-7.0026764052715675,-2.5822844424819458,-5.389735851747636
0.3396880334643191,-7.000411359559826,-2.636181800999422,-5.262413764950621
0.2696839198687208,-6.985279614822812,-2.6888059386489283,-5.119198478999142
0.1998311237204927,-6.956649521508779,-2.73999792343892,-4.959329590980145
0.1302646285054049,-6.914011424804558,-2.789591219348721,-4.782267224181529
0.06112451425735932,-6.857006540996848,-2.8374138915905363,-4.587738225178384
-0.00744555115260917,-6.785456151666674,-2.88329127384232,-4.375780250236596
-0.07530011266927591,-6.699389492393768,-2.9270490763446864,-4.146780615962833
-0.1422940075932136,-6.599068212194781,-2.9685168825043147,-3.9015061997759375
-0.2082846897151614,-6.485004870752315,-3.007531944502074,-3.6411203419224356
-0.27313473842268454,-6.357972742512542,-3.0439431479212984,-3.36718279693459
-0.33671446584780995,-6.219004336502398,-3.0776149758906444,-3.081629467409225
-0.39890450921283394,-6.069376617889081,-3.108431270564737,-2.786730016540446
-0.45959827539172476,-5.910581963239861,-3.1362985707301414,-2.4850234615081286
-0.5187040950241234,-5.7442853229755455,-3.161148805345223,-2.179234294908655
-0.5761469482538788,-5.5722697101432,-3.1829411482943093,-1.872174198730295
-0.6318696453553108,-5.396373697783493,-3.201662890281612,-1.5666365330683691
-0.6858333823331457,-5.218425769266933,-3.217329255612296,-1.2652920365537081
-0.738017640025815,-5.040180864207601,-3.2299821759778333,-0.9705942479534673
-0.788419448667891,-4.863264171852661,-3.239688118457368,-0.6847019809847164
-0.8370520903864177,-4.689126199897972,-3.246535138267215,-0.4094239753573559
-0.8839433523853975,-4.51901161085881,-3.250629378020789,-0.14618805251645278
-0.9291334684939856,-4.35394258953431,-3.2520912585459536,0.10396573126775138
-0.9726728943893287,-4.194715907557393,-3.251051601233276,0.34037082695616844
-1.0146200534649026,-4.0419116305533995,-3.2476478929637143,0.5627033333262759
-1.0550391697704367,-3.895910692847667,-3.2420208596304514,0.7709397684659605
-1.0939982766989134,-3.7569183424222103,-3.2343114619457918,0.9653086372698164
-1.1315674601231354,-3.6249906415571873,-3.2246583755730938,1.146240306747043
-1.1678173665387073,-3.5000616577920476,-3.2131959725056234,1.3143187158243244
-1.2028179831166277,-3.381969554647595,-3.2000527853473804,1.4702373615354287
-1.2366376786631037,-3.2704803772357005,-3.185350411732026,1.614760991206981
-1.2693424824354607,-3.165308847915422,-3.169202801819956,1.7486935920104418
-1.3009955709146148,-3.066135902400937,-3.1517158658998516,1.872852644442541
-1.3316569299386243,-2.9726229973947573,-3.1329873394554264,1.9880491897819867
-1.3613831599125719,-2.884423416130482,-3.1131068475576065,2.0950730224678105
-1.3902273940738767,-2.8011909070641754,-3.0921561173329284,2.1946822154065626
-1.4182393031445184,-2.722586035051552,-3.070209295178863,2.2875961782107357
-1.445465163495034,-2.6482806239483594,-3.0473333333967556,2.3744914997913296
-1.4719479697345175,-2.577960641421283,-3.0235884183988424,2.4559999099883556
-1.4977275761487303,-2.5113278335083136,-2.9990284192989587,2.53270779035914
-1.5228408544838135,-2.448100366953008,-2.9737013413953672,2.6051567589776123
-1.5473218581533434,-2.3880126872413032,-2.947649773805591,2.673844940513341
-1.5712019850257564,-2.330814752905301,-2.9209113244004574,2.7392286071186054
-1.5945101325548094,-2.2762707636875854,-2.8935190383292713,2.80172393645249
-1.6172728401916854,-2.22415746219749,-2.8655017989647464,2.861708680815451
-1.6395144148136602,-2.174262055786776,-2.836884712156592,2.919523577136538
-1.661257035371528,-2.126379777389533,-2.8076894763852267,2.97547335334502
-1.6825208331454233,-2.0803110810000773,-2.7779347428517767,3.0298272048417125
-1.7033239439554242,-2.0358584497049574,-2.7476364708033594,3.0828186282612133
-1.7236825284524737,-1.9928227828419876,-2.7168082845207473,3.134644512117115
-1.7436107562808936,-1.950999326042541,-2.685461839399576,3.1854633999599984
-1.763120749541319,-1.9101731170795577,-2.653607205399976,3.235392867582531
-1.7822224807121145,-1.8701139467015353,-2.621253276724151,3.284505999770515
-1.8009236201791299,-1.8305708839038632,-2.588408216726446,3.332827024548147
-1.8192293290181685,-1.7912664978743391,-2.5550799464809644,3.380326276202969
-1.8371419939969118,-1.7518910331791937,-2.5212766837189347,3.426914825620843
-1.8546609043287037,-1.7120969676893376,-2.4870075354627263,3.47243934791501
-1.8717818740055971,-1.6714946046575268,-2.4522831419835764,3.516678094204277
-1.8884968200521723,-1.6296496073818987,-2.4171163610415336,3.559339178530823
-1.9047933161259913,-1.586083638785724,-2.3815229692562254,3.600062730953129
-1.9206541525138485,-1.540279445995653,-2.345522341946694,3.6384287050469344
-1.9360569469738051,-1.4916917192009658,-2.309138054896225,3.6739721099217992
-1.9509738641658148,-1.4397647144512933,-2.272398333797007,3.706206973101498
-1.9653715113103276,-1.3839568335889507,-2.235336264065992,3.734659258213559
-1.979211079646217,-1.3237710601349442,-2.1979896714838563,3.758907207140975
-1.9924487902475665,-1.2587884974811019,-2.1604005994124464,3.778625345152737
-2.0050366752223776,-1.1887006300394656,-2.122614345960919,3.7936262094533113
-2.0169236815227722,-1.113334918562293,-2.084678083866386,3.803892543146363
-2.0280570307083954,-1.0326685440415928,-2.0466391584349224,3.809593046302802
-2.0383837161488114,-0.9468268196522935,-2.008543227971894,3.8110771718321654
-2.047851984345334,-0.8560657160472135,-1.9704324562535727,3.808848486806745
-2.056412641505806,-0.7607412392066734,-1.9323439713855053,3.8035206010132008
-2.064020053897873,-0.6612709767627628,-1.8943087653753732,3.7957631028841474
-2.070632763665501,-0.5580941818132197,-1.8563511343465318,3.7862462525493212
-2.076213705483633,-0.4516361286268637,-1.8184886718210385,3.7755921738657694
-2.0807300667699016,-0.34228062705857903,-1.7807327500823809,3.764337650211574
-2.0841528730404875,-0.2303523138650675,-1.743089373580265,3.7529104712263632
-2.086456396179138,-0.11610836376931424,-1.7055602688680014,3.7416185806875197
-2.087617479816831,0.0002620236566580475,-1.6681440830611263,3.7306495660232137
-2.0876148595802646,0.11863254975912678,-1.6308375874008942,3.7200773589181013
-2.0864285340826734,0.23893131402480444,-1.5936368138117132,3.709873133753462
-2.0840392209424254,0.361130679402747,-1.5565380824741786,3.6999179522039207
-2.080427914148398,0.48523681981450817,-1.5195389029521393,3.690015412473677
-2.075575545950253,0.6112798010717755,-1.4826387488274027,3.679903229014775
-2.0694627479395353,0.7393046723415211,-1.445839716537255,3.6692632019265226
-2.06206970121612,0.8693637783964803,-1.4091470845179896,3.657729413613676
-2.053376063432155,1.0015103332710285,-1.3725697903818528,3.644894730905048
-2.0433609600994447,1.1357932023547324,-1.3361208430728022,3.6303158254194914
-2.032003028075897,1.2722527998382165,-1.2998176848186074,3.6135169858872116
-2.019280500077515,1.410918002592914,-1.2636825149597353,3.5939930101786293
-2.005171320051586,1.5518039955631413,-1.227742584857949,3.571211451529538
-1.9896532800959545,1.694910987539083,-1.1920304703426536,3.5446144658705583
-1.9727041702205637,1.8402237632069633,-1.156584325683948,3.5136204731396004
-1.954301932588494,1.9877120635514964,-1.121448120952552,3.4776258092503336
-1.934424811952979,2.1373318095438396,-1.0866718628600487,3.4360065089748217
-1.9130514938575407,2.289027202089352,-1.0523117977703005,3.388120324031728
-1.8901612218366473,2.4427337434682364,-1.0184305945299832,3.3333090452385834
-1.8657338844019649,2.5983822312445795,-0.9850975040775973,3.2709011627623488
-1.839750062089519,2.755903774129602,-0.9523884924499738,3.2002148648131716
-1.812191024348223,2.9152358696803162,-0.9203863438018421,3.1205613439927062
-1.7830386656514199,3.0763295647243725,-0.889180730361915,3.0312483547461766
-1.7522753700041762,3.2391576890329565,-0.8588682468144533,2.931583949835341
-1.7198837931138466,3.4037241077517004,-0.8295524073160999,2.8208803262674658
-1.6858465520363297,3.57007387299291,-0.8013436040534253,2.6984577438339765
-1.6501458133064006,3.738304060646296,-0.7743590266150855,2.5636485609172333
-1.6127627726999376,3.908574939607519,-0.7487225410059132,2.415801590815788
-1.5736770233038624,4.081120911983146,-0.7245645250977553,2.254287260662772
-1.532865814184031,4.256260343094507,-0.7020216524911276,2.078504520016616
-1.490303210753086,4.434402902716694,-0.6812366072909615,1.8878911982275925
-1.4459591817259192,4.616052258686699,-0.6623576953086856,1.6819407020768502
-1.399798659139052,4.80180073847228,-0.6455382882879172,1.4602298074811688
-1.3517806517543294,4.992310662765267,-0.6309359902131054,1.2224651634287285
-1.3018575451266767,5.188274123813105,-0.6187113385788181,0.9685604418601304
-1.2499748038885456,5.390338625971579,-0.6090257341602168,0.698762356351726
-1.1960714176288298,5.598979895023368,-0.6020381105966995,0.4138524099955764
-1.1400816186785963,5.814295492036971,-0.5978995864967438,0.11546176969606231
-1.0819386637582264,6.035685528899617,-0.5967449687997832,-0.19345387321722857
-1.0215818084692303,6.2613859101924145,-0.5986795075319555,-0.5079333629098912
-0.9589679493673061,6.487839993046317,-0.6037588411610545,-0.8201096821032482
-0.8940895494368429,6.708964932649271,-0.6119599379820869,-1.1181825304860447
-0.8269999001103502,6.9155275124034326,-0.6231417632869474,-1.3855894554336667
-0.7578446249863159,7.095099390731598,-0.636997657841284,-1.6010714492537292
-0.6868936310789999,7.233284067511358,-0.6530083723338214,-1.7406463655161328
-0.6145607904038863,7.316712715316967,-0.6704148359889827,-1.78220993004187
-0.5413936632507167,7.337256634316638,-0.6882369352894013,-1.7119478058627555
-0.46802109690755034,7.295370594209752,-0.7053564133480289,-1.5294954884476566
-0.39506739096545285,7.200174185849683,-0.7206513682325054,-1.2483006086538984
-0.323065649106956,7.0659718813401815,-0.7331343743190444,-0.890656513199029
-0.2524059302935542,6.90752656366612,-0.7420409394510347,-0.4807165877392706
-0.18333066465689296,6.736692936444836,-0.7468481053284274,-0.03932694962400979
-0.1159637352924446,6.561256377738962,-0.7472413748246675,0.417977520850997
-0.05035117151505497,6.385313718130332,-0.7430615996161575,0.8806855637173139
0.013501965666248353,6.210239297436116,-0.7342547439789844,1.342091699850216
0.07560435864060952,6.035642689024243,-0.7208338269804823,1.798026509514533
0.13596078553085195,5.860104794773235,-0.702853561885337,2.2458736561932264
0.1945618334785843,5.681680780224222,-0.6803948253234047,2.683914130033747
0.25137864128082654,5.49822434546838,-0.6535556840230672,3.1109325893805955
0.3063608847355103,5.307591821880161,-0.6224463581292612,3.52600645324572
0.3594368029543119,5.107770047423628,-0.587186293596804,3.9284136265870684
0.41051450342854817,4.896956450991559,-0.5479021573309333,4.317613590959466
0.45948406793846375,4.673608127488935,-0.5047260214213386,4.693271448330356
0.5062201492133531,4.436469160586699,-0.45779330693803505,5.055304611387548
0.5505848408192201,4.18458113871467,-0.40724026082415954,5.403938291110486
0.5924306522063668,3.9172797948427327,-0.35320087791305466,5.739759934626287
0.6316034501547941,3.634180335372607,-0.2958032785667918,6.063765118977269
0.6679452535085202,3.335154949362762,-0.2351656273770191,6.377388460192526
0.7012968030021478,3.020308120089065,-0.17139174277509384,6.6825127611867865
0.7314998842030385,2.6899589067179575,-0.10456661516322598,6.981447345064313
0.7583994732702181,2.3446449084543683,-0.03475214171258284,7.276861206353138
0.7818459223547618,1.9851712278288478,0.038016470350948545,7.571646492318363
0.8016976346330503,1.612740959237254,0.11373293527413218,7.868670428595831
0.8178250442254229,1.2292230892998717,0.1924196395600905,8.170346541267879
0.8301172751184216,0.8376386652443946,0.2741231049727693,8.477918906956338
0.8384936617708656,0.44296765519072506,0.3589022940423327,8.790317330591407
0.8429233383227729,0.053363905723376404,0.4468054673482468,9.102450585399515
0.8434569773800067,-0.31827217983583744,0.5378299732022419,9.402975816115326
0.8402742555816484,-0.6528340315115582,0.6318597313633951,9.67213555122554
