th1 (rad),w1 (rad/s),th2 (rad),w2 (rad/s)
3.469883474950739,-2.2728153507030218,5.42108621202447,2.7310482424807354
3.447155321443709,-2.1964158921979564,5.448396694449277,2.785853677324342
3.4251911625217293,-2.1189153277871906,5.476255231222521,2.846984140609789
3.4040020092438574,-2.039976166647774,5.504725072628619,2.91440895380365
3.3836022475773797,-1.959285160393234,5.533869162166655,2.988102592467386
3.364009395973447,-1.8765593397649205,5.563750188091329,3.0680319815951065
3.345243802575798,-1.7915547886606886,5.59443050790728,3.15414113853499
3.3273282546891907,-1.7040786082997113,5.625971919292629,3.246332514536529
3.3102874686061936,-1.614004537990966,5.658435244437995,3.344444394440587
3.294147423226284,-1.5212926479614766,5.691879688382401,3.4482237999706444
3.278934496746669,-1.4260133638093235,5.726361926382108,3.557294555573123
3.264674363108576,-1.328375768243195,5.761934871937839,3.671120582593603
3.251390605426144,-1.2287595903068,5.798646077763776,3.7889651660481696
3.239103009523076,-1.1277494706887603,5.8365357294242575,3.909847967317733
3.2278255148161885,-1.0261689392340037,5.875634209097435,4.032502989327757
3.2175638254238486,-0.9251100694135163,5.9159592389907125,4.155342520288497
3.2083127247297134,-0.8259531076204323,5.957512664193597,4.276434130696245
3.2000531936535093,-0.7303688119790902,6.00027700550056,4.393499699819065
3.1927495055337185,-0.6402953004157604,6.0442120024987505,4.5039465471233155
3.186346552529561,-0.5578816362654136,6.089251467969984,4.60494012817568
3.180767736166907,-0.48539297287540983,6.135300869251741,4.693524437702422
3.1759138064381527,-0.425077379422339,6.182236113628765,4.766789594193623
3.1716630326439295,-0.3790022929421252,6.229904009570701,4.822076330907909
3.167873009714508,-0.34887754368989793,6.27812477287978,4.857196001745665
3.164384234277609,-0.33588953207577166,6.326696732897236,4.870635424890652
3.1610253389568514,-0.34057428327700534,6.375403087146143,4.8617122797438626
3.1576195961240816,-0.3627534232143315,6.424020209943582,4.830651673503239
3.1539920618919384,-0.40154646112930914,6.472326726678615,4.778567952090396
3.1499765972806455,-0.45545779251385904,6.520112406199519,4.707354423579602
3.145422019355507,-0.5225221664120505,6.567185950435315,4.619501634450732
3.1401967976913863,-0.6004825403260861,6.613380966779822,4.517876635850399
3.1341919722881255,-0.6869717420799061,6.6585597331383255,4.405498399880871
3.1273222548673263,-0.7796737407994709,6.702614717137134,4.285338877690111
3.1195255174593317,-0.8764489604271838,6.745468105914036,4.160168466572662
3.1107610278550597,-0.9754176382511145,6.787069790579762,4.032452941015627
3.1010068514725484,-1.0750031422948185,6.827394319989919,3.904299325995754
3.0902568200496003,-1.1739421685189682,6.866437313249876,3.7774421998079566
3.0785173983644105,-1.271270826939178,6.904211735247956,3.653259468091508
3.065804690095019,-1.3662955075386847,6.940744329928871,3.532806853242603
3.052141735019632,-1.4585560127966832,6.976072398461297,3.4168620700487224
3.037556174891665,-1.5477865449624533,7.010241019161785,3.305971957640621
3.0220783094420405,-1.633878272281622,7.043300738738191,3.2004980807289667
3.0057395267192244,-1.7168456437080093,7.07530571954548,3.1006581779689735
2.9885710702821444,-1.796797464435756,7.10631230132517,3.006562222184144
2.9706030956377867,-1.8739129637391816,7.136377923547012,2.9182427946209515
2.9518639660003947,-1.94842261182694,7.165560351493221,2.835680048789277
2.9323797398821254,-2.0205931922176013,7.193917151981114,2.7588218463294316
2.9121738079599493,-2.0907165373622,7.221505370444408,2.6875997747834575
2.891266642586327,-2.1591013303470903,7.248381368192243,2.6219417733596466
2.8696756292828565,-2.2260674231722497,7.2746007859258395,2.5617820467124455
2.847414955051134,-2.2919421947140513,7.3002186063929635,2.507068871090009
2.824495533103993,-2.357058551864588,7.325289295103864,2.4577708122633832
2.8009249475853473,-2.4217542556155895,7.349867003226498,2.413881792080676
2.7767074050291916,-2.4863723249359553,7.374005821147304,2.375425366120175
2.751843681779832,-2.551262333004972,7.397760074808506,2.342458510868491
2.7263310584497824,-2.6167824621204194,7.4211846599171905,2.315075164909795
2.700163233828578,-2.683302225466009,7.444335411566288,2.293409723037115
2.673330211573918,-2.7512057959241067,7.46726950879666,2.277640642055427
2.6458181536146768,-2.820895903666184,7.490045915217214,2.267994278158147
2.617609194578015,-2.8927982735134203,7.512725857998796,2.264749032223788
2.588681211842881,-2.9673665661477084,7.535373348321034,2.268239822613406
2.559007546181404,-3.0450877570197927,7.5580557465471685,2.2788628221274077
2.528556668611206,-3.1264878209463354,7.580844374768443,2.2970802667493353
2.4972917904017424,-3.2121374684786814,7.603815177435936,2.3234249374162403
2.4651704157169556,-3.3026574689228525,7.627049426810099,2.3585035831046106
2.432143841027727,-3.3987227411613765,7.650634462641145,2.4029980166709133
2.398156613616113,-3.5010638133179897,7.674664442807854,2.457661753709348
2.3631459754829334,-3.6104633166614954,7.6992410603449475,2.5233086951769854
2.3270413423163183,-3.7277436960528876,7.724474147296718,2.6007882050340294
2.289763905355789,-3.8537400210434174,7.750482029347058,2.6909376282929007
2.251226505145355,-3.9892483399466445,7.777391405629987,2.7944983752107637
2.2113340217458886,-4.134935149834063,7.805336389382095,2.911974778872708
2.169984670247548,-4.291187361370983,7.834456137170823,3.043406195643828
2.127072796633838,-4.457875988780936,7.864890199127261,3.1880142620845016
2.0824940367460285,-4.63400523875954,7.896770341748106,3.3436853875047423
2.036153984358433,-4.817232774191866,7.9302071956231535,3.506269268109323
1.9879816566165145,-5.003297907888221,7.965269888304246,3.6687476852545613
1.9379486775376322,-5.185510752893752,8.001957365156793,3.820494469924171
1.8860935700086947,-5.354644251700699,8.040162309856035,3.9471175580509428
1.8325471274916878,-5.499742673848775,8.079633485436544,4.031619586941838
1.7775497007532,-5.610245001886308,8.119949681305963,4.057450912320429
1.7214472507343368,-5.679104133334148,8.160524190429166,4.013008343075106
1.6646562094009953,-5.705478406859584,8.200654273859918,3.8955561749678016
1.6076014253323996,-5.695224595004437,8.239609835609595,3.712035503466165
1.5506491793823551,-5.658737893232013,8.276730190644257,3.4760808463978723
1.494061800450035,-5.607573396681391,8.311490999108235,3.203250671447556
1.4379860664832211,-5.551750314449482,8.343523505822711,2.9071707681712784
1.3824685633387264,-5.498566818111631,8.372595213504423,2.5977931266446688
1.32748289515761,-5.452621299607206,8.39857314477087,2.28136990557413
1.2729566821615381,-5.416385546811282,8.42138684382661,1.9612316325136592
1.2187928266934254,-5.390858282168522,8.440999160151748,1.6387042683038318
1.1648842438717402,-5.376094501402995,8.457386202834785,1.3138712592807802
1.1111232988577102,-5.371571149904283,8.470524915427593,0.9861192607883436
1.0574075873586675,-5.376415592613626,8.480386108035477,0.6545005432578068
1.003643431432531,-5.389536721946315,8.486931113468055,0.31796532459689564
0.9497480642130679,-5.40969271857133,8.490110766714023,-0.02449013289345381
0.8956511370273545,-5.435519886745306,8.489865865385088,-0.3737270863704696
0.8412959381599014,-5.465538868648916,8.486128594521384,-0.7303985677196192
0.7866405494734123,-5.498148873076969,8.478824608844187,-1.0949017995132964
0.7316590607426426,-5.531616945532887,8.467875590849054,-1.4673419386578117
0.6763428912873137,-5.564067129324367,8.453202171462475,-1.8475040498410333
0.62070221999407,-5.593473083386309,8.434727130964065,-2.234832630668044
0.5647674891602069,-5.617656942231153,8.412378804657385,-2.6284195493728584
0.5085909197378954,-5.634296659646478,8.386094609163656,-3.0270021732019132
0.4522479531414306,-5.640943592622669,8.355824587431638,-3.428973902179749
0.3958385172152039,-5.635051541103778,8.32153484840984,-3.832409352741508
0.33948800180416616,-5.614017795557604,8.283210754882425,-4.235106102453375
0.28334782384859014,-5.575235928871847,8.240859693857892,-4.634644249768104
0.22759546455987167,-5.516159104009164,8.194513251360211,-5.02846411023809
0.17243387351978004,-5.434371583628877,8.14422861025783,-5.4139612275141
0.11809015768349126,-5.327664976673964,8.090088997982688,-5.788596605684726
0.06481350791675161,-5.194114618819394,8.03220303192584,-6.150018768679695
0.012872361728557671,-5.03215046494837,7.970702844239043,-6.496193042878556
-0.037449142920926035,-4.84061610696841,7.9057409138102575,-6.825532487058878
-0.08585530399061014,-4.618809175639845,7.837485588939669,-7.137024334428283
-0.13204339574700857,-4.366496597926153,7.766115345595386,-7.430345859557021
-0.1757083617262701,-4.083899081317429,7.691811886999816,-7.705964423851263
-0.2165473525394444,-3.7716408158507817,7.614752242761304,-7.965218210231435
-0.2542637606979522,-3.430662626113252,7.53510006065899,-8.210376825336496
-0.2885703869590847,-3.062099438918007,7.452996292405625,-8.444684324919777
-0.3191913813482648,-2.6671256612474323,7.368549449156427,-8.672390853054807
-0.3458626379607391,-2.246774697935255,7.28182554062588,-8.898782208313387
-0.3683303849400917,-1.8017416192453457,7.192837718542746,-9.130218002891558
-0.38634780113254513,-1.3321821595552923,7.10153553851383,-9.374186422870123
-0.39966962272809803,-0.8375301423737959,7.007793674285129,-9.639372397497809
-0.40804492415183596,-0.31637685224698997,6.911399950310151,-9.935706275112395
-0.4112086926743059,0.2334930127868533,6.812042887559027,-10.274289373353074
-0.40887376254643737,0.8146964138997652,6.709299993825496,-10.666931004598222
-0.40072679840743974,1.429006259680747,6.602630683779514,-11.124674413792402
-0.38643673581063226,2.0742642879421918,6.49138393964159,-11.653953423883639
-0.36569409293121036,2.7375598679537956,6.3748444054027535,-12.247755872078613
-0.3383184942516724,3.3821053194592503,6.2523668466819675,-12.868120453918472
-0.3044974410570799,3.928425951206499,6.1236856421427825,-13.420417326255588
-0.2652131815450149,4.247430404995785,5.989481468880227,-13.742807942642772
-0.22273887749505705,4.2115359856816825,5.852053389453799,-13.673417937060364
-0.18062351763824022,3.809277832844036,5.715319210083195,-13.202212849366965
-0.14253073930979987,3.1769100404569857,5.583297081589525,-12.509164348423319
-0.11076163890523001,2.4746621991400706,5.458205438105292,-11.79668749486269
-0.0860150169138293,1.7926865205107854,5.340238563156666,-11.169285001627237
-0.06808815170872146,1.1601331284656826,5.228545713140393,-10.651513360536901
-0.05648682042406463,0.5785523371728956,5.122030579535024,-10.234271621971477
-0.05070129705233568,0.041103403631699176,5.019687863315309,-9.899843380696025
-0.05029026301601869,-0.4600290621223193,4.920689429508349,-9.630820685140055
-0.05489055363724188,-0.931378862106282,4.824381222656949,-9.412360364324556
-0.0642043422583047,-1.3777682822803605,4.730257619013703,-9.232270723634347
-0.0779820250811083,-1.802439127563155,4.63793491177736,-9.080552924659331
-0.09600641635673984,-2.2073164914103467,4.547129382530766,-8.948908373552538
-0.11807958127084331,-2.5932751522234923,4.457640298795241,-8.830345390602844
-0.14401233279307823,-2.960377878374512,4.3693368448892125,-8.718900067821588
-0.17361611157682336,-3.308084894186196,4.282147844210996,-8.609453648373607
-0.2066969605186853,-3.6354402080651322,4.196053307727261,-8.49762286694343
-0.24305136259933663,-3.9412394857490307,4.111077079057826,-8.379701201333756
-0.28246375745682695,-4.22418132166693,4.027280067044488,-8.25263205791801
-0.32470557067349626,-4.483001155043347,3.944753746465308,-8.113998102452872
-0.36953558222392974,-4.716585428836465,3.8636137654407796,-7.962014117545931
-0.4167014365122944,-4.924063099315196,3.7839936242653205,-7.795514026240375
-0.46594206750544637,-5.104872184225154,3.706038484002917,-7.613926071194978
-0.5169907893476979,-5.258800408482345,3.629899223290967,-7.417233414393047
-0.5695787934325214,-5.386000774893044,3.5557268891470364,-7.205920344193233
-0.6234388011814518,-5.486984637305358,3.483667685705104,-6.980906557701826
-0.6783086475545054,-5.562596236860927,3.4138586201280856,-6.743473431514823
-0.7339346099231147,-5.613973465501454,3.3464238858129374,-6.495186758706865
-0.7900743445781292,-5.642499790300878,3.2814720182258688,-6.237820225964219
-0.846499342481138,-5.649751891758003,3.2190938159662266,-5.973283155685285
-0.902996861398718,-5.637446810807682,3.1593609844093735,-5.703555011714387
-0.9593713295067948,-5.607391462473479,3.1023254342922297,-5.430628110133709
-1.0154452441315296,-5.561436435436953,3.0480191531908924,-5.156459066843488
-1.0710596084858992,-5.501435180168949,2.9964545625224575,-4.882928845569743
-1.1260739602875887,-5.429209056460663,2.94762527406676,-4.611810860322532
-1.1803660508521954,-5.346518274258583,2.9015071654635345,-4.344746397259797
-1.2338312335947812,-5.255038493845815,2.8580597014909364,-4.083226586621165
-1.2863816185332393,-5.156342709351537,2.8172274356247247,-3.8285802058862273
-1.3379450456267548,-5.05188797770911,2.7789416335658625,-3.581966672490343
-1.3884639254038458,-4.943006535400157,2.743121966840959,-3.3443736499169465
-1.4378939907578474,-4.8309008414165895,2.70967823034179,-3.11661872694363
-1.4862029991720134,-4.716642082791402,2.6785120430723537,-2.899354635163574
-1.5333694199999275,-4.601171674481717,2.649518496720718,-2.6930774543124443
-1.5793811367447446,-4.485305280251063,2.6225877221775935,-2.498137232677354
-1.6242341895472552,-4.369738880166596,2.59760634985082,-2.3147504347955112
-1.6679315783489213,-4.255056418119596,2.574458845502865,-2.143013630944461
-1.710482142530117,-4.141738582489127,2.5530287091934203,-1.982917867693307
-1.7518995283550083,-4.030172305511677,2.5331995305164874,-1.8343632061709305
-1.792201251410125,-3.9206606107423294,2.514855898454778,-1.6971729809806753
-1.8314078575175483,-3.8134324902672248,2.4978841686449713,-1.5711074117643644
-1.8695421824202205,-3.7086525503100733,2.4821730945273277,-1.4558762843698523
-1.9066287079233213,-3.6064302217316175,2.467614331683629,-1.351150502876636
-1.9426930101406374,-3.5068283872675323,2.454102826654863,-1.2565723920561025
-1.9777612940133127,-3.409871327586675,2.441537102734302,-1.1717646984476857
-2.0118600072891795,-3.315551931680924,2.429819455749825,-1.0963382950094975
-2.045015526605989,-3.2238381528908255,2.41885607279973,-1.029898638576367
-2.0772539081348973,-3.1346787199294086,2.4085570864139663,-0.9720510615690402
-2.1086006953341916,-3.0480081330387954,2.398836575798276,-0.9224050007445771
-2.1390807766645796,-2.9637509897081475,2.38961252579083,-0.8805772778891588
-2.168718286561661,-2.8818256931955615,2.3808067530119383,-0.8461945520208982
-2.1975365434936167,-2.8021476014867965,2.3723448074917295,-0.8188950616459739
-2.2255580195084845,-2.7246316753084887,2.3641558568752696,-0.7983297704866423
-2.2528043362615695,-2.6491946823125128,2.3561725591704032,-0.7841630222317995
-2.279296283084695,-2.575757011350615,2.3483309289480854,-0.7760728003501568
-2.305053853198201,-2.504244146512257,2.3405702009445837,-0.7737506787027145
-2.3300962946633237,-2.4345878458140953,2.3328326941575566,-0.7769015382199226
-2.3544421731214644,-2.36672706449184,2.3250636787753574,-0.7852431147042096
-2.378109443766383,-2.300608658031235,2.317211247628315,-0.7985054331619552
-2.4011155303466953,-2.236187895571347,2.3092261932966958,-0.8164301751249465
-2.423477409302409,-2.1734288102344452,2.301061891545446,-0.8387700172689571
-2.4452116974047535,-2.1123044093402545,2.2926741913727566,-0.8652879722965477
-2.466334741498156,-2.0527967643634297,2.284021311649791,-0.8957567565048212
-2.4868627091417905,-1.994896997875951,2.2750637440847425,-0.9299582026668696
-2.50681167912055,-1.9386051825438642,2.265764162058074,-0.9676827317673045
-2.5261977309459884,-1.883930165470037,2.256087334740401,-1.0087288926932474
-2.5450370326006886,-1.8308893297339273,2.2460000458134686,-1.052902975139003
-2.563345925898028,-1.7795083038161104,2.2354710160620783,-1.100018697684779
-2.5811410089361893,-1.7298206286513302,2.2244708290852304,-1.149896970210214
-2.5984392152227027,-1.6818673912751574,2.2129718593831282,-1.2023657274583404
-2.6152578891354543,-1.63569683336801,2.200948202108545,-1.2572598286335313
-2.6316148574691343,-1.5913639424152894,2.1883756038222097,-1.3144210163582497
-2.6475284968932873,-1.548930032659918,2.175231393658627,-1.37369792708924
-2.6630177972198865,-1.5084623224967613,2.1614944143877346,-1.434946144166074
-2.678102420444854,-1.4700335144265417,2.147144952946074,-1.498028283996266
-2.6928027555891196,-1.4337213831342424,2.1321646701061114,-1.5628141054350286
-2.707139969420462,-1.39960837667189,2.116536529051761,-1.6291806321592313
-2.721136053187181,-1.3677812350988885,2.1002447227301686,-1.6970122777312902
-2.73481386553817,-1.3383306302572557,2.0832745999528557,-1.766200963069172
-2.7481971718407423,-1.3113508296275371,2.065612590322164,-1.8366462161557702
-2.7613106801370177,-1.2869393864173848,2.047246128160606,-1.9082552440098124
-2.7741800740011917,-1.265196857172513,2.028163575720508,-1.9809429671789256
-2.7868320425729167,-1.246226547262779,2.0083541460487186,-2.054632007283453
-2.7992943080455444,-1.2301342835788425,1.987807825975884,-2.1292526184185956
-2.811595650881333,-1.2170282126725203,1.9665152997916981,-2.2047425534950165
-2.8237659330080582,-1.2070186213834144,1.944467874256748,-2.281046856847467
-2.8358361192218924,-1.2002177757145722,1.9216574056882734,-2.358117574650986
-2.847838296979038,-1.19673977235237,1.8980762299417635,-2.435913374839433
-2.859805694702562,-1.1967003957750892,1.8737170961933691,-2.5143990683075033
-2.8717726986603127,-1.2002169723688418,1.848573105510294,-2.5935450231836827
-2.883774868384001,-1.2074082113805917,1.8226376552784573,-2.67332646388078
-2.895848950497807,-1.2183940209024215,1.7959043906396495,-2.7537226464619455
-2.9080328907068314,-1.2332952854204828,1.76836716417503,-2.8347159016113825
-2.920365843561036,-1.2522335898040262,1.7400200051589163,-2.916290536189271
-2.932888179459076,-1.2753308729898525,1.7108570997970236,-2.9984315840127587
-2.9456414881889748,-1.3027089930802358,1.680872783956896,-3.081123396188564
-2.9586685781197772,-1.3344891841742859,1.6500615499950104,-3.164348061096223
-2.97201346996152,-1.3707913840646049,1.6184180693840482,-3.2480836440738172
-2.985721383802166,-1.4117334110409097,1.5859372329433101,-3.3323022371024242
-2.999838717912575,-1.4574299675579596,1.552614210572286,-3.416967809457457
-3.0144130175881547,-1.5079914485769554,1.5184445324777114,-3.502033851553603
-3.029492932073924,-1.5635225331316145,1.4834241939621753,-3.5874408062355942
-3.0451281574052405,-1.6241205392800273,1.4475497858998194,-3.6731132847568504
-3.0613693627980405,-1.6898735252796053,1.4108186530522508,-3.7589570688490586
-3.0782680980508363,-1.7608581237781413,1.3732290823637603,-3.844855905823601
-3.095876679288618,-1.8371371012664133,1.3347805233055243,-3.930668110748832
-3.114248050301282,-1.9187566421920368,1.295473842198036,-4.016222998565936
-3.1334356167232027,-2.0057433661609574,1.2553116122123766,-4.101317179626098
-3.1534930503848124,-2.098101097658983,1.2142984404161157,-4.185710764542109
-3.174474061361402,-2.195807420718957,1.1724413327706946,-4.269123538304802
-3.1964321355685916,-2.2988100658084942,1.1297500973876466,-4.351231179005935
-3.2194202362266764,-2.407023192607631,1.0862377855975873,-4.431661612717831
-3.2434904681527525,-2.520323649757249,1.041921169470409,-4.509991612362578
-3.268693704650325,-2.63854731031783,0.9968212533467832,-4.585743763783431
-3.2950791777535033,-2.7614855985685427,0.9509638157089488,-4.658383935522543
-3.3226940337391886,-2.888882338667318,0.9043799763537234,-4.727319398679114
-3.351582857125862,-3.020431067208334,0.8571067823669323,-4.791897748300108
-3.3817871677979454,-3.155772958459908,0.8091878048839312,-4.851406776794092
-3.4133448973825447,-3.2944955118070762,0.7606737371159903,-4.905075441939234
