th1 (rad),w1 (rad/s),th2 (rad),w2 (rad/s),a1 (rad/s^2),a2 (rad/s^2)
5.025683125661127,1.341710270205343,5.193940717093633,0.9086752980025048,10.231623783334946,-1.703083730535409
5.03910022836318,1.4440265080386925,5.203027470073658,0.8916444606971508,10.22825669660965,-1.7875154191001643
5.053540493443567,1.546309075004789,5.21194391468063,0.8737693065061491,10.21447200044144,-1.8613634530460579
5.069003584193615,1.6484537950092033,5.220681607745691,0.8551556719756885,10.187866190563032,-1.9204377815748834
5.0854881221437065,1.7503324569148335,5.229233164465448,0.8359512941599397,10.1457338515376,-1.9600142533814213
5.1029914467128545,1.8517897954302096,5.237592677407047,0.8163511516261255,10.085071665746627,-1.9748495353489994
5.121509344667157,1.952640512087676,5.245756188923308,0.7966026562726355,10.002596250008775,-1.9592206939058583
5.141035749788033,2.0526664745877636,5.253722215486034,0.7770104493335769,9.894780902966007,-1.9069975562190404
5.16156241453391,2.1516142836174237,5.26149231997937,0.7579404737713865,9.75791667343558,-1.811756378023956
5.183078557370084,2.2491934503517794,5.269071724717084,0.739822909991147,9.588202907166378,-1.666942841937323
5.205570491873602,2.345075479423443,5.276469953816996,0.7231534815717737,9.381871288873604,-1.466090529163826
5.229021246667837,2.4388941923121794,5.283701488632714,0.7084925762801355,9.135345056138682,-1.2030972792126804
5.2534101885909585,2.530247642873566,5.290786414395515,0.6964616034880087,8.845431292107243,-0.8725559320081069
5.278712665019694,2.6187019557946387,5.297751030430395,0.6877360441679276,8.509538984117816,-0.4701278033368455
5.304899684577641,2.703797345635817,5.304628390872074,0.683034766134559,8.125909202658594,0.007062617922941859
5.331937658033999,2.785056437662403,5.31145873853342,0.6831053923137884,7.6938371311284435,0.5600436148615447
5.359788222410623,2.8619948089736877,5.318289792456558,0.6887058284624039,7.213860099289518,1.187663532631687
5.38840817050036,2.934133409966583,5.325176850741182,0.7005824637887208,6.687882948440907,1.8863548743896719
5.4177495046000255,3.001012239450992,5.3321826753790695,0.7194460125326175,6.119213682218674,2.650038763904802
5.447759626994535,3.0622043762731788,5.339377135504396,0.7459464001716656,5.51248954870406,3.4702030365006538
5.478381670757266,3.1173292717602195,5.346836599506113,0.7806484305366721,4.873486376209726,4.336168530259157
5.509554963474868,3.166064135522317,5.35464308381148,0.8240101158392636,4.208820482753567,5.235533419829856
5.541215604830091,3.2081523403498524,5.362883184969872,0.8763654500375622,3.5255696605713496,6.154759231078815
5.573297128233589,3.243408036955566,5.371646839470248,0.9379130423483503,2.830853712682771,7.0798402499497195
5.605731208603145,3.2717165740823937,5.381025969893732,1.0087114448478474,2.131422312695241,7.996985640137307
5.638448374343969,3.293030797209346,5.39111308434221,1.0886813012492205,1.433296685044251,8.893243710813342
5.671378682316062,3.3073637640597884,5.4019998973547025,1.177613738357354,0.7415021370659703,9.757010141459205
5.70445231995666,3.3147787854304482,5.413776034738276,1.275183839771946,0.05991331430259699,10.578383142397728
5.737600107810964,3.3153779185734744,5.426527873135996,1.3809676711959231,-0.6087830755252296,11.349353168987218
5.770753886996699,3.3092900878182223,5.440337549847955,1.4944612028857953,-1.2630186881652752,12.063837444937203
5.803846787874882,3.2966599009365694,5.455282161876813,1.6150995773351673,-1.9021886613753343,12.71758613782855
5.836813386884248,3.277638014322816,5.471433157650164,1.7422754387134527,-2.526438343762,13.30799574024917
5.869589767027476,3.252373630885196,5.488855912037299,1.8753553961159444,-3.1364187375919848,13.833866367267117
5.902113503336327,3.221009443509276,5.507609465998459,2.0136940597886155,-3.733034095845757,14.295135081501705
5.93432359777142,3.183679102550818,5.527746406596345,2.1566454106036326,-4.317199292868806,14.692609387950714
5.966160388796928,3.14050710962213,5.549312860702381,2.3035715044831395,-4.889618149953551,15.027715941548351
5.99756545989315,3.0916109281225945,5.572348575747212,2.453848663898623,-5.450587950496441,15.302270945453555
6.028481569174376,3.0371050486176303,5.596887062386199,2.6068713733531585,-5.999830538868409,15.51827165954715
6.058852619660553,2.9771067432289464,5.62295577611973,2.76205408994863,-6.536346869526611,15.677703265434985
6.088623687092842,2.91174327453368,5.650576317019217,2.9188311226029797,-7.058289607025986,15.78235203104744
6.117741119838179,2.8411603784634205,5.6797646282452465,3.076654642913454,-7.562847218637053,15.833614087301706
6.146152723622813,2.76553190627705,5.710531174674381,3.234990783786471,-8.046132818009415,15.83228897135371
6.173808042685583,2.6850705780969557,5.742881082512246,3.3933136735000082,-8.503071796537295,15.77834833865737
6.2006587484665525,2.6000398601315826,5.776814219247246,3.551097156886582,-8.92728418674461,15.670673063367483
6.226659147067869,2.5107670182641364,5.812325190816112,3.7078038875202566,-9.310961132591048,15.506756799451495
6.25176681725051,2.417657406938226,5.8494032296913145,3.8628714555147714,-9.644740432918352,15.282381772345602
6.275943391319892,2.3212100026090425,5.888031944246462,4.015695273238228,-9.917594730567007,14.991284249282339
6.299155491345982,2.2220340553033724,5.9281888969788445,4.165608115731051,-10.116758483869745,14.62484411414159
6.321375831899016,2.120866470464675,5.969844978136155,4.311856556872467,-10.227737087548062,14.171856347907463
6.342584496603663,2.0185890995891946,6.01296354370488,4.453575120351542,-10.234463223004724,13.618472011845087
6.3627703875995545,1.9162444673591474,6.0574992949083954,4.589759840469993,-10.119689500677257,12.948429978671223
6.381932832273146,1.815047572352375,6.1033968933130955,4.719244140256706,-9.865726813783372,12.143730743644168
6.40008330799667,1.7163903042145412,6.150589334715662,4.8406814476931475,-9.45564314716919,11.185915349259284
6.4172472110388155,1.6218338727428492,6.198996149192594,4.95254060118574,-8.875010098309573,10.058082166342906
6.433465549766244,1.5330837717597534,6.248521555204451,5.053121422849169,-8.114202344967964,8.747672538386775
6.448796387483841,1.4519417483100738,6.299052769432942,5.140598148233037,-7.171101972717887,7.2498594423393525
6.463315804966942,1.380230728582895,6.350458750915272,5.213096742656431,-6.053840452341616,5.571086506722479
6.477118112252771,1.319692324059479,6.4025897183418365,5.268807607723655,-4.782975455637073,3.7319911186431147
6.490315035493365,1.271862569503108,6.455277794419073,5.3061275189100865,-3.392351331227364,1.7687410085617077
6.503033661188397,1.2379390561908343,6.508339069608175,5.323814928995704,-1.9279643900503702,-0.26810441991806394
6.515413051750305,1.2186594122903307,6.561577218898131,5.321133884796524,-0.44453651336043465,-2.3176088941033264
6.527599645873209,1.2142140471567264,6.614788557746096,5.29795779585549,0.9998574783608221,-4.314922329913993
6.539741786344776,1.2242126219403346,6.667768135704652,5.2548085725563505,2.3500918814592966,-6.198897423138
6.55198391256418,1.2477135407549276,6.720316221430215,5.19281959832497,3.5598240132278955,-7.91908054736263
6.564461047971729,1.2833117808872065,6.772244417413464,5.113628792851344,4.5955870941437125,-9.440473804093543
6.577294165780601,1.3292676518286437,6.823380705341978,5.019224054810408,5.438452024438051,-10.74523172727438
6.590586842298888,1.3836521720730242,6.873572945890082,4.911771737537665,6.083322059043857,-11.831430726076789
6.604423364019618,1.4444853926634627,6.922690663265459,4.793457430276897,6.5365139586960295,-12.709792711491872
6.618868217946252,1.509850532250423,6.970625237568227,4.666359503161978,6.812516610062278,-13.399520219605096
6.633966723268756,1.5779756983510458,7.0172888325998475,4.532364300965927,6.930724116491127,-13.924248300857624
6.649746480252267,1.6472829395159572,7.062612475609507,4.393121817957351,6.912664748644353,-14.308742709054059
6.666219309647427,1.7164095870024008,7.106543693789081,4.25003439086681,6.779949407212737,-14.576584064968074
6.683383405517451,1.7842090810745281,7.149044037697749,4.10426855021713,6.552940155026668,-14.74879570308069
6.701225496328196,1.849738482624795,7.19008672319992,3.956780593186323,6.250016752531898,-14.843226467651263
6.7197228811544445,1.9122386501501139,7.229654529131784,3.80834832850981,5.887278819301919,-14.874460250535508
6.738845267655946,1.971111438343133,7.267738012416882,3.659603726004455,5.4785310591609395,-14.85404700395425
6.7585563820393775,2.025896748934742,7.3043340496769265,3.5110632559649124,5.035430809497845,-14.790898038464555
6.778815349528725,2.0762510570297206,7.339444682236576,3.363154275580267,4.567712955031258,-14.691738612619298
6.799577860099022,2.1219281865800332,7.373076224992379,3.216236889454074,4.083438106104317,-14.561552477342138
6.820797141964823,2.162762567641076,7.40523859388692,3.0706213646806524,3.5892330536781936,-14.40398333758982
6.8424247676412335,2.198654898177858,7.435944807533726,2.926581531304754,3.0905081924613294,-14.2216781954435
6.864411316623012,2.2295599801024717,7.465210622846774,2.784364749350319,2.5916463738893305,-14.016569637823851
6.886706916424036,2.255476443841365,7.493054270340277,2.6441990529720805,2.0961632119096025,-13.790100762881893
6.90926168086245,2.2764380759604608,7.519496260869998,2.5062980453432617,1.606841657964983,-13.543399571074291
6.932026061622055,2.2925064925401104,7.54455924132343,2.3708640496325186,1.1258447581027011,-13.277410692265464
6.9549511265474555,2.3037649401211375,7.5682678818197555,2.238089942709864,0.6548106366090888,-12.992992212844419
6.977988775948667,2.3103130464872286,7.590648781246854,2.10816002058142,0.19493338634384874,-12.690984685789925
7.0010919064135395,2.312262380350667,7.611730381452668,1.9812501737235206,-0.25296702973544827,-12.372258489850688
7.024214530217046,2.3097327100533125,7.631542883189903,1.8575275888250138,-0.6883833868481899,-12.037744736172396
7.047311857317579,2.3028488761848305,7.650118159078153,1.7371501414632897,-1.1110664283095653,-11.688453994211345
7.070340346079427,2.291738211901735,7.6674896604927865,1.6202656015211763,-1.5209753472007415,-11.325486263630175
7.093257728198444,2.2765284584297274,7.683692316507998,1.5070107388848746,-1.9182325840550087,-10.950034867365748
7.116023012782741,2.2573461325891775,7.698762423896847,1.3975103902112171,-2.3030823572510624,-10.56338628236334
7.138596474108633,2.234315309016667,7.712737527798959,1.2918765273875839,-2.675852622080798,-10.1669173528848
7.1609396271987995,2.207556782795859,7.725656293072835,1.1902073538587359,-3.0369203708132035,-9.762090840629469
7.1830151950267584,2.177187579087727,7.737558366611423,1.0925864454524412,-3.3866803488098283,-9.350449851575865
7.204787070817636,2.1433207755996286,7.748484231065947,0.9990819469366825,-3.7255173779405872,-8.933611339245651
7.226220278573632,2.1060656018202226,7.758475050535314,0.909745833544226,-4.053782552617551,-8.513258618098819
7.247280934591834,2.065527776294047,7.767572508870757,0.8246132473632378,-4.371773607647235,-8.09113263076165
7.267936212354774,2.021810040217575,7.775818641344389,0.7437019210556213,-4.679719750912653,-7.669021601184892
7.28815431275695,1.9750128427084483,7.783255660554945,0.6670117050437724,-4.977771206943509,-7.248748674343209
7.307904441184034,1.9252351306390132,7.789925777605383,0.5945242183003403,-5.265993629481963,-6.83215719117326
7.327156792490424,1.8725751943441935,7.795871019788386,0.5262026463886077,-5.544367413767709,-6.421093370728722
7.345882544433866,1.8171315202065164,7.801133046252272,0.46199171268132044,-5.812791777050619,-6.0173863604364515
7.364053859635931,1.75900360243601,7.805752963379086,0.40181784907695595,-6.071093287304833,-5.622825854278483
7.38164389566029,1.6982926695629617,7.809771141869855,0.3455895905341711,-6.319038317990958,-5.23913774607087
7.3986268223559195,1.635102286383052,7.813227037775197,0.2931982130734624,-6.556348707463563,-4.867958554131067
7.41497784521975,1.5695387993084164,7.816159019905931,0.2445186275321517,-6.782719724161166,-4.510809595039933
7.430673233212834,1.5017116020668049,7.818604206181252,0.19941053158175237,-6.997839302345703,-4.169072068704836
7.445690349233502,1.4317332090433479,7.820598311497069,0.157719810894704,-7.201407435027986,-3.8439643192822657
7.460007681323935,1.359719134693068,7.822175509606017,0.11928016770188134,-7.393154603217657,-3.5365225391356625
7.473604872670866,1.2857875886608914,7.823368311283035,0.08391494231052471,-7.572858189231042,-3.2475860788933217
7.486462748557475,1.210059006768581,7.82420746070614,0.05143908152159149,-7.740355963728361,-2.977788321009201
7.498563338625161,1.1326554471312975,7.824721851521356,0.021661198311499482,-7.8955559404240026,-2.727553784135565
7.5098898930964735,1.0536998877270576,7.824938463504471,-0.005614339529856165,-8.038442141006641,-2.4971017780596187
7.520426891973744,0.9733154663169912,7.824882320109173,-0.030585357310452352,-8.16907608308901,-2.286456557089956
7.530160046636914,0.8916247054861011,7.824576466536068,-0.05344992288135192,-8.287594071802353,-2.0954635583732792
7.5390762936917755,0.8087487647680776,7.824041967307254,-0.07440455846508472,-8.394200618444584,-1.9238109924048392
7.5471637813394565,0.7248067585836317,7.823297921722603,-0.09364266838913311,-8.489158509298829,-1.7710558007294983
7.554411848925293,0.6399151734906434,7.822361495038712,-0.1113532263964281,-8.57277619257974,-1.6366528257516055
7.560811000660199,0.554187411564846,7.8212479627747475,-0.12771975465394414,-8.645393236725141,-1.5199859544893934
7.5663528747758475,0.46773347919759456,7.819970765228208,-0.14291961419883809,-8.707364640924846,-1.420399997126454
7.571030209567823,0.3806598327883461,7.81854156908622,-0.15712361417010262,-8.759044756323132,-1.3372321297190481
7.574836807895706,0.2930693852251148,7.816970332944519,-0.1704959354672931,-8.800771514853519,-1.2698418508559992
7.5777675017479575,0.20506167007657958,7.815265373589845,-0.1831943539758531,-8.832851574937784,-1.2176385548916875
7.579818118448723,0.11673315432720173,7.813433430050087,-0.19537073952476997,-8.855546891911093,-1.1801059907466795
7.580985449991995,0.028177685408090805,7.811479722654839,-0.20717179943223676,-8.869063117006721,-1.156823039156685
7.581267226846076,-0.06051294576197641,7.809408004660517,-0.2187400298238036,-8.873540130455911,-1.1474803907540683
7.580662097388456,-0.14924834706653553,7.8072206043622785,-0.2302148337313443,-8.869044927109737,-1.1518928353217341
7.579169613917791,-0.2379387963376329,7.804918456024965,-0.24173376208456165,-8.855566999304967,-1.1700069764868188
7.576790225954414,-0.3264944663306826,7.80250111840412,-0.25343383184942986,-8.83301630107504,-1.2019042676978917
7.573525281291108,-0.41482462934143294,7.799966780085626,-0.26545287452640876,-8.80122382765064,-1.2477993295576544
7.569377034997694,-0.5028368676179393,7.797312251340362,-0.2779308678219853,-8.759944800353116,-1.3080335627932695
7.564348666321514,-0.5904363156214705,7.7945329426621415,-0.291011203449918,-8.708864404469514,-1.3830641239245316
7.5584443031653,-0.6775249596661657,7.7916228306276425,-0.3048418446891633,-8.647605981399709,-1.4734483908008331
7.551669053568638,-0.7640010194801627,7.7885744121807505,-0.31957632859717167,-8.575741521768922,-1.5798241204885402
7.544029043373836,-0.849758434697852,7.7853786488947785,-0.33537456980205704,-8.492804240066384,-1.702885598439878
7.535531459026858,-0.9346864770985158,7.782024903196758,-0.35240342578645584,-8.398302932393,-1.8433561984849045
7.526184594255873,-1.0186695064224458,7.7785008689388935,-0.37083698777130486,-8.291737728246694,-2.0019579172057522
7.515997899191648,-1.1015868837049128,7.7747924990611805,-0.3908565669433624,-8.172616748987373,-2.1793786084969176
7.504982030354599,-1.1833130511947865,7.7708839333917465,-0.4126503530283316,-8.040473086773693,-2.3762378146830048
7.493148899842651,-1.2637177820625234,7.766757429861463,-0.43641273117516166,-7.894881428238182,-2.593052255043899
7.480511722022025,-1.3426665963449051,7.762393302549712,-0.46234325372560064,-7.735473579018261,-2.8302021729350835
7.467085056058576,-1.4200213321350879,7.7577698700124555,-0.49064527545495146,-7.561952111561236,-3.087899838806224
7.452884842737226,-1.4956408532507002,7.752863417257906,-0.5215242738430137,-7.374101371849079,-3.366161538527496
7.437928434204719,-1.569381866969191,7.747648174519476,-0.5551858892282886,-7.171795150788541,-3.664784327889938
7.422234615535027,-1.6410998184770764,7.742096315627193,-0.591833732507188,-6.9550004583773175,-3.983328694488853
7.405823617350256,-1.7106498230608496,7.736177978302121,-0.6316670194520765,-6.723777032487996,-4.3211080358340626
7.388717119119647,-1.7778875933857294,7.7298613081075995,-0.6748780998104171,-6.47827246093391,-4.67718554653046
7.37093824318579,-1.8426703179950685,7.723112527109495,-0.7216499552757217,-6.218713079669868,-5.050378727844231
7.35251154000584,-1.904857448791767,7.715896027556738,-0.772153742554164,-5.945391109494901,-5.439271319668159
7.333462965517922,-1.9643113598867161,7.708174490131197,-0.8265464557508456,-5.65864878243172,-5.842232044062505
7.313819851919055,-2.0208978477110335,7.699909025573688,-0.8849687761914706,-5.358860460266328,-6.257439179340107
7.293610873441945,-2.074486452313697,7.691059337811773,-0.9475431679848717,-5.046413937628625,-6.682909688897378
7.2728660089188075,-2.1249505916899833,7.681583906131925,-1.0143722648738456,-4.721692232832589,-7.116531436097328
7.251616503001908,-2.172167514018309,7.6714401834831865,-1.0855375792348188,-4.385057192606114,-7.556096939632508
7.229894827861725,-2.2160180859443703,7.660584807690839,-1.1610985486311438,-4.036836172902726,-7.999337162795675
7.207734647002281,-2.2563864476733975,7.648973822204527,-1.2410919202591006,-3.677312917853038,-8.443953970722928
7.185170782525548,-2.2931595768519277,7.636562903001936,-1.32553145996633,-3.3067235610315033,-8.887650105894977
7.162239186757028,-2.326226812462243,7.623307588402272,-1.4144079610252798,-2.925258441063583,-9.328155789941075
7.138976918632405,-2.355479396872879,7.60916350879202,-1.5076895189246906,-2.533070182504755,-9.763251321638378
7.115422124663676,-2.3808100986979266,7.594086613602773,-1.6053220321410744,-2.1302882670637238,-10.190785270559722
7.091614023676697,-2.402112981368564,7.578033393281363,-1.7072298848466716,-1.7170401303266818,-10.608688031450978
7.0675928938630115,-2.4192833826718307,7.560961094432896,-1.8133167651611815,-1.293478681034163,-11.014980581602705
7.043400060036293,-2.4322181694821725,7.5428279267812846,-1.9234665709772085,-0.8598160643090882,-11.40777825584779
7.019077878341472,-2.4408163301252634,7.523593261071513,-2.0375443535356865,-0.4163634828767354,-11.785289212948541
6.994669715040219,-2.444979964954031,7.503217817536156,-2.155397245665172,0.03642304681064241,-12.145807011588765
6.970219915390679,-2.4446157344859243,7.481663845079504,-2.27685531578106,0.4978909945651403,-12.487696348246212
6.94577375804582,-2.439636824540273,7.458895291921694,-2.401732279263522,0.9671334658377978,-12.809370542031985
6.921377389800417,-2.429965489881895,7.434877969129059,-2.529825984683842,1.4429247367123328,-13.10925879725513
6.897077734901599,-2.4155362425147717,7.40957970928222,-2.660918572656393,1.9236484056587233,-13.385760653919514
6.8729223724764505,-2.3962997584581847,7.382970523555657,-2.7947761791955883,2.40721706005368,-13.637184381718129
6.8489593748918685,-2.372227587857648,7.355022761763701,-2.9311480230127698,2.890982030058367,-13.861665435843848
6.825237099013292,-2.3433177675570644,7.325711281533573,-3.069764677371208,3.371631547058967,-14.057060557235841
6.801803921337721,-2.3096014520864747,7.2950136347598615,-3.2103352829435665,3.845075543352417,-14.220812802900355
6.778707906816856,-2.2711506966529504,7.262910281930425,-3.35254341097257,4.306315593690523,-14.349782953233545
6.755996399850327,-2.228087540716045,7.2293848478206995,-3.4960412405049053,4.749299371078646,-14.440043704388335
