th1 (rad),w1 (rad/s),th2 (rad),w2 (rad/s),a1 (rad/s^2),a2 (rad/s^2)
2.615468809160404,1.7106214964307327,4.377976358069919,-2.0499193703116068,-2.292183867434866,5.947745079467782
2.6325750241247112,1.687699657756384,4.357477164366803,-1.990441919516929,-2.3567989309121073,6.012900300635963
2.649452020702275,1.6641316684472631,4.3375727451716335,-1.9303129165105692,-2.4242121522602065,6.085570884553946
2.666093337386748,1.639889546924661,4.3182696160065275,-1.8694572076650298,-2.4940142549351294,6.165607361531088
2.6824922328559944,1.6149494043753096,4.299575043929877,-1.8078011340497189,-2.5658102100369615,6.252768010319692
2.6986417268997474,1.58929130227494,4.28149703258938,-1.745273453946522,-2.6392075483048414,6.346728329883868
2.7145346399224968,1.5628992267918915,4.264044298049915,-1.6818061706476832,-2.713807144187998,6.447088517592516
2.7301636321904157,1.5357611553500115,4.247226236343438,-1.617335285471758,-2.7891961554269913,6.553379630376044
2.745521243743916,1.5078691937957416,4.23105288348872,-1.5518014891679974,-2.8649428776336925,6.665068997138839
2.7605999356818733,1.4792197650194046,4.21553486859704,-1.485150799196609,-2.9405933303966663,6.7815653544208505
2.7753921333320672,1.4498138317154379,4.200683360605074,-1.4173351456524006,-3.0156694307178267,6.902224089209478
2.7898902716492215,1.4196571374082596,4.1865100091485505,-1.3483129047603057,-3.0896686326448908,7.026352889621428
2.8040868430233044,1.3887604510818108,4.173026880100948,-1.2780493758640914,-3.162064920583164,7.153218023404262
2.8179744475341226,1.357139801875979,4.1602463863423065,-1.2065171956300489,-3.2323110400124433,7.282051384368424
2.8315458455528826,1.3248166914758546,4.148181214386006,-1.1336966817863647,-3.2998418356030217,7.41205836760969
2.844794012467641,1.2918182731198244,4.136844247568142,-1.0595760981102678,-3.364078545799688,7.542426556538112
2.857712195198839,1.2581774876618275,4.1262484865870395,-0.9841518325448866,-3.4244338779675227,7.672335130195479
2.8702939700754575,1.2239331488821523,4.1164069682615905,-0.9074284812429319,-3.480317662591737,7.80096483091859
2.882533301564279,1.189129972256235,4.107332683449161,-0.829418832933746,-3.531142862334664,7.927508273492155
2.894424601286841,1.1538185436328883,4.0990384951198235,-0.7501437501988244,-3.576331695401236,8.05118033114638
2.90596278672317,1.118055226678876,4.091537057617836,-0.6696319468873606,-3.615321625674247,8.171228304457593
2.9171433389899586,1.0819020104221335,4.084840738148962,-0.5879196638427847,-3.6475709767778772,8.286941569051264
2.92796235909418,1.0454263006543547,4.078961541510535,-0.5050502481522721,-3.672563944960666,8.397660408466837
2.9384166221007235,1.008700661204748,4.073911039029012,-0.42107364406760367,-3.689814816619388,8.502783769598919
2.948503628712771,0.9718025130385541,4.069700302588336,-0.33604580637161446,-3.698871239288217,8.601775728061396
2.9582216538431565,0.934813800645672,4.066339844524619,-0.2500280490910005,-3.699316447613895,8.694170516221403
2.967569791849613,0.897820636169533,4.063839564033709,-0.1630863439287865,-3.6907704047711007,8.77957604263138
2.9765479982113083,0.860912932121822,4.062208700594422,-0.07529058350247268,-3.672889880718268,8.857675912184943
2.9851571275325264,0.8241840333146393,4.0614557947593966,0.013286175619376756,-3.6453675470661855,8.92823003504076
2.993398967865673,0.7877303578439775,4.061588656515591,0.10256847596978437,-3.607930219638989,8.991073982799483
3.001276271444113,0.7516510556475876,4.062614341275289,0.1924792157977792,-3.560336420105331,9.046117306904993
3.008792782000589,0.7160476914465344,4.064539133433267,0.28294038886682915,-3.5023734543386214,9.093341072365345
3.0159532589150544,0.6810239569031481,4.0673685373219355,0.3738737995904826,-3.4338542156439176,9.132794876918691
3.022763498484086,0.6466854147467089,4.07110727531784,0.46520174835966954,-3.3546139152518935,9.1645936208695
3.029230352631553,0.61313927559419,4.075759292801437,0.5568476845683645,-3.264506921496479,9.188914267073576
3.035361745387495,0.5804942063792252,4.081327769647121,0.6487368272391003,-3.1634038550866164,9.205992786792006
3.041166687451287,0.5488601678283591,4.087815137919512,0.7407967551070204,-3.0511890440991443,9.216121429628119
3.046655289129571,0.5183482773873677,4.095223105470582,0.8329579694033016,-2.927758392710019,9.219646389763632
3.0518387719034443,0.4890706934602675,4.103552685164615,0.9251544333009379,-2.79301766654569,9.216965871970304
3.056729478838047,0.4611405167948106,4.112804229497625,1.017324092020641,-2.6468811491612065,9.20852849512282
3.061340884005995,0.43467170530319854,4.1229774704178315,1.1094093769718691,-2.489270582465444,9.194831913408233
3.065687601059027,0.4097789994785441,4.1340715641875505,1.2013576961059516,-2.3201142721912933,9.176421490430567
3.0697853910538124,0.3865778567566312,4.14608514114861,1.2931219110102572,-2.139346220139874,9.153888832017868
3.0736511696213786,0.36518439455523244,4.159016360258713,1.3846607993304358,-1.9469051392645644,9.127869971371346
3.077303013566931,0.3457153431625868,4.1728629682520175,1.4759394990441492,-1.7427332159506876,9.09904300532837
3.0807601669985565,0.3282880110030799,4.187622363242459,1.566929929097433,-1.5267745052591455,9.068125001520492
3.084043047108587,0.3130202659504885,4.203291662533434,1.657611179112638,-1.2989728776402998,9.035868030337463
3.087173249768092,0.3000305371740855,4.21986777432456,1.7479698594160127,-1.0592694771196272,9.003054219047923
3.090173555139833,0.2894378424028892,4.23734747291872,1.838000401606492,-0.807599698125249,8.970489773677315
3.093067933563862,0.2813618454216367,4.255727476934785,1.927705299343265,-0.5438897376670047,8.938997962534016
3.0958815520180782,0.2759229480449667,4.275004529928218,2.0170952789686054,-0.2680528282746537,8.90941109899975
3.0986407814985277,0.27324241976222013,4.295175482717903,2.106189389958603,0.020014697878126753,8.882561596317101
3.10137320569615,0.2734425667410014,4.316237376617489,2.195015005921774,0.32043732412106823,8.859272190469243
3.10410763136356,0.2766469399822121,4.338187526676707,2.283607727826466,0.6333640224011918,8.840345436830383
3.106874100763382,0.282980580206224,4.361023603954972,2.37201118219477,0.9589714392585194,8.826552581279246
3.109703906565444,0.29257029459880923,4.38474371577692,2.4602767080075627,1.2974663335100296,8.818621887337343
3.112629609511432,0.3055449579339095,4.4093464828569955,2.5484629268809362,1.6490869952743064,8.81722646914262
3.115685059090771,0.3220358278866526,4.434831112125805,2.6366351915723625,2.0141033721532327,8.822971638115838
3.1189054173696373,0.3421768616081849,4.461197464041528,2.724864907953521,2.3928156282443274,8.836381722091891
3.122327185985719,0.36610501789062816,4.488446113121063,2.81322872517444,2.785550863435164,8.857886262944024
3.1259882361646256,0.3939605265249798,4.516578400372808,2.9018075878038805,3.192657722606086,8.887805445983128
3.1299278414298755,0.42588710375104066,4.5455964762508465,2.9906856422637116,3.6144986258880434,8.926334565350322
3.1341867124673857,0.46203209000992107,4.575503332673484,3.0799489879172146,4.051439351622227,8.973527287866288
3.1388070333674847,0.5025464835261433,4.606302822552656,3.1696842607958775,4.5038357036439765,9.029277446924063
3.143832498202746,0.547584840562583,4.637999665160614,3.259977035265118,4.972016995469664,9.09329908159553
3.149308346608372,0.5973050105172797,4.670599435513266,3.3509100260810736,5.456266088526409,9.165104437888143
3.1552813967135447,0.6518676714025438,4.704108535774076,3.442561070459955,5.956795733557929,9.243979673056067
3.16180007342757,0.711435628738123,4.738534146478676,3.535000867190516,6.473720988844508,9.32895805450152
3.1689144297149516,0.7761728386265682,4.773884155150581,3.628290447735531,7.007027532226073,9.418790527101702
3.1766761581012175,0.8462431139488289,4.810167059627936,3.722478353006548,7.556535753640432,9.511913642309151
3.185138589240706,0.9218084714852333,4.847391843158002,3.8175974894296396,8.121860619525366,9.606415005018778
3.194356673955558,1.0030270776804868,4.885567818052299,3.9136616394798276,8.702367449199938,9.699996605881918
3.204386944732363,1.0900507521724863,4.924704434447097,4.010661605538647,9.297123945547305,9.789936672681828
3.215287452254088,1.1830219916279594,4.964811050502484,4.108560972265465,9.904849086463923,9.873050998003656
3.2271176721703676,1.2820704824925986,5.0058966602251385,4.207291482245502,10.523859815973834,9.94565508190581
3.2399383769952936,1.387309080652337,5.047969575047594,4.30674803306456,11.152016877031164,10.003528862564096
3.253811467801817,1.4988292494226485,5.091037055378239,4.406783321690201,11.786671597949622,10.041886282219146
3.2687997602960435,1.6166959654021447,5.135104888595141,4.507202184512392,12.424615968098449,10.055352427199422
3.2849667199500647,1.7409421250831292,5.180176910440265,4.607755708784387,13.062038890783558,10.037951453318696
3.302376141200896,1.8715625139909648,5.226254467528109,4.708135223317574,13.694492041713282,9.98310891044637
3.3210917663408055,2.0085074344080978,5.273335819761284,4.807966312422037,14.316869232371385,9.88367234547966
3.3411768406848865,2.1516761267318114,5.321415482885504,4.906803035876834,14.923403503352686,9.73195410987904
3.3626936019522047,2.3009101617653385,5.370483513244272,5.004122576975624,15.507686262166654,9.519800035660957
3.385702703569858,2.455987024387005,5.420524739014028,5.099320577332234,16.062712533307042,9.238686982193045
3.410262573813728,2.616614149720075,5.47151794478735,5.191707447154164,16.580955708971942,8.879851121355474
3.4364287153109285,2.782423706809795,5.5234350192588915,5.280505958367719,17.054474001621145,8.434447183864103
3.4642529523790264,2.9529684468260062,5.576240078842568,5.36485043020636,17.475049074535683,7.893736760305126
3.4937826368472864,3.127718937571363,5.629888583144632,5.443787797809411,17.83435510524185,7.24930124986173
3.525059826223,3.3060624886237813,5.684326461122726,5.516280810308028,18.12415395697707,6.493272398240543
3.5581204511092377,3.487304028193552,5.739489269225807,5.581213534290433,18.336509445482644,5.618570897313942
3.5929934913911734,3.6706691226483783,5.795301404568711,5.637399243263572,18.46401125325748,4.6191416616405565
3.629700182617657,3.855309235180953,5.851675397001347,5.683590659879978,18.499997305566456,3.4901736287754486
3.6682532749694667,4.040309208236618,5.908511303600147,5.718492396167733,18.438762852233562,2.228292696500053
3.708656367051833,4.2246968367589535,5.965696227561824,5.740775323132733,18.275745505028425,0.8317190160891127
3.7509033354194226,4.407454291809238,6.0231039807931515,5.749092513293625,18.007678301775574,-0.6996156485451047
3.794977878337515,4.587531074826994,6.0805949059260875,5.742096356808173,17.63270746798695,-2.3639887337515177
3.840853189085785,4.763858149506863,6.138015869494169,5.7184564694706586,17.150477528330526,-4.1578372421534056
3.8884917705808535,4.9353629247901685,6.195200434188876,5.676878097049125,16.562192996854524,-6.075722566712176
3.9378453998287553,5.100984854758714,6.251969215159367,5.6161208713820026,15.870671910774073,-8.110290101003235
3.988855248376342,5.259691573866455,6.308130423873187,5.53501797037197,15.080410604267321,-10.25220294919427
4.0414521641150065,5.410495679909128,6.363480603576907,5.4324959408800275,14.197679950112107,-12.490033131191646
4.095557120914098,5.552472479410249,6.417805562985707,5.307595609568111,13.230669650871894,-14.810103930251023
4.1510818457082,5.684779175918968,6.470881519081389,5.1594945702656005,12.189688362989301,-17.1962936979691
4.20792963746739,5.806676059548861,6.522476464784045,4.98753163328591,11.087413605464967,-19.629833568864544
4.265996398062879,5.917550195603511,6.572351781116904,4.791233297597264,9.939167719987863,-22.08915669317605
4.325171900018914,6.01694187280339,6.620264114092876,4.570341730665504,8.763177046806433,-24.549880647803725
4.385341318746947,6.104573643271454,6.665967531399531,4.324842924187466,7.580754682319666,-26.98502195760696
4.446387055179662,6.180381190094651,6.709215960641405,4.054992704611397,6.416337434970288,-29.36554554874422
4.508190867080609,6.244544564444354,6.749765887687519,3.761337249123955,5.297309955122303,-31.66133623100634
4.570636312725052,6.297517663995577,6.787379260178759,3.4447238868138914,4.253567626567239,-33.842640121926145
4.633611489365008,6.34005334026125,6.821826499046898,3.10629748559463,3.316806268279774,-35.881962232147806
4.697012022767621,6.373221402944047,6.852889473902844,2.747477863273152,2.5195784496124545,-37.756329995425375
4.760744236797061,6.398417187440171,6.880364252535576,2.3699145633188983,1.8942157267293152,-39.44975640828417
4.824728408671462,6.417359344707465,6.9040633981687645,1.9754169992360566,1.4717715684457375,-40.955680858950856
4.888902002118537,6.432077060391922,6.923817568161125,1.5658601906465481,1.2811778413463584,-42.27915100687561
4.953222772722456,6.444888838805386,6.93947617006759,1.143068680577792,1.3488179056278744,-43.43854888830334
5.01767166111051,6.458377017861665,6.9509068568733685,0.7086831916947587,1.6986981702431503,-44.46675975971347
5.082255431289127,6.475363999564096,6.957993688790316,0.264015594097624,2.3533533830304725,-45.411819036273016
5.147009071284768,6.498897533394401,6.9606338447312925,-0.19010259626510617,3.3355632579384142,-46.33722489709855
5.211998046618712,6.532253165973785,6.958732818768642,-0.6534748452360917,4.670906540463659,-47.3222401657839
5.27732057827845,6.578962231378421,6.952198070316281,-1.1266972468939307,6.391144951650163,-48.46259585657223
5.343110200592234,6.6428736808949225,6.940931097847342,-1.611323205459653,8.538407791042085,-49.872017124572025
5.409538937401183,6.728257758805343,6.924817865792745,-2.1100433767053732,11.17009562293414,-51.68486249780806
5.476821514989236,6.839958715034685,6.903717432025691,-2.626892001683454,14.364216864163993,-54.05975233550045
5.545221102139583,6.983600883676325,6.877448512008857,-3.1674895250384587,18.224207986308055,-57.182966139861094
5.615057110976346,7.165842963539405,6.845773616758472,-3.7393191864370694,22.880401954069807,-61.26756893117365
5.68671554061174,7.394646983080103,6.808380424894102,-4.351994875748806,28.48028335697144,-66.53701577676773
5.760662010442541,7.679449816649818,6.764860476136613,-5.017365033516484,35.146758610709966,-73.16373773865979
5.837456508609039,8.030917402756918,6.714686825801449,-5.749002410903081,42.851828943066046,-81.0884539841299
5.917765682636608,8.45943569218758,6.657196801692418,-6.559886950744381,51.081295027616,-89.54532901524885
6.002360039558484,8.970248642463739,6.591597932184975,-7.455340240896869,58.04383940840472,-95.94716184350474
6.092062525983121,9.550687036547785,6.517044529776006,-8.414811859331916,59.18852599803335,-93.80306777019399
6.187569396348599,10.142572296528119,6.4328964111826865,-9.352842537033856,46.054750676866725,-71.1223052372539
6.2889951193138804,10.603119803296787,6.339367985812348,-10.064065589406395,11.160966379454019,-17.357942676194185
6.395026317346848,10.714729467091328,6.238727329918285,-10.237645016168337,-35.72034785915533,53.5914684492086
6.502173612017761,10.357525988499773,6.136350879756601,-9.70173033167625,-66.58257235307447,101.98596394536398
6.605748871902759,9.691700264969029,6.039333576439839,-8.68187069222261,-70.8012934219061,112.513715750617
6.70266587455245,8.983687330749968,5.952514869517613,-7.5567335347164395,-61.09745104492177,102.9015614927017
6.792502747859949,8.37271282030075,5.876947534170449,-6.527717919789422,-48.85697572309098,89.2277510363694
6.876229876062957,7.88414306306984,5.811670354972555,-5.635440409425728,-38.10331193196868,77.29076938877893
6.955071306693656,7.503109943750153,5.755315950878297,-4.862532715537939,-29.46090567883573,68.08399899713785
7.0301024061311574,7.2085008869617955,5.706690623722918,-4.181692725566561,-22.63600211120321,61.265270434088684
7.102187415000776,6.982140865849764,5.664873696467252,-3.569040021225674,-17.21654877244043,56.28859008877387
7.172008823659273,6.809975378125359,5.629183296254995,-3.006154120337935,-12.861400205994057,52.67932254185815
7.240108577440527,6.681361376065419,5.599121755051615,-2.4793608949193535,-9.321015455060609,50.07004564608513
7.306922191201181,6.588151221514813,5.574328146102422,-1.9786604384585023,-6.4208662482729375,48.18197098304323
7.372803703416329,6.523942559032084,5.554541541717837,-1.49684072862807,-4.041489155564996,46.80069304100919
7.43804312900665,6.483527667476434,5.539573134431556,-1.028833798217978,-2.1022599431040576,45.75706589563975
7.502878405681415,6.4625050680453935,5.529284796449376,-0.5712631392615806,-0.5492174772137557,44.914209068263624
7.567503456361869,6.457012893273256,5.523572165056761,-0.12212104857894435,0.6540437066934465,44.15950857929038
7.632073585294601,6.463553330340191,5.522350954570971,0.3194740372139595,1.533334125130358,43.40026889621356
7.696709118598004,6.478886671591495,5.52554569494311,0.7534767261760951,2.109283472275343,42.56183665933763
7.761497985313919,6.499979506314248,5.533080462204872,1.1790950927694714,2.401510118418654,41.58718817118098
7.8264977803770615,6.523994607498435,5.544871413132566,1.5949669744812813,2.431642780939528,40.437108928741935
7.891737726452046,6.54831103530783,5.5608210828773785,1.9993380637687008,2.2251921371888956,39.09023440241648
7.957220836805124,6.570562956679719,5.580814463515066,2.3902404077928656,1.812270432385032,37.54240654756508
8.02292646637192,6.588685661003569,5.604716867592995,2.7656644732685165,1.2272336176648786,35.805041013360025
8.088813322981956,6.600957997180218,5.63237351232568,3.123714883402117,0.5074349903875436,33.90247098576633
8.154822902953757,6.606032347084093,5.6636106611597015,3.46273959325978,-0.3086138815865666,31.86848491960846
8.220883226424599,6.602946208268227,5.6982380570923,3.7814244424558647,-1.1833194311710835,29.742452992363088
8.28691268850728,6.591113013956516,5.7360523015168585,4.078848972379496,-2.0819718672154246,27.56550590725181
8.352823818646845,6.570293295284362,5.776840791240653,4.354504031452014,-2.9743243069833567,25.377187259175237
8.418526751599689,6.540550052214528,5.820385831555174,4.608275904043766,-3.8356207499014894,23.212875766545668
8.483932252121834,6.502193844715514,5.866468590595612,4.840404661709223,-4.647028208855143,21.10211220952234
8.548954190568988,6.455723562626962,5.914872637212704,5.051425783804446,-5.395528529757919,19.067813126616816
8.613511426195258,6.401768277329382,5.965386895050749,5.242103915070614,-6.073390059429063,17.12624023466012
8.677529108968551,6.341034376735092,6.017807934201455,5.413366317417215,-6.677365652762007,15.287533159276068
8.740939452735903,6.274260720207471,6.071941597375627,5.566241649009976,-7.207758614569364,13.556599307080091
8.803682059937978,6.2021831340617775,6.127604013865727,5.7018076420807775,-7.667473581054006,11.934175252417573
8.865703891278596,6.125508398251237,6.184622090286535,5.821149394604953,-8.061136446083905,10.417913197992855
8.926958975261108,6.044897033790399,6.242833584232584,5.925328526584882,-8.3943347970589,9.003390614846378
8.987407945599012,5.96095368581981,6.302086869498433,6.015362432733346,-8.673002937869366,7.684982172349766
9.04701748245721,5.874223656441116,6.362240493825767,6.092212254456843,-8.902955354073411,6.456566011633444
9.105759719021622,5.785194102900382,6.423162616370336,6.156777914573177,-9.089559254119715,5.312060099522115
9.163611660050625,5.694298510359185,6.484730395516068,6.209898515568399,-9.237529360511282,4.245799646962003
9.220554645154216,5.601923216754072,6.546829380671752,6.252356512038019,-9.35082485653468,3.252775122466251
9.276573877321757,5.508414968188725,6.609352945792132,6.284884263262682,-9.432627862520972,2.3287541420682936
9.331658027003645,5.414088689563515,6.672201788424759,6.308171804683365,-9.485383879154249,1.4703111405879283
9.38579891389928,5.319234850771973,6.735283506471593,6.322874916089244,-9.510886504579023,0.6747874997747279
