th1 (rad),w1 (rad/s),th2 (rad),w2 (rad/s)
0.48953215744476786,-1.9954449162577435,1.1502217356039142,-1.374048350762982
0.4695777082821904,-1.9886513911076122,1.1364812520962844,-1.4933068246013939
0.4496911943711143,-1.9783981771300052,1.1215481838502703,-1.6147269666899609
0.4299072125998143,-1.9645676659794848,1.1054009141833707,-1.7381901828220987
0.41026153594001946,-1.9470404989163472,1.0880190123551496,-1.8635784331616316
0.390791130950856,-1.9256974653882806,1.0693832280235334,-1.9907748994841705
0.3715341562969732,-1.900421644967567,1.0494754790286918,-2.11966463662931
0.3525299398472975,-1.871100819489801,1.0282788326623986,-2.2501351478439084
0.3338189316523995,-1.8376301947166445,1.0057774811839595,-2.3820767984864464
0.31544262970523307,-1.799915487390346,0.981956713199095,-2.5153829517999338
0.2974434748313296,-1.7578764552623087,0.9568028836810957,-2.6499496728711893
0.2798647102787065,-1.711450975773625,0.9303033869523838,-2.785674801001924
0.26275020052097026,-1.6605998147589773,0.9024466389423645,-2.922456134940503
0.24614420237338047,-1.6053122708427372,0.8732220775929596,-3.0601884083067534
0.2300910796649531,-1.5456129344878262,0.842620193509892,-3.1987586532314047
0.21463495032007485,-1.4815698619997335,0.810632606977578,-3.338039459366013
0.1998192517000775,-1.4133045306817578,0.7772522123839178,-3.4778795367002564
0.18568620639325992,-1.3410040037495603,0.7424734170169153,-3.6180908934315914
0.17227616635576432,-1.2649357769058067,0.7062925080825994,-3.7584318636613547
0.15962680858670625,-1.1854657749332498,0.6687081894459859,-3.8985851990890814
0.14777215083737374,-1.1030798705226545,0.6297223374550951,-4.038130533601244
0.1367413521321472,-1.0184090381713247,0.5893410321190826,-4.176510833309344
0.12655726175043394,-0.932257732547671,0.5475759237859892,-4.312993093214404
0.11723468442495723,-0.8456341642177299,0.5044459928538452,-4.4466247127368765
0.10877834278277992,-0.7597796996186602,0.4599797457264764,-4.576188869140389
0.10118054578659333,-0.676192550635614,0.41421785703507247,-4.7001649439029585
0.09441862028023719,-0.5966383238043922,0.3672162075960429,-4.81670355949005
0.08845223704219327,-0.5231373062192509,0.3190491720011424,-4.923629500335614
0.08322086398000075,-0.45791658163433613,0.2698128769977863,-5.018488401869319
0.07864169816365739,-0.40331587135629143,0.21962799297909308,-5.098652362265383
0.07460853945009448,-0.36164141370576447,0.16864146935643926,-5.161492819223342
0.07099212531303684,-0.3349735862423206,0.11702654116420584,-5.204614269997316
0.06764238945061363,-0.3249502802971694,0.06498039846423267,-5.226121034488548
0.06439288664764194,-0.33256431283302773,0.012719188119347191,-5.224867816576169
0.061067243519311656,-0.3580212023651872,-0.0395294900464145,-5.200634228259806
0.057487031495659785,-0.40069604597299113,-0.09153583232901255,-5.154173523060342
0.053480071035929874,-0.4592043030388255,-0.14307756755961598,-5.087117362531545
0.04888802800554162,-0.5315697924951254,-0.19394874118493144,-5.001759669745618
0.04357233008059037,-0.6154481890044605,-0.2439663378823876,-4.900774795245891
0.03741784819054576,-0.7083561652126575,-0.2929740858348465,-4.786934758851632
0.030334286538419186,-0.8078656539090034,-0.3408434334233628,-4.66287692431087
0.022255629999329153,-0.9117416507515158,-0.38747220266647153,-4.530947913251271
0.013138213491813995,-1.0180207754550576,-0.43278168179898424,-4.393124908912723
0.0029580057372634184,-1.12504031622329,-0.47671293088811145,-4.250999655819151
-0.008292397424969481,-1.2314325267402622,-0.5192229274463029,-4.105804641560092
-0.020606722692372105,-1.3360985129907061,-0.5602809738619039,-3.958462251780311
-0.03396770782227917,-1.4381729021641896,-0.599865596379707,-3.8096423385039486
-0.04834943684392107,-1.536986748965328,-0.6379620197647465,-3.65981882960801
-0.06371930433357435,-1.6320329365992763,-0.6745602080608266,-3.5093203017170618
-0.08003963369956711,-1.7229360359970796,-0.7096534110779973,-3.3583724321351247
-0.0972689940595379,-1.8094271457161943,-0.7432371353993485,-3.2071320664418987
-0.11536326551669984,-1.8913234403887131,-0.7753084560637675,-3.055713597754068
-0.134276499920587,-1.968511790142208,-0.8058655920413083,-2.9042087584228096
-0.15396161782200907,-2.040935704022008,-0.8349076796255364,-2.752701010811971
-0.17437097486222913,-2.1085848779208076,-0.8624346897336561,-2.601275648119121
-0.1954568236414372,-2.1714867175556836,-0.8884474462148473,-2.45002657371659
-0.21717169081699406,-2.22969931705658,-0.9129477119520132,-2.299060569992625
-0.23946868398755985,-2.283305481521457,-0.9359383176519395,-2.1484997202569036
-0.2623017388027744,-2.332407477332733,-0.9574233148545085,-1.9984825197447351
-0.28562581357610173,-2.377122273737362,-0.9774081400519559,-1.849164105868649
-0.30939703631347537,-2.4175771032822446,-0.9958997811106424,-1.7007159515967407
-0.3335728073462978,-2.453905218930907,-1.0129069406266098,-1.5533252957002615
-0.35811185953560687,-2.4862417644981876,-1.0284401935836125,-1.407194525834354
-0.38297427718058874,-2.5147197050479475,-1.042512138841956,-1.2625406814320805
-0.4081214742310682,-2.53946578771088,-1.0551375456562768,-1.119595199996155
-0.433516132108177,-2.56059652352283,-1.0663334976562384,-0.9786039896904396
-0.4591220973434053,-2.5782141998002617,-1.0761195375531427,-0.8398278705378943
-0.4849042393414079,-2.592402952611867,-1.0845178162585216,-0.7035433835733442
-0.5108282688675266,-2.603224952299642,-1.091553250094255,-0.5700439197008349
-0.5368605183905231,-2.610716783734373,-1.0972536892912634,-0.43964106577785433
-0.5629676862278667,-2.614886138574455,-1.101650099949042,-0.31266600318478754
-0.5891165476136113,-2.6157089798900257,-1.1047767599808898,-0.18947072353709854
-0.6152736374125116,-2.6131273893324827,-1.1066714672162608,-0.07042874886997334
-0.6414049113058364,-2.6070483605673616,-1.1073757547049605,0.04406503582752262
-0.6674753949115101,-2.597343853806594,-1.1069351043466853,0.15359590257483682
-0.6934488334495761,-2.58385246484061,-1.1053991453209369,0.2577326694222015
-0.7192873580979822,-2.5663830734166364,-1.102821818626715,0.35603348555325487
-0.7449511888321485,-2.5447208017016134,-1.0992614837711823,0.4480544833202192
-0.7703983968491647,-2.5186355138881886,-1.0947809389379801,0.5333616180963894
-0.7955847519880466,-2.487892905818395,-1.0894473227570163,0.6115457507155619
-0.8204636810462305,-2.4522679621563044,-1.0833318652498607,0.682240637597758
-0.8449863606677935,-2.411560210472129,-1.076509458873883,0.745143000104848
-0.8691019627725148,-2.3656098154999605,-1.0690580288728346,0.8000333043264148
-0.8927580609275144,-2.3143132004186944,-1.0610576958295705,0.8467953924375231
-0.9159011929317014,-2.2576366437799806,-1.0525897419051953,0.8854327923571317
-0.9384775593695012,-2.195626269852695,-1.043735413981624,0.9160795182636301
-0.9604338220680281,-2.1284130869606455,-1.0345746187989877,0.9390035424167412
-0.9817179529376345,-2.0562122349412886,-1.0251845833748203,0.9546018666371993
-1.0022800752870473,-1.9793163077650204,-1.0156385647084483,0.963387143112398
-1.0220732383646975,-1.8980833857697939,-1.0060046932773243,0.96596689323805
-1.0410540722223955,-1.81292108171523,-0.9963450243449439,0.9630173176489204
-1.0591832830395478,-1.7242683363591462,-0.9867148511684547,0.9552542828986959
-1.0764259664031393,-1.632576818409179,-0.9771623083394677,0.9434042084054401
-1.092751734587231,-1.5382935997924436,-0.9677282662554133,0.9281772793493558
-1.1081346705851556,-1.4418463702834259,-0.9584464934619198,0.9102447962099692
-1.1225531342879898,-1.3436319422879606,-0.9493440454998201,0.8902217098173175
-1.1359894537108695,-1.2440082913235049,-0.9404418284016469,0.8686546476270863
-1.1484295366241044,-1.143289963895683,-0.931755281925376,0.8460151322607865
-1.1598624362630612,-1.041746403237312,-0.9232951306027681,0.8226972854881074
-1.1702799002954343,-0.9396025977127773,-0.9150681577478871,0.7990191027121294
-1.179675926272562,-0.83704142399656,-0.9070779667207658,0.7752263407385992
-1.1880463405125277,-0.7342071034730624,-0.8993257033133798,0.7514981350691227
-1.1953884115472584,-0.6312092815784184,-0.8918107219626886,0.727953602046545
-1.2017005043630427,-0.5281273482442906,-0.8845311859422231,0.7046588451492013
-1.2069817778454857,-0.4250147240625334,-0.8774845974907312,0.6816339454804755
-1.211231925086111,-0.32190293026441114,-0.8706682580359264,0.6588596578577128
-1.2144509543887552,-0.2188053364230398,-0.8640796614573493,0.6362836489659747
-1.2166390077529856,-0.11572053748741039,-0.8577168249676895,0.6138262020950297
-1.2177962131278597,-0.012635353277487923,-0.8515785629467393,0.5913853768304693
-1.2179225666606346,0.09047252809750599,-0.8456647091784346,0.5688416560912003
-1.2170178413796595,0.19363222310235612,-0.8399762926175226,0.546062141772016
-1.215081519148636,0.2968775908734612,-0.8345156711998024,0.5229043782512443
-1.2121127432399013,0.4002453788914215,-0.82928662741729,0.4992198937552435
-1.208110289450987,0.5037735146790819,-0.8242944284797376,0.47485755586095263
-1.2030725543041962,0.6074994793789774,-0.819545852921128,0.44966684136915974
-1.1969975595104065,0.7114586967583979,-0.8150491845074365,0.42350112386613115
-1.1898829725428226,0.8156828685366323,-0.8108141732687751,0.39622108543584816
-1.1817261438574562,0.9201981836123224,-0.8068519624144167,0.36769836262751066
-1.172524162021333,1.0250233247897327,-0.8031749787881416,0.3378195408844964
-1.1622739287734356,1.130167192308393,-0.7997967833792966,0.3064906156401752
-1.1509722568503518,1.2356262596412797,-0.7967318772228948,0.27364204098821043
-1.138615994253939,1.3413814749603428,-0.7939954568130128,0.23923448623290208
-1.1252021795043354,1.4473946234123194,-0.7916031119506838,0.2032654136524066
-1.1107282332702122,1.5536040738685697,-0.7895704578141597,0.16577657304292898
-1.0951921925315264,1.6599198532198656,-0.7879126920837304,0.1268624739791424
-1.0785929939993277,1.7662180269894519,-0.786644067343939,0.0866798372889776
-1.0609308137294333,1.872334423716439,-0.7857772689710493,0.045457933271648314
-1.042207469492269,1.9780578297592641,-0.7853226896383327,0.003509574804357714
-1.0224268911946763,2.0831229081946203,-0.7852875938902891,-0.03875766170939114
-1.0015956621127302,2.1872032652548583,-0.785675170507383,-0.08083067230969523
-0.9797236294601817,2.2899052991656603,-0.78648347723048,-0.12208152109000694
-0.956824576468525,2.3907637069973453,-0.7877042924413801,-0.16176095749833977
-0.9329169393985516,2.4892397652974934,-0.7893219020163634,-0.19899647330262238
-0.9080245417455767,2.5847236863917624,-0.7913118667493897,-0.23279689049134417
-0.882177304881659,2.6765424053812388,-0.7936398356543032,-0.26206554556268447
-0.8554118808278466,2.7639739757007,-0.79626049110993,-0.285623867360875
-0.8277721410708396,2.84626924983035,-0.7991167297835388,-0.3022463965158712
-0.7993094485725362,2.92268064536243,-0.8021391937486975,-0.31070698845449035
-0.7700826421189119,2.9924965874238647,-0.8052462636332424,-0.30983413849727787
-0.7401576762446732,3.0550788544113585,-0.8083446050182151,-0.2985713242814409
-0.7096068877005596,3.109898851873493,-0.8113303182610295,-0.276036438970748
-0.6785078991818246,3.156568190230991,-0.814090682650737,-0.24157336158589296
-0.6469422172795147,3.1948591774261548,-0.8165064162665959,-0.19478897049398017
-0.6149936255052532,3.224712071220281,-0.8184543059715357,-0.13557063353196996
-0.5827465047930503,3.2462279627316604,-0.8198100123068554,-0.064082123367395
-0.5502842251657337,3.2596484900901355,-0.8204508335405293,0.019260692774688018
-0.5176877402648323,3.2653255987707803,-0.8202582266127824,0.11383003706581349
-0.48503448427712453,3.263685778842455,-0.8191199262421243,0.21883605067746711
-0.45239762648869997,3.2551934151443387,-0.8169315657353496,0.3333796100914938
-0.41984569233725655,3.2403172050381297,-0.8135977696344348,0.4565023363202014
-0.38744252028687526,3.2195023724699414,-0.8090327462712328,0.5872296884010173
-0.35524749656217586,3.193150036606942,-0.8031604493872226,0.7246049676894363
-0.32331599619610646,3.161603896823572,-0.7959143997103283,0.8677137812492558
-0.29169995722787073,3.1251435453768375,-0.7872372618978357,1.015699761778571
-0.2604485217741024,3.0839832471582986,-0.7770802642800501,1.1677730578700782
-0.2296086893025194,3.0382748723207236,-0.7654025337013493,1.323213366901642
-0.19922594057931217,2.988113733354794,-0.7521704000323328,1.4813692181197882
-0.16934480324576423,2.9335462653913966,-0.7373567078511349,1.6416549626631987
-0.14000934059185027,2.874578721010024,-0.720940158224503,1.8035465994011683
-0.11126355338175004,2.811186279727508,-0.7029046922304912,1.9665772326069804
-0.08315169058447495,2.7433221724435266,-0.6832389199044214,2.1303326587357727
-0.055718468860039685,2.670926584246915,-0.6619355933170638,2.2944473299635817
-0.029009203017570536,2.5939352273088594,-0.638991120017428,2.458600741714105
-0.0030698507444819403,2.512287576510721,-0.614405112600287,2.6225141322860916
0.022053025020625273,2.4259348432568544,-0.588179971277426,2.785947253795619
0.04631237345319382,2.3348478368277084,-0.5603204987394699,2.9486948633159518
0.0696608518214709,2.239024935786203,-0.5308335501063104,3.110582480510454
0.09205110117933293,2.1385004708738737,-0.49972772530120585,3.2714608539334717
0.11343610588807167,2.0333539098464257,-0.4670131167618711,3.431198465456563
0.13376964498653593,1.9237203349881171,-0.4327011321073055,3.5896712773104107
0.1530068483364171,1.8098028118563247,-0.3968044193342014,3.746748791151911
0.17110487645498035,1.6918873512117467,-0.3593369314226823,3.9022753556658665
0.1880237499670978,1.570361239615455,-0.3203141778660236,4.056045558322908
0.20372736236325237,1.4457355106095886,-0.27975372228279455,4.2077725268549715
0.21818471746934825,1.318672167503331,-0.23767599701424483,4.357048150603773
0.23137143914438157,1.1900163242729385,-0.1941055155082071,4.503294779008359
0.24327160238711096,1.0608325212103764,-0.1490725677181235,4.645709111112791
0.25387992759921474,0.932442867104921,-0.10261547660699558,4.783201075450147
0.26320435627026395,0.806462133627921,-0.054783465852494106,4.914333840869231
0.27126897760654317,0.6848213940866565,-0.005640127443801796,5.037275849155499
0.2781171915474097,0.5697675790236092,0.04473263104775319,5.1497815387609585
0.2838148673376458,0.4638225385881296,0.09623044643536277,5.249222779019608
0.28845309272352715,0.36968414598989624,0.14872267422555885,5.33269491063339
0.2921499341834261,0.29005699335331336,0.20204962333189275,5.397215174395907
0.29505050411695927,0.22741444059069738,0.25602177507585183,5.440012919979805
0.2973246485228662,0.18371722793975853,0.31042190427564986,5.458880102558416
0.2991618208022638,0.16014022745545162,0.36501070530123403,5.452515540949812
0.3007632230768183,0.1568750841959229,0.4195358607107321,5.42077472227422
0.30233197391877753,0.17306866739860097,0.4737436079334743,5.364747077131081
0.30406266059276355,0.2069219149931246,0.5273910787047851,5.2866292216717445
0.3061318797426948,0.2559244359166916,0.5802573709215025,5.189427314332697
0.3086911241018617,0.3171612813236088,0.6321516440648295,5.076572165689556
0.3118627369150978,0.38761755367015266,0.682917365721725,4.9515435100206275
0.31573891245179936,0.4644239855357109,0.7324328008219313,4.817575546798921
0.32038315230715647,0.5450176626396754,0.7806085562899205,4.677474433394153
0.3258333289335532,0.6272201692859838,0.8273833006238621,4.533541809295577
0.33210553062641307,0.7092517852304578,0.8727187187168179,4.387577939600933
0.33919804847871765,0.789704849484429,0.9165944981128272,4.240933316856964
0.34709509697356195,0.8674963995048818,0.9590038312813969,4.094582427407864
0.35577006096861075,0.9418143360574112,0.9999496555554755,3.949201627968325
0.36518820432918486,1.0120656391564664,1.039441671835159,3.805240807593519
0.37530886072074954,1.0778308203848823,1.0774940799110941,3.662984198148701
0.3860871689245984,1.138826001420418,1.1141239218925811,3.522599243709468
0.39747542893880256,1.194872448068089,1.149349914329676,3.3841743308725896
0.40942415341948346,1.2458726595834593,1.1831916576384018,3.247746991548496
0.42188288001531804,1.291791876757299,1.215669127553887,3.113324379126875
0.434800798782891,1.33264389510627,1.2468023713451557,2.9808976985472015
0.44812723773395374,1.3684802077901228,1.2766113483306276,2.8504520258872006
0.461812039811855,1.3993816765266243,1.3051158685894997,2.7219726826696258
0.4758058565771212,1.4254520977883678,1.332335595416196,2.5954490807326334
0.49006037755500487,1.4468131789270382,1.3582900862235223,2.4708767425507303
0.5045285093442753,1.463600559745864,1.3829988536490296,2.348258031894696
0.5191645149417339,1.4759606104334246,1.4064814339679765,2.227601996693032
0.5339241210460681,1.4840478100551662,1.4287574539349068,2.108923623710151
0.5487645991466198,1.4880225649518581,1.4498466901720084,1.992242726880402
0.5636448247961384,1.4880493671876382,1.4697691174408125,1.8775826322861007
0.5785253184680148,1.4842952228737456,1.4885449437636735,1.7649687783136145
0.5933682706967522,1.4769283014285453,1.5061946315468098,1.654427315923908
0.6081375537110377,1.4661167717339663,1.522738904706049,1.545983768539528
0.6227987214283774,1.4520278013605548,1.5381987423914443,1.4396617917646812
0.637318999441983,1.4348267018254897,1.5525953603090912,1.3354820585274199
0.6516672664602379,1.4146762071858296,1.5659501808943654,1.2334612841628123
0.6658140285320961,1.3917358758825764,1.5782847937359936,1.1336113976302666
0.6797313872909219,1.366161607186244,1.5896209077122962,1.0359388588716067
0.6933930033627843,1.3381052642564708,1.5999802963010124,0.9404441178128655
0.706774056005349,1.3077143960128994,1.609384737479141,0.8471212073422641
0.7198511999654781,1.2751320499347,1.6178559495525637,0.7559574604859256
0.7326025204648251,1.2404966677106755,1.625415524157423,0.6669333407330084
0.7450074871419319,1.2039420554514664,1.632084857564753,0.5800223738551246
0.7570469076964466,1.1655974200144605,1.6378850813033043,0.49519116947374137
0.7687028818965912,1.1255874629182188,1.6428369929980418,0.41239952093035714
0.7799587565257734,1.0840325233548695,1.6469609882073453,0.33160057260370823
0.7907990817593221,1.0410487619505364,1.6502769939333823,0.2527410446086892
0.8012095693788275,0.9967483771707585,1.6528044043794692,0.17576150573000704
0.811177053150535,0.9512398466093325,1.6545620194367692,0.10059668642954332
0.8206894516166283,0.9046281858208396,1.6555679863010646,0.027175824771177026
0.8297357334748368,0.8570152178433624,1.6558397445487765,-0.04457696090795894
0.8383058856532704,0.8084998470920666,1.6553939749396969,-0.1147422778141556
0.8463908841241911,0.7591783318702329,1.6542465521615553,-0.18340504736859908
0.8539826674428934,0.709144550326591,1.6524125016878692,-0.2506540803152951
0.8610741129461593,0.6584902552720917,1.6499059608847162,-0.3165816411509024
0.8676590154988802,0.6073053138424376,1.6467401444732073,-0.3812830041558987
0.8737320686373046,0.5556779285428535,1.6429273144316483,-0.44485600278724846
0.8792888479227331,0.5036948367280127,1.6384787544037758,-0.5074005737532148
0.8843257962900132,0.4514414860432093,1.6334047486662435,-0.5690182967213357
0.8888402111504453,0.39900218377438046,1.6277145656990302,-0.6298119302990847
0.8928302329881891,0.346460218417179,1.6214164463960392,-0.6898849446603855
0.8962948351723609,0.2938979520728386,1.6145175969494354,-0.7493410509564772
0.8992338146930893,0.24139688250612606,1.6070241864398707,-0.8082837274332212
0.9016477835181506,0.18903767385448567,1.5989413491655384,-0.8668157419660316
0.9035381602566954,0.13690015505511105,1.5902731917458781,-0.9250386705063736
0.9049071618072465,0.08506328505701727,1.5810228050408144,-0.9830524106997472
0.9057577946578167,0.03360508380854845,1.571192280933817,-1.0409546896753052
0.9060938454959022,-0.01739747214102875,1.560782734037064,-1.0988405647144917
0.9059198707744919,-0.06786859081069652,1.549794328389919,-1.1568019151749205
0.9052411848663849,-0.11773384440250215,1.5382263092381698,-1.214926923672593
