th1 (rad),w1 (rad/s),th2 (rad),w2 (rad/s)
6.105988713545434,1.1796958023514337,5.859796770336323,-2.144331679199724
6.1177856715689485,1.1617647150438777,5.838353453544325,-2.0832860452559845
6.129403318719387,1.1396358999406755,5.817520593091765,-2.0161229611101934
6.140799677718793,1.1139321424347322,5.7973593634806635,-1.9436702762525497
6.151938999143141,1.0852541181321287,5.777922660718138,-1.8667287079133885
6.162791540324462,1.054161592932101,5.759255373639005,-1.7860469445685316
6.173333156253783,1.0211609334713343,5.741394904193319,-1.7023052508990524
6.183544765588496,0.9866982822854045,5.724371851684328,-1.6161066809188052
6.19341174841135,0.951157354838267,5.70821078487514,-1.5279744698061097
6.202923321959733,0.9148606895624183,5.692931040177079,-1.4383540096045464
6.212071928855357,0.8780732448444842,5.6785475000810335,-1.347617905545572
6.220852661303802,0.8410074051791625,5.665071321025578,-1.2560728437625948
6.229262735355594,0.8038286663808342,5.6525105925879515,-1.163967287118241
6.237301022019402,0.7666614731701017,5.640870919716769,-1.07149929439069
6.2449676367511024,0.7295948581539569,5.630155926772862,-0.9788239974895283
6.252263585332642,0.6926876703739061,5.620367686797967,-0.8860604600997989
6.259190462036381,0.6559732844341488,5.611507082196969,-0.7932977798887695
6.265750194880723,0.6194637525729951,5.603574104398081,-0.7006003920472899
6.271944832406453,0.5831534083700545,5.596568100477609,-0.6080125935008188
6.277776366490153,0.5470219584813966,5.590487974542601,-0.5155623434536744
6.283246586074967,0.5110371133729964,5.585332351108064,-0.4232644145924688
6.2883569572086975,0.4751568138448018,5.581099706962139,-0.33112297623700093
6.2931085253471455,0.4393311104641601,5.577788477199769,-0.2391336904209374
6.297501836451787,0.4035037501815974,5.575397140295559,-0.14728539745027738
6.301536873953603,0.3676135199739307,5.5739242863210565,-0.055561461058719216
6.305213009153342,0.3315953923966244,5.573368671710469,0.03605916375069
6.3085289630773085,0.295381513093091,5.573729263347976,0.12760108384496255
6.311482778208239,0.2589020660079784,5.5750052741864256,0.21909179170799709
6.314071798868318,0.22208604852181688,5.577196192103505,0.31056111428101285
6.316292659353537,0.1848619861018622,5.580301803246315,0.40204074497520975
6.318141279214555,0.1471586144291978,5.584322210696067,0.4935638191630504
6.319612865358847,0.10890555637134491,5.589257848887698,0.5851644942492804
6.32070192092256,0.07003402167458442,5.595109493830191,0.676877494717527
6.321402261139306,0.030477558910340916,5.601878268777366,0.7687375802611972
6.321707036728409,-0.009827107902560701,5.609565644579978,0.8607788911342953
6.321608765649383,-0.05093912137979266,5.618173433491321,0.9530341190736721
6.321099374435585,-0.09291236934342809,5.6277037746820575,1.0455334444150373
6.320170250742151,-0.13579415061225536,5.6381591091262075,1.13830317023382
6.318812309236028,-0.17962357020449055,5.6495421408285456,1.2313639724359327
6.317016073533983,-0.2244295962338185,5.661855780552905,1.3247286707926602
6.314771777571645,-0.2702286997905014,5.675103067260832,1.4183994103156445
6.31206949057374,-0.31702198768090195,5.689287061363988,1.5123641259181955
6.308899270696931,-0.36479172724926134,5.70441070262317,1.6065921475658
6.305251353424438,-0.4134971546678176,5.720476624098827,1.7010287907864352
6.30111638187776,-0.46306945634172125,5.737486912006692,1.7955887728946922
6.296485687314343,-0.5134058224720502,5.755442799735639,1.890148305397192
6.291351629089623,-0.5643624997317582,5.7743442827896105,1.984535747842841
6.285708004092305,-0.615746826716555,5.794189640268039,2.078520781957809
6.279550535825139,-0.6673083348165738,5.814974848087617,2.1718021958626883
6.2728774524769735,-0.718729154664419,5.836692870046244,2.263994579085452
6.26569016093033,-0.7696142014246403,5.8593328158370985,2.354614543919971
6.257994018916083,-0.8194819341957252,5.882878961276298,2.4430675265321877
6.2497991995741256,-0.867756896585227,5.90730963654162,2.5286367844895454
6.241121630608273,-0.9137657218665917,5.932596004386515,2.6104768629191395
6.231983973389607,-0.9567387575265067,5.958700773015707,2.687614455389013
6.222416585814342,-0.9958197985061031,5.985576917569597,2.758960057880008
6.2124583878292805,-1.030086414409065,6.013166518148397,2.8233338284000755
6.20215752368519,-1.0585827643011492,6.041399856432398,2.8795082779344336
6.191571696042178,-1.0803653894935903,6.070194939211742,2.926268520731709
6.180768042147243,-1.0945601922463974,6.099457624419059,2.962487707559881
6.169822440224778,-1.1004258953210468,6.129082501494658,2.9872112935461095
6.158818181271568,-1.097416400670596,6.158954614430119,2.9997398673368116
6.147844017264862,-1.085232629858048,6.188952013103487,2.9996977699294525
6.136991690966281,-1.0638546346828046,6.218948990802781,2.9870750318226973
6.126353144619452,-1.0335474913476868,6.248819741121008,2.9622339049318125
6.116017669705975,-0.9948392744560814,6.2784420801703265,2.925877816735192
6.106069276961414,-0.9484748694322505,6.307700858337679,2.8789880245711403
6.096584528267092,-0.8953537823518456,6.33649073858339,2.8227392062031154
6.087630990443574,-0.8364621442748766,6.3647181306454215,2.758407917637006
6.079266369000825,-0.7728084785659686,6.392302209821792,2.687286888629168
6.0715382842151655,-0.7053701855305782,6.419175078708084,2.6106144715022666
6.06448458235986,-0.6350542816424809,6.445281223423106,2.5295238477590907
6.058134039543435,-0.5626728061645607,6.470576461900698,2.445012331569712
6.052507311481789,-0.4889311199307683,6.495026585216395,2.357928159095953
6.0476180002824815,-0.414426213902367,6.518605866807354,2.268970697534839
6.043473738143458,-0.33965192435978053,6.541295573782702,2.178699765141477
6.04007721889986,-0.26500829181362606,6.5630825714341166,2.087550267444569
6.037427135981724,-0.19081289690499917,6.583958074108562,1.9958492038951208
6.035519007012674,-0.11731264288125028,6.603916566147513,1.9038329885615313
6.034345880583861,-0.044695011078185395,6.622954896033128,1.8116637976286143
6.033898930473079,0.02690175286636455,6.641071534009414,1.719444246058083
6.034167948001742,0.097379759993485,6.658265976469995,1.627230107240825
6.035141745601677,0.16667394682288228,6.674538277542403,1.5350410525334046
6.036808485069906,0.23474581617004314,6.689888688067738,1.4428695396651936
6.039155943231606,0.301578314066351,6.70431738346439,1.35068805467045
6.04217172637227,0.3671716832476036,6.717824264011094,1.2584549387957455
6.045843443204745,0.43154013198209246,6.730408813399052,1.1661190298114936
6.050158844524566,0.4947091672438969,6.742070003697167,1.0736233299402524
6.055105936197005,0.5567134569277821,6.75280623699657,0.9809078889192709
6.060673070766283,0.6175951029905384,6.762615315885762,0.8879120657863337
6.066849021796188,0.677402223821342,6.771494436543626,0.7945763097510758
6.0736230440344015,0.7361877586011116,6.779440199641137,0.7008435804635448
6.080984921620413,0.794008418371251,6.7864486354457725,0.606660511721155
6.088925005804126,0.8509237178297935,6.792515240562984,0.5119784102823394
6.097434242982423,0.9069950285346964,6.797635024665807,0.41675417285478666
6.10650419326777,0.9622845983332642,6.801802566394355,0.3209511992717522
6.1161270392511025,1.016854483596794,6.8050120783870724,0.22454037810848754
6.12629558408707,1.0707653403721258,6.807257482168158,0.12750122226970373
6.1370032374907915,1.124075018031744,6.808532494390855,0.029823236136352627
6.148243987671109,1.1768368946191743,6.808830726752219,-0.06849239761773689
6.160012356617301,1.2290978871530411,6.808145802776042,-0.1674307148860409
6.172303335488832,1.2808960631650845,6.806471495627181,-0.26696034414870157
6.185112296120483,1.3322577725168696,6.803801892185694,-0.3670302410841849
6.198434873845652,1.383194212383949,6.800131589774852,-0.46756565880577483
6.212266815969491,1.4336973352913058,6.795455933186795,-0.5684632248881968
6.226603789322404,1.4837350133964438,6.789771300937913,-0.6695850014111817
6.241441139456368,1.533245386501914,6.783075450923801,-0.7707514246977583
6.2567735933213875,1.5821303531062354,6.775367936676823,-0.8717330663805823
6.27259489685245,1.6302482219923444,6.766650606013018,-0.9722412391279658
6.288897379072373,1.6774056375063355,6.7569281936217385,-1.0719176041950766
6.305671435447437,1.7233490374852176,6.746209017579788,-1.1703231415097426
6.3229049258222885,1.7677561109833695,6.73450578616469,-1.266927133147368
6.340582486932123,1.81022800103587,6.721836514833217,-1.3610971980361972
6.358684766942481,1.8502833410741364,6.708225542852855,-1.4520918928040734
6.377187600353222,1.8873555945502118,6.693704623924814,-1.5390579217132123
6.396061156298725,1.9207955214582901,6.678314044707682,-1.6210344872757434
6.415269111513307,1.9498808098627032,6.662103699834925,-1.6969676042894912
6.434767919611934,1.9738348225125197,6.64513402379203,-1.7657370661792147
6.4545062678370595,1.9918558284966554,6.6274766531302385,-1.826197929147342
6.474424826122026,2.003156862050521,6.609214673838765,-1.8772366507988478
6.494456394742531,2.007014454526395,6.590442307330776,-1.9178393599412065
6.514526539287795,2.002822150210242,6.571263913731364,-1.9471664678601364
6.534554760789898,1.9901424828415901,6.551792249052763,-1.9646247196611606
6.554456185618314,1.9687497329072134,6.532146001856152,-1.9699259153549076
6.574143682947386,1.9386560530608579,6.512446742702602,-1.9631219484903148
6.5935302434779945,1.9001157778677582,6.492815523217699,-1.944608980814418
6.612531401256672,1.8536065567128939,6.473369433409554,-1.9150989682411503
6.631067466823801,1.7997903121279668,6.454218443727143,-1.875562889700986
6.64906536994508,1.739460596009137,6.435462814830133,-1.8271550305055424
6.6664599759051715,1.6734846682879685,6.417191264525078,-1.771130100684888
6.683194822588051,1.6027482668594444,6.399479963518229,-1.7087644286551538
6.6992223052566455,1.5281090437548683,6.382392319231678,-1.641289631482584
6.714503395694194,1.450361905148394,6.365979422916852,-1.5698432886044682
6.729007014745679,1.3702168892450675,6.350280990030807,-1.4954374715102527
6.742709183638129,1.2882883057166623,6.335326615315704,-1.4189432922117284
6.7555920666952956,1.2050928147753095,6.321137182393587,-1.3410881663148417
6.767642994843048,1.1210538283477924,6.3077263007304385,-1.2624620772810824
6.778853533126526,1.0365098250221936,6.295101679957628,-1.1835294298813601
6.789218631376748,0.9517246348534929,6.2832663856588145,-1.104643740445876
6.798735877725283,0.8668982810912694,6.272219948254356,-1.0260631634400643
6.807404860536196,0.782177450576192,6.261959316619955,-0.9479655393834766
6.815226635041958,0.6976650527548373,6.25247966122612,-0.8704621977811499
6.822203285569506,0.6134286097589048,6.243775039248309,-0.7936101478381177
6.828337571667095,0.5295074090583335,6.235838937769928,-0.7174225567791995
6.833632645757679,0.4459184661203365,6.228664712202136,-0.6418775793307214
6.8380918304188825,0.3626614079167477,6.222245936408829,-0.566925691494759
6.84171844449805,0.2797224164908881,6.2165766794938815,-0.4924957218331645
6.844515668662959,0.19707737844734105,6.211651722275549,-0.41849978289016343
6.846486442447432,0.11469438061063586,6.207466724446648,-0.34483729745530634
6.847633386253539,0.03253568052991161,6.204018351472095,-0.2713982980242103
6.847958743058838,-0.04944073300405087,6.2013043684918525,-0.19806615871749578
6.847464335728797,-0.13127988730039789,6.199323706904678,-0.124719900483393
6.8461515368557935,-0.21302879002962732,6.198076507899843,-0.05123619458167833
6.844021248955497,-0.29473552807791675,6.1975641459540265,0.022508822836549883
6.841073893674718,-0.37644842433946346,6.197789234182392,0.09663782026376422
6.837309409431323,-0.45821517835764347,6.198755612385029,0.17127052332642537
6.832727257647747,-0.5400819161089977,6.200468317618293,0.24652184820141673
6.827326438486657,-0.6220920703891495,6.202933536100307,0.32249980851238624
6.821105517782765,-0.7042850062069119,6.206158534185431,0.39930307830583117
6.814062667720696,-0.7866942953979311,6.2101515649684895,0.4770180793352946
6.806195724766717,-0.8693455315763094,6.214921745761843,0.5557154424555673
6.797502269450954,-0.9522535611260823,6.220478900186398,0.6354456712813061
6.787979733839693,-1.0354189893566008,6.226833356899212,0.7162338130659364
6.777625543946127,-1.1188238053462223,6.233995695029871,0.7980729200618957
6.766437305892665,-1.202425958053083,6.24197642423049,0.8809160696609986
6.754413046312134,-1.2861527159548503,6.2507855849271,0.9646667118612731
6.741551519152585,-1.3698926620272396,6.260432252045713,1.0491671411454648
6.7278525925323125,-1.4534862288515376,6.270923923457167,1.1341849658780765
6.713317730243797,-1.5367147838543804,6.282265773115948,1.2193975983976975
6.697950582405253,-1.6192884562773895,6.294459749099925,1.3043750471935838
6.68175769784248,-1.7008331831363719,6.307503499571861,1.3885616979643367
6.664749366011116,-1.7808778668031957,6.321389116551504,1.4712583590868802
6.646940587343084,-1.8588430937055505,6.336101700142374,1.5516066355693128
6.628352156406029,-1.9340335394510861,6.351617766498067,1.6285786519050087
6.609011821011518,-2.0056368942403555,6.367903553017117,1.700976146422622
6.588955452069115,-2.072732701383675,6.384913314481343,1.7674437499357165
6.5682281250552785,-2.1343146139870246,6.4025877519807,1.8265014197945855
6.546884978915409,-2.1893288553991543,6.420852766178646,1.8765999824716533
6.524991690361417,-2.236729756028747,6.439618766003362,1.9162010315421036
6.502624392801129,-2.2755500086098515,6.4587807763187834,1.943877856359149
6.4798688927150305,-2.3049791184430233,6.478219554882375,1.9584281775857026
6.4568191015306,-2.324439481289274,6.497803836658232,1.9589837289859182
6.433574706717708,-2.3336471730282398,6.517393673948091,1.9450983723498307
6.410238234987426,-2.3326453636791236,6.5368446576715895,1.9167975607008492
6.386911781350634,-2.321802793700347,6.556012633278598,1.8745783178537543
6.363693753413631,-2.3017769391871954,6.5747584164571355,1.819359034366207
6.340675984021758,-2.273448993469226,6.592952006800798,1.7523889829155013
6.317941494087066,-2.2378430251915677,6.610475896629953,1.6751348898140594
6.29556306383515,-2.196043109241584,6.627227245528093,1.5891639974557694
6.273602632742734,-2.149120015235521,6.643118885502651,1.4960400064391481
6.252111432590379,-2.0980746419730254,6.658079285567043,1.3972421425412778
6.231130686170649,-2.0438006388235417,6.672051706992455,1.2941109284654153
6.210692679782413,-1.9870649172983246,6.684992816277109,1.187818971927596
6.19082203060943,-1.928502581913237,6.696871005996385,1.0793619977934947
6.171537004790298,-1.8686220820622692,6.707664625974321,0.9695642974463686
6.152850783969675,-1.8078166541911165,6.717360268948784,0.8590931149225385
6.134772617427764,-1.7463788945114098,6.7259512000980095,0.7484775492608827
6.11730882848265,-1.6845162038662977,6.733435975590618,0.638128802818301
6.100463666443987,-1.622365660846117,6.739817263618801,0.528359739996186
6.084240009835526,-1.5600075163794775,6.745100861018763,0.4194026113723631
6.068639934671731,-1.4974769517492605,6.7492948871324865,0.3114244275963434
6.053665165154238,-1.434774029943979,6.75240913140845,0.2045398730799084
6.039317424854799,-1.371871937145122,6.754454530139249,0.09882188624148928
6.025598705483348,-1.3087236947312682,6.755442749001664,-0.005689846821222047
6.012511468536035,-1.2452675527572064,6.755385850533451,-0.10898219272844646
6.000058793008463,-1.1814312754074299,6.754296028606166,-0.21106337105011996
5.988244480254388,-1.1171355122065325,6.752185394895665,-0.3119589816725794
5.977073125132323,-1.0522964251228504,6.749065805078939,-0.41170901835128054
5.966550160881095,-0.9868277166493931,6.744948714895426,-0.5103656617098229
5.956681883714601,-0.9206421805160472,6.739845058278328,-0.607991677332315
5.94747546190944,-0.8536528763630943,6.733765141505005,-0.7046592730351294
5.93893893314581,-0.7857740130750528,6.726718548774654,-0.8004492930237377
5.931081193015059,-0.7169216126466598,6.7187140558444165,-0.8954506452353369
5.923911976888593,-0.6470140173288822,6.709759549392063,-0.9897598718302572
5.917441836715303,-0.5759722972315744,6.6998619506737604,-1.0834807816875778
5.911682113742987,-0.5037206134371263,6.689027142856885,-1.176724067980649
5.906644907608616,-0.4301865930076351,6.677259902177078,-1.2696068334063244
5.90234304167854,-0.355301777188645,6.664563833843015,-1.362251940169318
5.8987900239066535,-0.27900221292831645,6.650941314441322,-1.454787090902525
5.89600000177737,-0.2012292710141643,6.636393443532297,-1.5473435296142957
5.893987709067228,-0.12193079231218061,6.620920008236154,-1.6400542275390642
5.892768401144107,-0.04106268752703279,6.604519465960763,-1.7330513862885868
5.892357774268836,0.041408853637052254,6.587188952097877,-1.826463048759051
5.892771862805207,0.12550435044204183,6.568924321610287,-1.9204085558489452
5.894026906309627,0.21122697794037593,6.549720236051797,-2.0149925238859123
5.89613917608903,0.29855718349834226,6.529570310812939,-2.110296945026999
5.899124747924014,0.3874456302334015,6.508467341362668,-2.2063709351297933
5.902999204226348,0.4778040755653854,6.4864036320113705,-2.3032175804990467
5.907777244982002,0.5694937626361154,6.46337145620638,-2.4007772854324716
5.913472182608364,0.6623109147867634,6.439363683352055,-2.4989070299309457
5.9200952917562315,0.7559690180578755,6.414374613052746,-2.597355065760699
5.9276549819368105,0.8500778134986001,6.388401062395139,-2.695730892148326
5.936155760071797,0.9441193829456631,6.361443753473655,-2.7934709756650045
5.945596953901253,1.0374225009514029,6.333509043717005,-2.889801755894345
5.955971178910767,1.1291376417503987,6.304611026158062,-2.983703151799214
5.967262555328271,1.2182167191013027,6.27477399464007,-3.0738781224799605
5.979444722519284,1.3034036908389532,6.24403521341527,-3.158736699078161
5.992478759427674,1.3832441723594615,6.212447846424488,-3.236405737044921
6.006311201151268,1.456123319828503,6.180083789054039,-3.3047772622392686
6.020872434349553,1.5203401402309822,6.147036016431646,-3.361606863903208
6.036075835751864,1.5742215896267633,6.1134199477926146,-3.4046670701025126
6.051818051648131,1.616270577076628,6.079373277091589,-3.4319479538618345
6.067980757418897,1.6453295286072918,6.045053797552971,-3.4418800321770435
6.08443405270497,1.6607295676060565,6.0106349972312,-3.4335384672574643
6.101041348381031,1.6623907288298434,5.976299612558626,-3.4067810881525515
6.11766525566933,1.6508458270865611,5.9422318016771,-3.3622825862818653
6.1341737139401955,1.6271792791101096,5.908608975814282,-3.3014528950999207
6.150445506731296,1.5928953295086723,5.875594446863283,-3.226259568025809
6.1663744600263835,1.5497476624717637,5.843331851183025,-3.138997983273902
6.181871936651101,1.4995673617076202,5.811941871350285,-3.042059907594029
6.196867610268177,1.4441187343529647,5.781521272274345,-2.937740580471336
6.211308797611706,1.3849984545738492,5.752143866469631,-2.82810510635534
6.225158782157445,1.3235797326053433,5.723862815406078,-2.7149161088494456
6.238394579483498,1.2609940674524807,5.696713654317584,-2.59961217373252
6.251004520158022,1.19813940844291,5.670717532580259,-2.4833216421064224
6.262985914242451,1.1357038267343629,5.6458843161591945,-2.366896828729528
6.2743429525097945,1.0741961057361877,5.622215347871899,-2.2509569943647585
6.2850849135671565,1.01397745291291,5.599705777928252,-2.135932271810268
6.295224688096286,0.9552909652432474,5.578346455210149,-2.022104080373403
6.304777597748719,0.898287252662458,5.558125414406415,-1.9096399750580177
6.313760470275343,0.8430457580281578,5.539029014655835,-1.7986224046981727
6.322190927855625,0.7895919522130377,5.5210427906088535,-1.6890717029663762
6.330086847377755,0.7379108885915524,5.504152073579189,-1.5809640309108621
6.337465956263671,0.6879577033273463,5.4883424332700805,-1.4742451104068832
6.344345533296944,0.6396656386477189,5.473599982166012,-1.3688405609877177
6.350742189683421,0.5929521043103663,5.459911576556134,-1.2646635575724485
