th1 (rad),w1 (rad/s),th2 (rad),w2 (rad/s),a1 (rad/s^2),a2 (rad/s^2)
1.8561869419316066,2.085885275246126,4.142402606024398,-0.8132797839225563,-9.587657258043874,-1.3223205850337556
1.877045794684068,1.9900087026656874,4.134269808185173,-0.8265029897728938,-9.321855552730183,-0.7637897516102964
1.8969458817107248,1.8967901471383857,4.126004778287443,-0.8341408872889968,-9.081121882169821,-0.23850866101236473
1.9159137831821087,1.8059789283166874,4.1176633694145535,-0.8365259738991204,-8.864586157871823,0.25441487487353764
1.9339735724652756,1.7173330667379691,4.109298109675562,-0.833981825150385,-8.671119481442691,0.7161672042571522
1.9511469031326552,1.6306218719235424,4.100958291424058,-0.8268201531078134,-8.499417125667339,1.1481030841055822
1.9674531218518905,1.545627700666869,4.092690089892979,-0.8153391222667576,-8.348063611997453,1.5516500093184702
1.982909398858559,1.4621470645468946,4.084536698670312,-0.7998226221735729,-8.21558298274539,1.9282373013556227
1.9975308695040281,1.3799912347194407,4.0765384724485765,-0.7805402491600167,-8.100477087410738,2.279245218340064
2.0113307818512225,1.2989864638453334,4.068733069956976,-0.7577477969766161,-8.001254352885944,2.605970004111088
2.024320646489676,1.218973920316474,4.06115559198721,-0.7316880969355052,-7.916451138413328,2.909601444692159
2.0365103856928406,1.1398094089323407,4.053838711017855,-0.7025920824885836,-7.844647419947825,3.191210102650393
2.047908479782164,1.0613629347328626,4.046812790192969,-0.6706799814620797,-7.784478222761473,3.451741930738664
2.0585221091294925,0.9835181525052479,4.040105990378348,-0.6361625621546931,-7.73464193392071,3.6920184185802727
2.068357290654545,0.9061717331660408,4.033744364756801,-0.5992423779688905,-7.6939063798183955,3.9127408015292415
2.0774190079862054,0.8292326693678569,4.0277519409771125,-0.560114969953598,-7.661113346802949,4.114497165794382
2.085711334679884,0.7526215358998274,4.022150791277577,-0.5189699982956542,-7.635182051773023,4.297771527415901
2.0932375500388822,0.6762697153820971,4.01696109129462,-0.47599228302149516,-7.615111930251783,4.46295415440326
2.1000002471927033,0.6001185960795793,4.012201168464405,-0.43136274147746256,-7.59998499763883,4.610352550670223
2.106001433153499,0.524118746103191,4.00788754104963,-0.38525921597076035,-7.588967951013896,4.740202635896439
2.1112426206145307,0.448229066593052,4.004034948889923,-0.33785718961179595,-7.581314110401575,4.852679744586742
2.115724911280461,0.37241592548903624,4.000656376993805,-0.28933039216592854,-7.576365246634849,4.947909136723929
2.1194490705353513,0.29665227302268776,3.997763073072146,-0.23985130079868924,-7.573553305165473,5.025975766741768
2.122415593265578,0.22091673997103303,3.995364560064159,-0.18959154313127158,-7.572402009052545,5.086933101285229
2.1246247606652884,0.14519271988050758,3.9934686446328462,-0.13872221211841929,-7.572528307944131,5.130810812675896
2.1260766878640935,0.06946743680106628,3.992081422511662,-0.08741410399166033,-7.573643631447241,5.15762120668687
2.126771362232104,-0.006268999513406134,3.991207281471745,-0.03583789192479163,-7.57555490336079,5.167364272027191
2.12670867223697,-0.08202454854701403,3.9908489025524974,0.01583575079548028,-7.578165276476768,5.160031266181735
2.1258884267514997,-0.15780620131178172,3.991007260060452,0.06743606345729763,-7.5814745547942675,5.13560677886653
2.124310364738382,-0.2336209468597244,3.991681620695025,0.11879213124596294,-7.585579279861788,5.094069240938847
2.121974155269785,-0.30947673965834227,3.9928695420074845,0.16973282365535142,-7.590672469423656,5.0353898735170874
2.1188793878732013,-0.38538346435257886,3.994566870244038,0.2200867223905223,-7.597043008462747,4.959530099553021
2.1150255532296756,-0.4613538944372063,3.9967677374679433,0.2696820233860525,-7.605074703956506,4.866437468345623
2.1104120142853033,-0.5374046414767714,3.999464557701804,0.31834639806950876,-7.615245024015493,4.756040172720379
2.1050379678705355,-0.6135570917169263,4.002648021682499,0.36590679979671253,-7.62812354831806,4.628240269181322
2.0989023969533664,-0.6898383272001068,4.006307089680466,0.41218920248852575,-7.644370158582502,4.482905743866434
2.0920040136813656,-0.7662820287859319,4.010428981705352,0.4570182599271901,-7.664732993821273,4.319861602525732
2.0843411933935063,-0.8429293587241447,4.014999164304624,0.5002168759524475,-7.690046183766232,4.138880202366356
2.0759118998062647,-0.919829820561807,4.020001333064148,0.541605677976111,-7.721227353441805,3.9396710894056373
2.0667136016006467,-0.997042094096225,4.025417389843909,0.5810023888701674,-7.759274860490526,3.7218706595635402
2.0567431806596845,-1.0746348427011303,4.031227413732611,0.6182210954658028,-7.805264682361919,3.4850320285411334
2.045996832232673,-1.1526874895247494,4.037409624687269,0.6530714157512142,-7.860346810390442,3.228615578925324
2.034469957337426,-1.231290957628654,4.043940338844782,0.6853575715404674,-7.9257409292808205,2.9519807582995403
2.0221570477611395,-1.3105483669214621,4.050793914560186,0.7148773791234628,-8.002731060372396,2.6543798358532977
2.0090515640919246,-1.390575677525186,4.057942688351421,0.7414211774819958,-8.092658721678406,2.334954494528041
1.9951458073166728,-1.4715022647419702,4.065356900126241,0.7647707224272762,-8.196914003229292,1.9927363494316164
1.980430784669253,-1.553471404774263,4.073004607350513,0.7846980859215923,-8.31692376879304,1.6266527499006882
1.9648960706215104,-1.6366406424621935,4.080851588209729,0.8009646134205992,-8.454135971122842,1.235539550753906
1.9485296641968886,-1.7211820021734219,4.088861234343935,0.8133200089281383,-8.609998805219341,0.8181629350615777
1.9313178441751544,-1.8072819902256152,4.096994434433216,0.821501638278754,-8.78593312287652,0.37325283983921903
1.9132450242728982,-1.8951413214543804,4.1052094508160035,0.8252341666771462,-8.983296196553068,-0.10044892529404133
1.8942936110583544,-1.9849742834199111,4.1134617924827745,0.8242296774242058,-9.203334563038792,-0.6041221818332956
1.8744438682241553,-2.077007629050299,4.121704089257016,0.8181884556058728,-9.447123320062103,-1.1387792037913378
1.8536737919336523,-2.17147886225092,4.129885973813075,0.8068006635679594,-9.715488930449073,-1.705147962516761
1.831959003311143,-2.2686337515554107,4.137953980448755,0.7897491839427918,-10.008912369382424,-2.303522433221426
1.8092726657955889,-2.368722875249235,4.145851472288182,0.7667139596105775,-10.327409420572062,-2.9335743961400764
1.7855854370430966,-2.4719969694549553,4.153518611884288,0.7373782156491767,-10.670385212627272,-3.5941214230550003
1.760865467348547,-2.578700821581228,4.16089239404078,0.7014370014186267,-11.03646085430931,-4.282846733977063
1.7350784591327348,-2.689065430124321,4.167906764054966,0.6586085340788561,-11.423271483478883,-4.995968687550514
1.7081878048314916,-2.80329814495911,4.1744928493957545,0.608648847203351,-11.827237425267375,-5.72786124426136
1.6801548233819004,-2.921570519211784,4.180579337867788,0.5513702347607374,-12.243313696768734,-6.470632251018992
1.6509391181897826,-3.044003656179471,4.186093040215395,0.4866639122505475,-12.664727982394652,-7.213674223396252
1.6204990816279878,-3.1706509360034176,4.190959679337901,0.414527170016585,-13.082723483722651,-7.9432126485188075
1.5887925722679537,-3.301478170840644,4.195104951038067,0.33509504353139696,-13.486330517249042,-8.641889527036188
1.5557777905595471,-3.4363414760131348,4.19845590147338,0.24867614826103507,-13.86219880706975,-9.288434144488212
1.5214143757994159,-3.574963464083832,4.200942662955991,0.15579180681615296,-14.194530011763755,-9.857487306969322
1.4856647411585775,-3.7169087642014698,4.202500581024153,0.05721693374645974,-14.465155508399219,-10.31965691765385
1.4484956535165627,-3.861560319285462,4.203072750361618,-0.04597963543007877,-14.653805773271225,-10.641888337450553
1.4098800503237081,-4.008098377018174,4.202612954007317,-0.1523985188045843,-14.738612698464935,-10.788228524955466
1.3697990665535265,-4.155484504002824,4.201088968819271,-0.26028080405413895,-14.69687321590861,-10.721044941553606
1.3282442215134982,-4.30245323616191,4.19848616077873,-0.36749125346967504,-14.50608127476604,-10.402726702123752
1.285219689151879,-4.447514048909571,4.194811248244033,-0.4715185204909126,-14.145207076922963,-9.797847383837595
1.2407445486627833,-4.5889661196788,4.190096063039124,-0.5694969943292886,-13.596171209270652,-8.87571081444225
1.1948548874659952,-4.724927831771507,4.184401093095831,-0.6582541024737111,-12.845432129709138,-7.6131407881705275
1.1476056091482802,-4.8533821530685985,4.177818552071094,-0.7343855103554163,-11.885583506145753,-5.997322072954223
1.0990717876175942,-4.972237988130056,4.17047469696754,-0.7943587310849586,-10.71684609448795,-4.02846072473121
1.0493494077362937,-5.079406449074935,4.16253110965669,-0.8346433383322707,-9.348336143359704,-1.7220096795071311
0.9985553432455444,-5.172889810508532,4.154184676273368,-0.851863435127342,-7.798993704559169,0.8898012186382227
0.9468264451404591,-5.250879747554124,4.1456660419220945,-0.8429654229409598,-6.098053197033494,3.7573877417600854
0.8943176476649178,-5.311860279524459,4.137236387692685,-0.8053915455233589,-4.284931899805344,6.8144300696749305
0.8411990448696732,-5.354709598522512,4.129182472237451,-0.7372472448266096,-2.40840500293496,9.979900367070776
0.7876519488844481,-5.378793648551862,4.121809999789185,-0.6374482411559019,-0.5249446669823185,13.161641732697339
0.7338640123989295,-5.384043095221685,4.115435517377626,-0.5058318238289286,1.3038509589120952,16.26150521642425
0.6800235814467127,-5.371004585632564,4.110377199139337,-0.343216771664686,3.014703950834504,19.181832060782277
0.626313535590387,-5.3408575461242185,4.10694503142269,-0.15139845105686323,4.546772054003457,21.832778572082177
0.5729049601291448,-5.295389825584184,4.105431046912122,0.06692933466395853,5.846023835363358,24.139681360364015
0.519951061873303,-5.23692958723055,4.106100340258761,0.3083261482675987,6.869291012573914,26.04945333680151
0.4675817660009975,-5.168236677104812,4.109183601741437,0.5688206816356138,7.587349778629267,27.53499576607306
0.4158993992299494,-5.092363179318519,4.114871808557793,0.8441706392963444,7.986480273268943,28.596871590247428
0.3649757674367642,-5.012498376585829,4.123313514950756,1.1301393551988186,8.068213182872766,29.261978424503337
0.3148507836709059,-4.931816244757101,4.134614908502744,1.422759139443852,7.847326588220019,29.579553866249338
0.2655326212233349,-4.853342978874901,4.1488424998971825,1.7185546781063452,7.348492881952554,29.615357342588545
0.21699919143458588,-4.779858050055375,4.166028046678246,2.0147082515322308,6.602189132296629,29.445147680754452
0.16920061093403213,-4.713836158732408,4.186175129193568,2.3091597283397753,5.640521396531051,29.148556312169728
0.12206224934670805,-4.657430944767098,4.209266726476966,2.600645291461473,4.493490063961747,28.804195515711342
0.07548793989903707,-4.6124960441274805,4.235273179391581,2.8886872466185864,3.18600582415104,28.486463024111163
0.029362979457762263,-4.58063598588597,4.2641600518577665,3.173551876859698,1.735734097966015,28.264139665340302
-0.01644338040109744,-4.56327864490631,4.295895570626364,3.456193273513101,0.1516601762236899,28.200614271170693
-0.06207616685016054,-4.561762043144073,4.330457503361495,3.738199416224808,-1.5668448012046772,28.355439249663732
-0.10769378728160128,-4.57743049115612,4.367839497523743,4.021753808721445,-3.430716288186828,28.786901391341882
-0.1534680921931625,-4.611737654037988,4.408057035610957,4.309622822634863,-5.461886392372979,29.55533764899638
-0.19958546873354238,-4.6663565179617175,4.4511532638373055,4.605176199124827,-7.694138346544359,30.726971970670647
-0.24624903391315955,-4.7432979014271615,4.497205025828554,4.9124459188315335,-10.17414758094521,32.378013464502565
-0.2936820129274312,-4.845039377236613,4.546329485016869,5.2362260534765594,-12.96243569424929,34.5984967341841
-0.34213240669979733,-4.9746637341791065,4.598691745551635,5.5822110208184,-16.133310637468817,37.494565445705696
-0.3918790440415884,-5.135996840553795,4.654513855759819,5.957156675275457,-19.77136884313658,41.185925083562246
-0.4432390124471264,-5.3337105289851605,4.714085422512574,6.3690159261110795,-23.958674178245143,45.7904711591236
-0.49657611773697796,-5.573297270767612,4.777775581773685,6.826920637702315,-28.73883356155932,51.377191507066776
-0.552309090444654,-5.860685606383205,4.846044788150708,7.340692552772983,-34.02691199204393,57.8444051748006
-0.6109159465084861,-6.200954726303644,4.919451713678438,7.919136604520989,-39.40030516404184,64.63307358958701
-0.6729254937715226,-6.594957777944063,4.998643079723648,8.565467340416859,-43.65961342543085,70.11984926621962
-0.7388750715509632,-7.031553912198372,5.084297753127816,9.266665833079056,-44.0842015981443,70.58211008858021
-0.809190610672947,-7.4723959281798145,5.176964411458607,9.972486933964857,-35.85522385602651,59.38882369347575
-0.883914569954745,-7.83094816674008,5.276689280798255,10.566375170899615,-13.948541945345667,29.62285675442909
-0.9622240516221459,-7.970433586193536,5.382353032507251,10.862603738443907,19.470362707939838,-15.649647556029189
-1.0419283874840812,-7.775729959114138,5.49097906989169,10.706107262883615,49.9186848043884,-56.33585501055817
-1.1196856870752225,-7.276543111070254,5.598040142520526,10.142748712778033,64.17012772759219,-74.29589472428903
-1.192451118185925,-6.634841833794332,5.699467629648306,9.399789765535143,64.0234428302978,-72.29457773899263
-1.2587995365238682,-5.9946074054913545,5.793465527303658,8.676843988145217,57.73474489683087,-61.86773677686997
-1.3187456105787818,-5.417259956523046,5.88023396718511,8.058166620376518,50.53195244141503,-50.21247243487933
-1.3729182101440123,-4.911940432108896,5.960815633388876,7.5560418960277245,44.28150634951106,-39.842374888281604
-1.4220376144651012,-4.469125368613785,6.036376052349153,7.157618147144908,39.3396970521556,-31.19532635326122
-1.4667288681512392,-4.075728398092229,6.107952233820602,6.8456648836122955,35.588450872721474,-24.070473663900245
-1.5074861521321614,-3.7198438893650145,6.176408882656725,6.604960146973293,32.81425646710784,-18.147540749893125
-1.5446845910258116,-3.391701324693936,6.242458484126458,6.423484739474362,30.819886431595414,-13.137362627898405
-1.5786016042727509,-3.0835024603779817,6.306693331521202,6.292111113195378,29.447388732827992,-8.811739535311048
-1.6094366288765307,-2.789028573049702,6.369614442653155,6.203993717842267,28.575318746410602,-4.999283612743442
-1.6373269146070277,-2.503275385585596,6.431654379831578,6.154000881714833,28.110251260399597,-1.5745301486027221
-1.6623596684628836,-2.2221728729816,6.4931943886487264,6.1382555802288055,27.978329135348346,1.5519850966709712
-1.6845813971926997,-1.9423895816281165,6.554576944451014,6.153775431195515,28.118118766482567,4.441065404716578
-1.7040052930089808,-1.6612083939632907,6.61611469876297,6.198186085242681,28.47475742791074,7.129736309208779
-1.7206173769486137,-1.3764608196841832,6.678096559615397,6.269483448334769,28.995114691616617,9.634211543720419
-1.7343819851454556,-1.086509672768017,6.7407913940987445,6.365825563771973,29.6237467607852,11.951533997392575
-1.7452470818731358,-0.7902722051601649,6.804449649736465,6.485340903745899,30.299580214826367,14.06048577181544
-1.7531498039247375,-0.4872764030119013,6.869303058773924,6.625945761464053,30.95345536991921,15.922398807743773
-1.7580225679548565,-0.17774184931270914,6.935562516388565,6.785169749541491,31.506863171052615,17.482575734342714
-1.7597999864479836,0.13732678239781704,7.00341421388398,6.959995506884918,31.872390789357333,18.673110157991093
-1.7584267186240055,0.4560506902913904,7.073014168952829,7.146726608464829,31.95648965952133,19.417897711598727
-1.7538662117210915,0.7756155868866037,7.144481435037478,7.340905585580816,31.665101997888783,19.640440478304185
-1.7461100558522253,1.0922666068654916,7.217890490893286,7.537309990363858,30.91231958261617,19.27454743465776
-1.7351873897835703,1.4013898026916534,7.293263590796924,7.730055464710436,29.631533873769673,18.277162006966687
-1.721173491756654,1.69770514142935,7.370564145444028,7.912827084780102,27.78753241728326,16.641407405179667
-1.7041964403423604,1.9755804656021827,7.449692416291829,8.079241158831898,25.386982996199546,14.406884351325285
-1.6844406356863386,2.2294502955641784,7.530484827880148,8.223310002345151,22.484216206920237,11.66385703825933
-1.6621461327306968,2.4542924576333807,7.612717927903599,8.339948572727744,19.179687012170255,8.548770264854046
-1.637603208154363,2.6460893277550834,7.696117413630876,8.425436275376285,15.61016058637107,5.230666440796723
-1.6111423148768123,2.8021909336187942,7.780371776384639,8.477742939784251,11.932096491822579,1.8908851330453875
-1.5831204055406243,2.92151189853702,7.8651492057824814,8.496651791114706,8.30189986976352,-1.2992914220026328
-1.553905286555254,3.0045308972346554,7.950115723693629,8.48365887689468,4.857627291730294,-4.197771696541293
-1.5238599775829076,3.0531071701519585,8.034952312462575,8.441681159929267,1.7059590876025852,-6.70364402525762
-1.4933289058813881,3.0701667610279846,8.119369124061867,8.374644719676692,-1.0837470588940066,-8.760665548452648
-1.4626272382711083,3.0593292904390443,8.203115571258634,8.287038064192165,-3.4787123201407075,-10.353418083608341
-1.432033945366718,3.0245421672376374,8.285985951900555,8.183503883356082,-5.477214489836626,-11.49880602557384
-1.4017885236943415,2.969770022339271,8.367820990734115,8.068515823100343,-7.1006941656415,-12.235819599257734
-1.3720908234709488,2.8987630806828557,8.44850614896512,7.946157627107766,-8.385562678097571,-12.615838554373791
-1.3431031926641201,2.81490745390188,8.527967725236197,7.8199992415640285,-9.376058121185126,-12.69477275461378
-1.3149541181251014,2.7211468726900288,8.606167717651838,7.693051514017891,-10.118759184612623,-12.527462582139997
-1.2877426493982012,2.6199592808439025,8.683098232792016,7.567776888196491,-10.658825059520094,-12.164186415209137
-1.261543056589762,2.5133710302487016,8.758776001673981,7.446135024044399,-11.037725512494932,-11.648847176719892
-1.236409346287275,2.4029937751237522,8.833237351914425,7.3296465522772,-11.29211050090622,-11.018348998066156
-1.2123794085360373,2.29007267011469,8.906533817437197,7.219463062296539,-11.45347101285212,-10.302730966028422
-1.1894786818348904,2.1755379599861686,8.978728448060162,7.116435752636255,-11.54830060097974,-9.525724714521093
-1.1677233022350286,2.0600549539763713,9.049892805586524,7.021178505491044,-11.598540286292229,-8.705503863585758
-1.147122752695265,1.944069551113449,9.120104590641434,6.934123466855186,-11.622157221282563,-7.855477152846832
-1.1276820571841304,1.8278479789006232,9.189445825309987,6.855568695326718,-11.63376163790549,-6.985038879149462
-1.109403577395124,1.7115103625215684,9.258001512263254,6.785718306535223,-11.645206126490503,-6.100232040377719
-1.0922884737699083,1.5950583012566635,9.325858695328606,6.724715986131446,-11.666138264184626,-5.204305837692364
-1.0763378907573418,1.4783969186148171,9.39310585518992,6.672672927754522,-11.704494985942274,-4.298164397259683
-1.0615539215711935,1.3613519687553943,9.459832584467465,6.629691283781924,-11.766937649367142,-3.380711439194838
-1.0479404018836396,1.243682592261723,9.526129497305284,6.595884169389976,-11.859232720243597,-2.4490988724039404
-1.0355035759610223,1.1250902650592869,9.592088338999185,6.571393180665936,-11.986586029854072,-1.4988878087605666
-1.0242526733104294,1.0052244047607461,9.657802270805844,6.55640430257833,-12.153939732371672,-0.5241295158395336
-1.014200429262822,0.8836850074370294,9.723366313831628,6.551163007419935,-12.366241097578321,0.48262780429725777
-1.0053635791884517,0.7600225964612461,9.788877943905828,6.555989285462907,-12.628691436236673,1.5304021999442137
-0.9977633532238392,0.6337356820988794,9.854437836760457,6.571293307462349,-12.946981772264763,2.6299080479480974
-0.9914259964028505,0.5042658643762318,9.92015076983508,6.5975923879418295,-13.32751897336394,3.793749783564294
