th1 (rad),w1 (rad/s),th2 (rad),w2 (rad/s)
0.16510726644927118,2.0772807943756457,3.907697315925286,1.4249755197133556
0.18588007439302764,2.1018831471840964,3.92194707112242,1.5376139024043576
0.20689890586486862,2.123312901294303,3.9373232101464635,1.6490568557115446
0.22813203487781164,2.1414063462377024,3.9538137787035788,1.7591514519527285
0.24954609834018868,2.156007000790916,3.971405293223106,1.8677485206606266
0.27110616834809786,2.16696555478838,3.9900827784297124,1.9747027443062206
0.29277582389598167,2.174139720423976,4.009829805872775,2.0798726066896736
0.3145172211002214,2.1773940217172747,4.030628531939671,2.1831202285860245
0.33629116131739417,2.1765995561061233,4.052459734225532,2.2843111345665736
0.3580571568784554,2.1716337662753897,4.075302845571198,2.3833140030471935
0.3797734945412093,2.162380263059632,4.09913598560167,2.480000458126647
0.4013972971718056,2.148728741284981,4.123935990182937,2.5742449662599936
0.42288458458465544,2.1305750294677006,4.149678439845537,2.6659249028596856
0.44419033487933246,2.107821311103592,4.176337688874134,2.754920853140424
0.4652685479903684,2.0803765496358335,4.203886897405538,2.84111720756637
0.4860723134867267,2.0481571409103547,4.232298069481202,2.92440310482555
0.5065538848958302,2.011087805944565,4.261542100529458,3.0046737641543935
0.5266647629552759,1.9691027232141953,4.291588838171002,3.0818322340305
0.5463557901874179,1.9221468836591291,4.322407160511307,3.155791565927783
0.5655772590240091,1.8701776337100853,4.353965076170584,3.2264774004502836
0.58427903536111,1.8131663525971151,4.386229850175087,3.2938309295286494
0.6024106988870812,1.751100191047076,4.419168159470374,3.357812173641052
0.6199217007975519,1.6839837804917708,4.452746281206784,3.41840348873194
0.6367615386024696,1.6118408065594065,4.486930316094104,3.475613195475952
0.6528799466680637,1.5347153294526101,4.521686448048864,3.5294792057923208
0.6682270999625898,1.4526727282900829,4.556981240106787,3.5800725101046535
0.6827538272454906,1.3658001478046595,4.592781965207834,3.627500385621475
0.6964118287235372,1.2742063346869028,4.629056969064049,3.6719091923195335
0.7091538920704062,1.1780207674447785,4.665776060987244,3.713486640128707
0.720934099744854,1.0773920072638359,4.702910927388531,3.752463438000388
0.7317080198174923,0.9724852265484587,4.7404355617685345,3.789114272128331
0.7414328720829769,0.8634789044160852,4.7783267044898174,3.8237581047291878
0.7500676611271377,0.750560711644686,4.816564285537109,3.856757833892044
0.7575732682435846,0.633922638365297,4.8551318638760295,3.8885194060270503
0.7639124946272375,0.5137554430669211,4.8940170579363,3.919490522244166
0.7690500490579067,0.39024251847513025,4.933211963158742,3.9501591257443773
0.772952474242658,0.2635532764019265,4.972713554416186,3.981051896868468
0.7755880070066773,0.13383614834312813,5.012524073384871,4.012733014678981
0.7769263684901085,0.0012112808680801168,5.0526514035316605,4.045803468887747
0.7769384812987894,-0.1342370250535622,5.093109438220538,4.080901224849054
0.7755961110482538,-0.2724681228328536,5.133918450469029,4.118702559611696
0.7728714298199252,-0.413493120376299,5.175105476065146,4.159924901960117
0.7687364986161622,-0.5573833744301787,5.216704725084747,4.20533152783654
0.7631626648718605,-0.704279548626162,5.258758040363112,4.255738488478495
0.7561198693855988,-0.8544014764290719,5.301315425247897,4.312024185416797
0.7475758546213082,-1.008059144658833,5.344435667102065,4.3751420559293654
0.7374952631747198,-1.1656651861909881,5.3881870876613585,4.446136892957425
0.7258386113128099,-1.3277493331575945,5.4326484565909325,4.52616538629908
0.712561117981234,-1.4949753164252921,5.477910110453923,4.616521515035015
0.697611364816981,-1.6681606662708752,5.524075325604273,4.718667396158111
0.6809297581542723,-1.8482996983712419,5.571261999565854,4.83427000127214
0.6624467611705598,-2.0365895103062703,5.619604699578575,4.965243591271809
0.642080866067497,-2.2344577753483663,5.669257135491294,5.113796390553492
0.6197362883140134,-2.4435889327326317,5.720395099396828,5.282477145706807
0.5953003989866871,-2.665940929256613,5.773219870853897,5.474211260330872
0.5686409896941209,-2.903735831255567,5.827961983457206,5.692304206529462
0.5396036313815652,-3.1593903599811077,5.8848850255225,5.940366254080039
0.5080097277817541,-3.435319367202118,5.944288688063301,6.22206694197527
0.47365653410973296,-3.7334842834472988,6.006509357483053,6.540542956853716
0.43632169127526,-4.0544538327807675,6.071914787051591,6.897136564910348
0.3957771529474523,-4.395592358041152,6.140886152700694,7.288927317453559
0.3518212293670408,-4.74786952036657,6.213775425875229,7.704343087069337
0.3043425341633751,-5.0910550682438505,6.290818856745923,8.116497979943048
0.2534319834809366,-5.388707968572813,6.371983836545353,8.476176627310355
0.19954490379520845,-5.588603695395479,6.456745602818457,8.712269520311324
0.14365886684125367,-5.638336988236455,6.543868298021571,8.75317710759433
0.08727549695888911,-5.516649044357209,6.631400069097514,8.569944776923103
0.03210900651531703,-5.2536002896090706,6.717099516866745,8.203846536959565
-0.02042699638077368,-4.911710316788948,6.799137982236341,7.740044747242922
-0.06954409954866317,-4.548801482216647,6.87653842970877,7.256466737459588
-0.11503211437082964,-4.199762325215608,6.949103097083366,6.799216848704824
-0.15702973762298572,-3.8794011540588214,7.017095265570415,6.3869758243498875
-0.19582374916357392,-3.591051886730105,7.0809650238139135,6.023021364676544
-0.231734268030875,-3.3329319156359265,7.141195237460679,5.703957667481542
-0.2650635871872343,-3.101499885275684,7.198234814135494,5.424252842362524
-0.2960785860399911,-2.892951012802648,7.25247734255912,5.1782143319259255
-0.32500809616801757,-2.7037920237247346,7.3042594858783785,4.9607164906802135
-0.3520460164052649,-2.5310095002436563,7.35386665078518,4.767387241634032
-0.3773561114077015,-2.372074014187276,7.401540523201521,4.594582905936181
-0.40107685154957423,-2.224886508418014,7.447486352260883,4.439293401715803
-0.4233257166337544,-2.0877111619974844,7.491879286278041,4.299035461542635
-0.44420282825372925,-1.9591117042899155,7.534869640893468,4.171755010020038
-0.46379394529662843,-1.8378965925977802,7.576587190993668,4.055744697943256
-0.48217291122260625,-1.7230738069817002,7.617144637973101,3.9495766838447173
-0.49940364929242326,-1.6138143149801893,7.656640404811548,3.8520487472285496
-0.5155417924422252,-1.509422792503056,7.695160892283834,3.7621413935547716
-0.5306360203672558,-1.4093142054666352,7.732782306219382,3.678983778010506
-0.5447291624219222,-1.3129950397498045,7.769572143999487,3.6018266196089543
-0.5578591128194202,-1.2200481832893448,7.805590410195577,3.530020635202071
-0.5700595946523137,-1.130120664034165,7.840890616547598,3.4629993369881005
-0.5813608012926553,-1.0429136162331356,7.875520609917479,3.4002652932809148
-0.5917899374549866,-0.958173984308868,7.909523262850288,3.3413791536824857
-0.6013716772980753,-0.8756875824737121,7.942937054387113,3.285950894666777
-0.6101285531228124,-0.7952732145062418,7.975796563333781,3.2336328589536953
-0.6180812852678749,-0.7167776265906143,8.008132891923319,3.184114250007893
-0.625249061533781,-0.64007112083203,8.039974034423398,3.1371168082923795
-0.6316497727421013,-0.5650437010717465,8.071345202506322,3.0923914440372524
-0.6373002097528188,-0.4916016581670519,8.102269116946694,3.0497156367006615
-0.6422162263344893,-0.41966453051509606,8.1327662733137,3.0088914376240714
-0.6464128716396402,-0.34916239829352086,8.162855187689942,2.9697439325755655
-0.6499044956225755,-0.28003348730300126,8.192552627015697,2.9321200373349763
-0.6527048304956055,-0.21222207084333733,8.221873827389047,2.8958875141011635
-0.6548270512040388,-0.14567666606529822,8.250832702530058,2.8609341107058706
-0.6562838178646918,-0.08034852507038372,8.279442043637117,2.8271667393251185
-0.6570873031153956,-0.016190421142907654,8.307713711030368,2.7945106270322775
-0.6572492073268247,0.046844272492166314,8.335658817300692,2.7629083871288107
-0.656780764601903,0.10880221931713799,8.36328790117198,2.732318977321092
-0.6556927424087317,0.16973048627789675,8.39061109094519,2.7027165277946494
-0.6539954375459527,0.22967666263019476,8.417638256223137,2.674089038215689
-0.6516986709196507,0.2886887597405016,8.444379146605295,2.646436956784831
-0.6488117833222458,0.3468149264127412,8.470843516173144,2.6197716659116894
-0.6453436340581183,0.40410301825824085,8.497041232832261,2.5941139073240884
-0.641302603875536,0.4606000614707065,8.522982371905503,2.569492184215229
-0.6366966032608289,0.5163516510266382,8.548677293747655,2.5459411794202866
-0.6315330867505625,0.5714013209562422,8.574136705541859,2.523500226941053
-0.6258190735410001,0.6257899202609355,8.599371707811269,2.502211869967346
-0.6195611743383908,0.6795550227548146,8.624393826510943,2.482120532579361
-0.6127656241108426,0.7327303930959272,8.649215031836736,2.463271325305151
-0.6054383201798833,0.785345525054092,8.673847745089788,2.4457089973645347
-0.5975848649293424,0.8374252620776041,8.698304835063432,2.42947704136606
-0.5892106123085663,0.888989504817192,8.722599605477093,2.414616949906268
-0.5803207172603944,0.9400530056762222,8.746745774976155,2.401167618261371
-0.5709201872036321,0.9906252468049492,8.770757451158769,2.389164883318291
-0.5610139347355827,1.0407103952695589,8.794649099991952,2.3786411860899697
-0.5506068307828871,1.090307327352483,8.818435511852853,2.3696253435205783
-0.5397037575093623,1.1394097129733418,8.842131765288059,2.3621424146606422
-0.5283096603796289,1.1880061509224635,8.865753189434665,2.35621364649082
-0.5164295988704043,1.2360803458213236,8.889315325899574,2.3518564854930752
-0.5040687954121911,1.283611318319189,8.912833890754504,2.3490846423122975
-0.4912326822289992,1.3305736408685813,8.936324737177626,2.347908198342985
-0.47792694582031336,1.3769376923791061,8.959803819161056,2.3483337446650063
-0.4641575688965223,1.4226699260370002,8.983287156607707,2.350364545321033
-0.4499308696361523,1.4677331455258749,9.006790802060918,2.354000718387741
-0.4352535381808936,1.5120867857424856,9.030330809244795,2.359239429582673
-0.42013267032346874,1.55568719483765,9.053923203540622,2.366075094231934
-0.4045757983750922,1.5984879150090616,9.077583954482941,2.374499584283071
-0.3885909192250016,1.6404399599236528,9.101328950325772,2.3845024376801156
-0.3721865196257651,1.6814920869550578,9.125173974702573,2.3960710678324286
-0.35537159875621455,1.7215910625955941,9.149134685380897,2.409190971122131
-0.3381556881302586,1.760681919455361,9.173226595092117,2.4238459304282522
-0.320548868935705,1.7987082032096875,9.1974650543964,2.4400182125241785
-0.30256178690360813,1.8356122077181487,9.22186523652164,2.457688756955292
-0.2842056648264266,1.8713351963325187,9.246442124091194,2.4768373536534662
-0.26549231286310143,1.9058176071567177,9.27121049762773,2.497442806122195
-0.24643413679153425,1.938999239738579,9.296184925688951,2.5194830765584064
-0.22704414439414847,1.9708194203808285,9.321379756454535,2.5429354087921947
-0.20733595019034018,2.001217142976928,9.346809110542457,2.567776424451377
-0.1873237787605709,2.0301311820265115,9.37248687478697,2.5939821873216826
-0.16702246694030579,2.0575001742856864,9.398426696660188,2.621528230503556
-0.14644746519744892,2.083262665380781,9.424641978965223,2.6503895406916564
-0.1256148385436411,2.107357117682417,9.45114587437214,2.6805404937528663
-0.10454126736681693,2.1297218758235683,9.477951279309668,2.7119547357840488
-0.08324404860858126,2.15029508647544,9.505070826667508,2.7446050040248497
-0.061741097743826856,2.169014569395204,9.532516876707756,2.778462882418689
-0.04005095204987481,2.1858176373582943,9.560301505531942,2.81349848729451
-0.01819277567629187,2.2006408634153454,9.588436490404888,2.8496800796235355
0.0038136329578615825,2.2134197950016636,9.616933291201123,2.8869736016326373
0.02594783090787822,2.224088615807881,9.64580302721745,2.925342137274913
0.04818871706595703,2.2325797580262923,9.6750564485902,2.964745298215921
0.07051451464621995,2.238823469648021,9.704703901572358,3.0051385396375765
0.09290274934270017,2.2427473439259993,9.734755286968735,3.0464724133341887
0.11533022278196016,2.244275820952705,9.765220011102077,3.088691769311727
0.13777298099148721,2.243329674529581,9.796106928795194,3.1317349214228476
0.16020627773678303,2.239825501104808,9.827424278009422,3.1755327974743053
0.18260453274783112,2.2336752314743666,9.859179605984165,3.2200080996941525
0.20494128506257478,2.2247856900836696,9.891379686981107,3.265074507360709
0.22718914196341147,2.2130582309862943,9.924030432054714,3.310635959628956
0.24931972427327442,2.1983884836012515,9.957136791651003,3.356586062919933
0.2713036091092869,2.180666245074773,9.990702652280202,3.4028076733484154
0.29311027156003466,2.159775558929086,10.024730729013687,3.449172710130628
0.3147080271493255,2.1355950213182426,10.059222456114993,3.495542260200703
0.3360639773625079,2.1079983560840314,10.094177878717,3.54176703672607
0.3571439609233482,2.0768552973336925,10.12959554908426,3.58768825411097
0.3779125138966851,2.0420328128498615,10.165472431625371,3.6331389786246513
0.3983328420251837,2.003396692737122,10.201803821411618,3.6779460062083458
0.4183668089525549,1.9608135148722672,10.238583281473701,3.7219323066254453
0.4379749441012776,1.914152981733277,10.275802604539956,3.764920055460396
0.4571164739186103,1.8632906021297664,10.31345180509456,3.806734252430369
0.47574937993990796,1.8081106667614726,10.351519147618864,3.8472068964225903
0.4938304866075227,1.7485094394119653,10.38999121658309,3.886181655590183
0.5113155810016423,1.6843984575085416,10.428853033138992,3.923518936398483
0.5281595655767277,1.6157078088327674,10.468088222502978,3.959101221073492
0.5443166436650554,1.5423892278453322,10.507679234713713,3.9928385114269385
0.5597405359435087,1.4644188380918777,10.547607619827982,4.024673691872294
0.5743847243244274,1.3817993590861228,10.587854356746705,4.054587609023855
0.5882027179152887,1.2945615990687949,10.628400232836944,4.082603662658201
0.6011483339059767,1.2027650704259942,10.669226269463525,4.10879171528047
0.6131759846102366,1.106497592461884,10.71031418661633,4.13327115611506
0.6242409605348554,1.0058737854183133,10.75164689817748,4.156212999533975
0.6342996983890385,0.9010324074558164,10.79320902817282,4.17784095559798
0.6433100224635967,0.7921325388413163,10.834987437728799,4.198431477846021
0.6512313478520099,0.6793486700354535,10.87697175250726,4.218312865914698
0.6580248345523644,0.5628647976004003,10.919154881166406,4.237863572637856
0.6636534825283684,0.44286766898377017,10.961533516892786,4.257509931763238
0.6680821592182061,0.31953934024047265,11.004108616210418,4.277723579007645
0.6712775526206108,0.19304921687648907,11.046885852000495,4.299018883024842
0.6732080447893757,0.06354573599102686,11.089876040830744,4.321950733047307
0.6738435021492859,-0.06885218199437002,11.133095548161217,4.347113047588542
0.6731549803293422,-0.20406383000201292,11.176566678637101,4.375138376685271
0.6711143420293221,-0.3420555376693733,11.220318062403955,4.406698973341989
0.6676937866526284,-0.48284967146654434,11.264385052137374,4.442509713863874
0.6628652899379629,-0.6265339422337429,11.308810149276013,4.48333325796806
0.6565999505156255,-0.7732712383347236,11.353643481855693,4.529987864311782
0.6488672381322782,-0.9233102955798329,11.39894336049881,4.583358321120608
0.6396341351764798,-1.0769976121952094,11.444776943710016,4.644410519200483
0.6288641590545277,-1.2347911161883085,11.491221048902021,4.714210287005657
0.6165162478926447,-1.397276187871852,11.538363151772078,4.79394721978101
0.6025434860139262,-1.565184718094905,11.586302623969887,4.884964350004192
0.5868916388329771,-1.7394179107733443,11.635152267469929,4.988794582357397
0.5694974597252437,-1.9210734469338373,11.685040213293503,5.10720476041557
0.5502867252559053,-2.1114772708406173,11.736112260897658,5.242247848233903
0.529171952547499,-2.3122193376788815,11.788534739379996,5.396322593328115
0.5060497591707103,-2.5251905695319286,11.842497965313276,5.572237361004151
0.480797853475391,-2.752613777577905,11.898220338923318,5.773268914254994
0.45327171569961194,-2.997051971171894,11.955953028065869,6.003194373609352
0.423301195987893,-3.2613584412341066,12.015984971801963,6.266248696772657
0.39068761157555193,-3.5484949725904373,12.078647458769689,6.566907775300273
0.35520266184964755,-3.861070820172691,12.144316536522691,6.909295194607258
0.31659195364792064,-4.20032048105368,12.213409488468765,7.295823050643867
0.2745887488373838,-4.564023898721209,12.286367718975203,7.724375845892794
0.22894850985017173,-4.942648671637655,12.363611477434132,8.183025420734241
0.17952202313379517,-5.313204465086274,12.445441731641475,8.641537844248246
0.12638997848293243,-5.632351131274214,12.531857110083958,9.041757279748541
0.0700664671701903,-5.836305392924895,12.622274682881443,9.297282756433352
0.011703413240941353,-5.861611823891166,12.715247510445776,9.32193480426299
-0.04691270499797031,-5.687393843736969,12.808466858488407,9.087834173681989
-0.10378664343534,-5.35864106107836,12.899345200225227,8.6570333111556
-0.1573730540461236,-4.954535647615569,12.985915533336783,8.137364266549017
-0.20691841052227927,-4.540224107206197,13.067289176002273,7.616297917933689
-0.25232065159434125,-4.150121765008757,13.14345215518161,7.138818982943072
-0.2938218692444288,-3.7960374901595753,13.21484034501104,6.719204870718963
-0.3317822441460246,-3.4785086348196423,13.28203239371823,6.356766679581907
-0.366567330494221,-3.193768481586071,13.34560006051405,6.045353745978214
-0.39850501531008176,-2.936985173563236,13.406053597973832,5.7776816773600395
-0.4278748670457141,-2.7035321682400895,13.463830414747433,5.546971453915876
-0.454910188728115,-2.489389649010637,13.519300129286592,5.34742290099679
-0.4798040852182214,-2.291201329855673,13.57277435829656,5.174238557508193
-0.5027160985167781,-2.1062111006408233,13.624516743871641,5.023499289798838
-0.5237782095231863,-1.9321693731037406,13.674751736769629,4.89200943495662
-0.5430999032542237,-1.767242327269075,13.723671831119194,4.77715317325353
-0.5607723265269144,-1.609934350601079,13.771443362851729,4.676773734044135
-0.5768716700329253,-1.4590251596367871,13.81821110019217,4.589075891067644
-0.5914619216292931,-1.3135200466128296,13.864101859102847,4.512548640156743
-0.6045971220954214,-1.172610918294176,13.909227345504414,4.445904296982541
-0.6163232312783632,-1.0356458560993604,13.953686388474239,4.388030610553426
-0.6266796898393568,-0.902105247326268,13.997566694579772,4.337953114322963
-0.6357007423126195,-0.7715828946900407,14.040946225723001,4.294805555249171
-0.6434165712595199,-0.6437708298370816,14.083894281275493,4.257806764584778
-0.6498542795578908,-0.5184468187971984,14.12647234892134,4.2262427472583015
-0.6550387477458628,-0.395463757976342,14.168734776393922,4.199453078893833
-0.6589933853256262,-0.2747403293391485,14.210729307182861,4.176820926504061
-0.6617407886190178,-0.1562524244674262,14.252497516447901,4.157766166010079
-0.663303312863692,-0.040024969010665115,14.294075178108002,4.141741170261622
-0.6637035625537987,0.07387611111352134,14.335492589810618,4.128228896520697
-0.6629648014426635,0.1853519381394606,14.376774878775825,4.1167429226441525
-0.6611112820612689,0.29427880550222885,14.417942308002266,4.106829076272769
-0.6581684940062467,0.40051634593619506,14.459010598764992,4.098068281116005
-0.6541633305468847,0.5039156351845773,14.499991281576152,4.090080219013257
-0.6491241741950389,0.6043270561116744,14.540892083766284,4.082527385806001
-0.6430809036339221,0.7016077011985371,14.581717357624344,4.075119112245245
-0.6360648266219368,0.7956280678729253,14.622468548746797,4.067615135405037
-0.6281085459432075,0.8862778035988248,14.663144700100847,4.05982834572951
-0.6192457679072193,0.9734702863956246,14.703742983558143,4.051626400613834
-0.609511065043263,1.0571458788110712,14.744259247564282,4.0429319840567475
