th1 (rad),w1 (rad/s),th2 (rad),w2 (rad/s)
0.46922227687588103,2.9364958255295868,6.010200946486145,-1.344218821201064
0.4985872351311769,2.8244266230960444,5.996758758274134,-1.176920481641665
0.5268315013621374,2.7157404523550737,5.9849895534577175,-1.015963704687838
0.5539889058856882,2.6102400016753076,5.974829916410839,-0.8614096654670029
0.5800913059024413,2.5076401359096447,5.96621581975617,-0.7131713588136027
0.6051677072615378,2.4076110272838953,5.959084106168033,-0.571074241860121
0.6292438175343767,2.30980651765392,5.953373363749432,-0.43489602124420546
0.652341882710916,2.2138822441549597,5.94902440353699,-0.30439193087566424
0.6744807051524656,2.119506819091278,5.945980484228233,-0.17931014233870948
0.6956757733433784,2.026368371452689,5.944187382804846,-0.059400588809078156
0.7159394570579053,1.9341780308194396,5.9435933769167555,0.05558052897328582
0.7352812373660997,1.8426714189758873,5.9441491822064885,0.16586900899891824
0.7537079515558586,1.751608858143908,5.945807872296478,0.27169264456806835
0.7712240401372976,1.6607747624693787,5.948524798742159,0.37327225495461647
0.7878317877619914,1.5699765167080582,5.952257521291704,0.470823289233543
0.803531552929072,1.4790430378792114,5.95696575418404,0.5645577016618667
0.8183219833078641,1.3878231443647329,5.962611331200659,0.654685904650336
0.8322002147515114,1.296183810389753,5.969158190247162,0.7414186780938473
0.8451620528554089,1.2040083537667448,5.9765723770281,0.8249689630305911
0.8572021363930764,1.111194585639581,5.984822066658406,0.9055535009509575
0.8683140822494723,1.0176529389788276,5.993877601667916,0.9833943027227613
0.8784906116392606,0.9233045852499426,6.003711544695143,1.0587199464709771
0.88772365749176,0.8280795443403878,6.014298744159853,1.1317667141234842
0.8960044529351638,0.7319147904031386,6.025616411301088,1.2027795832037889
0.9033236008391953,0.6347523550627254,6.037644207133126,1.272013094779013
0.9096711243898226,0.5365374290268811,6.050364338080916,1.339732120846064
0.9150364986800914,0.4372164633521911,6.063761659289377,1.4062125551771119
0.9194086633136133,0.33673527239431805,6.077823784841148,1.4717419508444987
0.9227760160375564,0.2350371419535177,6.092541204349593,1.5366201252020801
0.9251263874570916,0.13206094858425824,6.107907405601614,1.601159748699586
0.9264469969429342,0.027739299940991294,6.123919003088609,1.665686926978119
0.9267243899423441,-0.07800328791077898,6.14057587235839,1.7305417753322876
0.9259443570632363,-0.18525215104084142,6.157881290111713,1.7960789694607089
0.9240918355528279,-0.29410413694525434,6.17584207980632,1.8626682344469125
0.9211507941833754,-0.40466910270097367,6.194468762150789,1.9306947021842598
0.9171041031563657,-0.5170711614379713,6.213775709172632,2.0005590217474643
0.9119333915419859,-0.6314495416619716,6.233781299390106,2.072677041452753
0.9056188961253662,-0.7479588586247838,6.254508069804634,2.147478786919501
0.8981393075391183,-0.866768502570794,6.275982857673829,2.225406324246024
0.8894716225134104,-0.9880607134294014,6.298236920916289,2.306909904737644
0.8795910153791163,-1.1120267194771065,6.321306019963665,2.3924415150256695
0.8684707481843452,-1.238860048249965,6.345230435113922,2.482444574987183
0.8560821477018455,-1.3687457472837619,6.370054880863793,2.5773380011217815
0.8423946902290079,-1.5018437555259536,6.395828260875011,2.6774921497645368
0.8273762526737484,-1.638264028605417,6.422603182372656,2.783193250704453
0.8109936123876942,-1.7780302604251736,6.450435114879701,2.8945918608786894
0.7932133097834424,-1.9210282580547202,6.479381033488488,3.011629745560967
0.7740030272028952,-2.066934484885009,6.5094973309440975,3.133938804661793
0.7533336823540451,-2.2151205770401297,6.5408367189907155,3.260706028061638
0.7311824765836438,-2.3645318812704286,6.573443779271332,3.390501559687772
0.7075371577709395,-2.5135441115310093,6.6073487948682095,3.5210753816731084
0.6824017166556294,-2.6598145668143043,6.6425595486849405,3.6491454130900425
0.6558035709874864,-2.8001650730903824,6.679051002815841,3.7702289131070583
0.6278019202565825,-2.9305615063976993,6.716753291946912,3.8786080924076076
0.5984963051926055,-3.0462789133016144,6.755539372870988,3.9675551096755712
0.5680335160595894,-3.1423369918654793,6.795214923967744,4.029936301279851
0.5366101461409346,-3.2142242789197772,6.835514286980542,4.059223112807785
0.5044679033517369,-3.2587884223467327,6.87610651810862,4.050740078105403
0.47188001912826955,-3.275010366093346,6.9166139188896745,4.002756341836873
0.4391299154673361,-3.264330423958713,6.956641482308044,3.9169561755508044
0.406486611227749,-3.2303517862352122,6.995811044063552,3.7980428115736595
0.37418309336539685,-3.1780414776242463,7.0337914721792885,3.652640602374784
0.3424026785891544,-3.112766757108389,7.070317878203037,3.487964973090015
0.31127501101807054,-3.039500783633285,7.105197527933937,3.3107244554101696
0.28088000318173767,-2.962360883161478,7.138304772488039,3.1264821318699902
0.25125639435012287,-2.8844636006620443,7.169569593806739,2.939454854913031
0.22241175834350244,-2.807989973394772,7.1989641423558695,2.7526026878331966
0.1943318586095547,-2.734349145253622,7.226490169234202,2.567853789645542
0.16698836715701848,-2.6643627698579997,7.252168707130657,2.3863576531072694
0.14034473945843848,-2.598430095632811,7.27603228366173,2.208711477326089
0.11436043850211036,-2.5366596146214873,7.2981193984349915,2.0351403631111427
0.0889938423558955,-2.4789670067099974,7.318470802066103,1.8656310882743017
0.06420417228879552,-2.4251447401948156,7.337127112948846,1.7000269222264794
0.03995272488684736,-2.374909929743667,7.35412738217111,1.5380925945119803
0.01620362558941069,-2.327936400126896,7.36950830811623,1.3795575943676153
-0.007075738411858268,-2.283875677064191,7.383303884059906,1.2241442654350296
-0.029914495182500177,-2.2423704092986374,7.395545326714256,1.0715854725055458
-0.05233819927548655,-2.203062721165379,7.406261181439311,0.9216352305634803
-0.07436882648714034,-2.1655992338577237,7.415477533744946,0.7740746404310039
-0.09602481882571758,-2.1296339439243877,7.423218280149256,0.6287147232696857
-0.11732115826496145,-2.094829761547453,7.429505427381953,0.4853972210841768
-0.138269455880436,-2.06085924466981,7.434359399592794,0.34399407066085924
-0.1588780483271341,-2.0274048828917564,7.437799340299403,0.20440601526575583
-0.17915209715605165,-1.994159161203428,7.439843400452061,0.06656065588836627
-0.19909368876808592,-1.960824549556545,7.440509007010944,-0.0695898637360062
-0.21870193426365137,-1.927113507168551,7.439813108373584,-0.2040714144240858
-0.23797306933533688,-1.8927485515266307,7.437772394229343,-0.3368906025369564
-0.2569005548506032,-1.8574624153907469,7.434403488203974,-0.4680376045397677
-0.2754751790045107,-1.8209982967055143,7.429723112158576,-0.5974890823412182
-0.2936851619715658,-1.7831101935658562,7.423748221335163,-0.725211156621415
-0.31151626390722437,-1.7435633074786328,7.416496109768949,-0.8511624206097013
-0.3289518969820107,-1.702134491957527,7.407984485562852,-0.9752969790653236
-0.34597324190158596,-1.6586127192159454,7.398231515772199,-1.0975674977726322
-0.3625593690937454,-1.612799534881163,7.387255840794473,-1.2179282485440748
-0.3786873644425571,-1.5645094689144536,7.375076558309032,-1.3363381341286669
-0.3943324591317016,-1.5135703700707435,7.361713176967745,-1.4527636769754255
-0.40946816283240905,-1.4598236311226838,7.347185540197991,-1.5671819558025144
-0.4240663991436359,-1.4031242726064532,7.331513720639966,-1.6795834745884364
-0.43809764186970046,-1.3433408539429414,7.314717885894082,-1.789974950082439
-0.4515310504091299,-1.2803551823829364,7.296818136393258,-1.8983820063286234
-0.46433460223295925,-1.214061792256861,7.2778343163299715,-2.0048517680716724
-0.47647522015552785,-1.1443671694159785,7.257785798649254,-2.1094553492820776
-0.4879188918496876,-1.0711886984685908,7.236691245156433,-2.212290238384367
-0.4986307788343735,-0.9944533133791112,7.21456834277259,-2.313482588023576
-0.5085753119681646,-0.9140958351584354,7.191433516892354,-2.4131894242318115
-0.517716270319749,-0.8300569837076031,7.167301622650036,-2.5116007974436854
-0.526016840156825,-0.7422810544178551,7.142185614675599,-2.6089419056254215
-0.5334396507010036,-0.6507132540179912,7.1160961956193445,-2.705475227326418
-0.5399467832411835,-0.5552966947112341,7.089041443346081,-2.80150270897939
-0.5454997501882959,-0.4559690514657766,7.061026416256286,-2.897368055123787
-0.5500594407029537,-0.35265889548678186,7.032052735705048,-2.993459170663433
-0.5535860296578214,-0.2452817292052959,7.0021181439984135,-3.090210798105659
-0.5560388469498744,-0.13373576752066885,6.971216036017357,-3.188107375786343
-0.5573762046250811,-0.017897541271350625,6.939334962259494,-3.2876861088193
-0.5575551800377946,0.10238255046530433,6.906458101171301,-3.389540182623156
-0.5565313545331415,0.22728453068977253,6.87256269934507,-3.494321943130211
-0.5542585092262438,0.3570226367791406,6.837619479913768,-3.6027456925285337
-0.5506882828584524,0.4918480624629007,6.801592022988483,-3.7155894642322127
-0.5457698022338234,0.632049760009417,6.764436128346161,-3.8336946823893627
-0.5394493046337293,0.7779518797171172,6.726099181522268,-3.957961881317085
-0.5316697858365581,0.9299055867942048,6.686519562709097,-4.089339508775504
-0.5223707299686161,1.0882716973620248,6.645626167621342,-4.228801041713255
-0.5114880129949959,1.2533885960748639,6.60333815720421,-4.377302891886881
-0.4989541270342473,1.425516964097592,6.559565128285341,-4.535711476914938
-0.4846989573932714,1.604748701108936,6.514208013516192,-4.704681995800544
-0.468651470382182,1.7908620679788023,6.467161193558186,-4.884463828242796
-0.450742849702394,1.9830993955653646,6.418316555275759,-5.074599231223436
-0.43091185574674035,2.17984090327912,6.367570562963524,-5.273477477920348
-0.40911344671394917,2.3781564776461703,6.314835788184321,-5.4777170896572605
-0.38533188193748746,2.573253690087096,6.260058617287748,-5.6813979481350305
-0.3595993450366165,2.75793171710802,6.203244637806398,-5.875290344401424
-0.3320200278655363,2.922318874602917,6.144491734362384,-6.046460345316152
-0.3027968391195071,3.0543769542203725,6.084027130909222,-6.178917148397465
-0.2722530695773034,3.141700121655178,6.022237959425247,-6.256034412476406
-0.2408360683607516,3.174659300356036,5.959677615300484,-6.264823764888526
-0.20908947535719125,3.149826133830603,5.897029377651599,-6.200599236355038
-0.17759121401888522,3.0716768202911,5.835023385288048,-6.06928622937215
-0.14687444581597422,2.951229785056205,5.774330522994327,-5.885538351942842
-0.11736214796541217,2.802413824494721,5.715475139474899,-5.667779071506052
-0.08933800972046496,2.6383951731035857,5.658797348759839,-5.433234184835563
-0.0629540579894291,2.4694655362495386,5.604465006911483,-5.1951290554284295
-0.03825940262693371,2.302599720023586,5.552513716357199,-4.962164560784138
-0.015233405426697853,2.141973681995875,5.502892070749358,-4.73927958766627
0.006186331393260899,1.9897603809408706,5.455499274872695,-4.528764162496305
0.026083935202669606,1.8468430989868883,5.410211633247732,-4.331238796159876
0.04455236619253849,1.71333900969636,5.366899245286133,-4.146363035527982
0.06168575628950209,1.588944798012952,5.325435614930853,-3.9732962824231954
0.0775752042696316,1.4731501395609665,5.285702652106621,-3.810977418063295
0.09230670566524127,1.3653631554800718,5.247592877925988,-3.658285346460552
0.10596033722004199,1.2649806801620016,5.211010024461382,-3.51412595117025
0.118610144021662,1.1714252390366635,5.17586876494968,-3.3774754183786975
0.13032439641202864,1.0841625243085857,5.142094010765893,-3.2473985536877263
0.1411660216551145,1.0027077665285293,5.109620025229016,-3.12305328398584
0.1511930993203998,0.9266260079209965,5.0783894923891575,-3.0036879076153684
0.16045935939960976,0.8555292120066584,5.0483526133130034,-2.888634861268062
0.16901465151967635,0.7890719012873804,5.0194662647003225,-2.7773031159011783
0.17690537053255015,0.726946277727651,4.9916932335413104,-2.669170345983011
0.18417483330982665,0.6688773477335607,4.96500153008148,-2.5637754578559773
0.19086360678716224,0.6146183214359621,4.93936377550292,-2.460711745762313
0.19700979000152186,0.5639464115005415,4.914756658045297,-2.359620767973632
0.20264925411652726,0.5166590753562674,4.891160450365561,-2.260186941315303
0.20781584487008994,0.47257070045433736,4.868558580952408,-2.162132805349492
0.2125415518746333,0.43150970939430894,4.846937252898913,-2.0652148871467055
0.2168566489685764,0.3933160512774465,4.826285104027446,-1.9692200919962883
0.22078980948135085,0.3578390420405961,4.806592903107483,-1.8739625476444262
0.22436819990175683,0.32493551660757813,4.787853277631039,-1.7792808357096204
0.2276175550678326,0.29446825762924195,4.770060469273943,-1.6850355515449356
0.230562237644125,0.2663046683246091,4.7532101137584934,-1.5911071417403055
0.2332252843273711,0.24031565991208964,4.737299042341091,-1.4973939760227377
0.23562844092649202,0.21637472703623475,4.7223251025808635,-1.4038106171929956
0.23779218819685435,0.19435718731593318,4.708286996408933,-1.3102862588028021
0.23973576007001368,0.17413956361754235,4.695184133820906,-1.2167633055024474
0.2414771557061891,0.15559908989144325,4.6830165007658815,-1.123196075407813
0.24303314660510353,0.13861332342547084,4.671784540011803,-1.0295496075099064
0.24441927983935824,0.12305984819396303,4.661489043936704,-0.9357985601533367
0.24564987832129787,0.10881605564692945,4.65213105833517,-0.8419261890209454
0.24673803887776716,0.09575899081578365,4.643711796444961,-0.7479233949572964
0.247695628785925,0.08376525302970712,4.636232562495389,-0.6537878334179581
0.24853328131622207,0.07271094185289748,4.629694684161209,-0.559523078413986
0.24926039073475104,0.06247164007439518,4.624099453377069,-0.46513783459624314
0.249885107135495,0.05292242671028822,4.619448075031107,-0.37064519165132953
0.2504143314025979,0.04393791401008699,4.615741623114594,-0.27606191551365344
0.2508537105426988,0.03539230338914161,4.612981003959457,-0.18140777108469655
0.2512076335765902,0.02715945602945828,4.61116692624861,-0.08670487123328104
0.2514792281368848,0.019112974593619467,4.610299877536277,0.008022953133628385
0.251670357882821,0.011126293072241998,4.610380107067614,0.10275076716044064
0.25178162081354344,0.003072772226853506,4.611407614739218,0.19745313555508887
0.25181234853581197,-0.005174201609002081,4.613382146094769,0.2921047208095417
0.25176060651972193,-0.01374111645153477,4.616303193302865,0.3866808814165703
0.2516231953552066,-0.022754235383319388,4.62017000211703,0.48115827534432887
0.2513956530013734,-0.032339500274198144,4.624981584870473,0.5755154739740996
0.2510722579986314,-0.04262244099723152,4.630736739610214,0.6697335916249798
0.2506460335886591,-0.053728093050353205,4.637434075526463,0.7637969356926095
0.2501087526581556,-0.06578092704542812,4.645072044883389,0.8576936823332215
0.2494509433877013,-0.07890479419924623,4.653648981706722,0.9514165825508156
0.24866189544570882,-0.09322289274480274,4.66316314753223,1.0449637035209782
0.2477296665182608,-0.1088577610643553,4.67361278456744,1.1383392100417433
0.24664108890761727,-0.12593130431637978,4.684996176667857,1.2315541911767256
0.24538177586445348,-0.1445648623755026,4.697311718579624,1.3246275374898053
0.24393612724069846,-0.16487932801812907,4.710557993954522,1.4175868748091607
0.24228733396051716,-0.18699532545960068,4.724733862702614,1.5104695612501324
0.24041738070592114,-0.21103346057730996,4.739838558315115,1.603323755322641
0.23830704610014805,-0.23711465543808521,4.755871795868341,1.696209564402772
0.23593589954576719,-0.2653605810910501,4.772833891512368,1.7892002847130946
0.23328229373485668,-0.2958942039960446,4.7907258943594995,1.8823837462838235
0.23032335169489623,-0.3288404629408815,4.8095497318223375,1.9758637792034792
0.2270349470654874,-0.3643270948639132,4.829308369614372,2.0697618208489956
0.22339167611684826,-0.4024856296375995,4.850005987822862,2.1642186877276055
0.21936681982047226,-0.44345257555822176,4.871648174700138,2.2593965400485563
0.21493229406489003,-0.48737081895922735,4.894242140100624,2.3554810720960044
0.21005858587529777,-0.5343912628799138,4.917796950821584,2.452683966722229
0.20471467324649864,-0.5846747308113248,4.942323790488807,2.551245657487914
0.1988679259383854,-0.6383941617343556,4.967836247063686,2.651438446542942
0.19248398432104183,-0.6957371211501451,4.994350631529116,2.7535700292299867
0.18552661310954038,-0.7569086482211289,5.021886331821416,2.857987475855159
0.17795752662732908,-0.8221344492499244,5.0504662065799675,2.9650817141954438
0.16973618213482983,-0.8916644288551543,5.080117023721922,3.075292538303517
0.16081953784627828,-0.9657765163949132,5.1108699491049565,3.1891141321561705
0.15116177268232914,-1.0447806867739093,5.142761090426518,3.3071010278059987
0.14071396581459006,-1.1290229761113775,5.175832100704578,3.429874295948519
0.1294237360534763,-1.2188891285813903,5.2101308436640625,3.5581275580397533
0.11723484476766238,-1.314807240341955,5.24571211924446,3.692632057813284
0.10408677236424282,-1.4172483244617102,5.282638439822593,3.834239446572442
0.08991428911962572,-1.526723002966187,5.320980834288317,3.9838799771699747
0.07464705908996386,-1.6437713749479719,5.360819634060017,4.142552238810922
0.05820934534048414,-1.768941262678844,5.402245156448126,4.311298048377372
0.040519932713695694,-1.9027471352767487,5.4453581369319,4.491152128308268
0.02149246136092821,-2.0455975662037154,5.490269658214983,4.683050053205076
0.0010364856988910529,-2.197672583784068,5.537100158747033,4.887668885933743
-0.02094024013894963,-2.3587235659768275,5.5859768476063705,5.1051626565885435
-0.04452747579871791,-2.527758729601841,5.637028474172256,5.3347410651548
-0.06980506309473632,-2.7025722800711938,5.690375884823804,5.574031964946611
-0.09683078589544826,-2.879090083611958,5.74611620447327,5.818187123954608
-0.12562168673156784,-3.0505719319068727,5.804298075712816,6.058781627771363
-0.15612740605063657,-3.206881402513785,5.86488589199053,6.282791601752044
-0.1881962200757744,-3.3343410070460893,5.92771380800805,6.472358310703908
-0.2215396301462353,-3.4170113701664535,5.9924373911150886,6.606492718867236
-0.2557097438478998,-3.4400971350166443,6.058502318303761,6.665691050409134
-0.29011071519806625,-3.3949366710802944,6.125159228807853,6.638715259836592
-0.3240600819088692,-3.283007484476719,6.191546381406218,6.5280038999133945
-0.3568901567536364,-3.1158766418151265,6.2568264204053525,6.349509249577931
-0.38804892317178763,-2.910797498720147,6.320321512901132,6.12660478489305
-0.4171568981589891,-2.685061771196502,6.381587560750063,5.882380350619194
-0.4440075158709541,-2.452323480643991,6.440411364256255,5.6347215155475405
-0.468530750677394,-2.2216379674388866,6.49675857941173,5.395126436912793
-0.4907471303517829,-1.998166818876577,6.550709843780858,5.169770115271824
-0.5107287985405486,-1.784366437754577,6.602407544933576,4.961183463223708
-0.5285724629180945,-1.5810360836350938,6.652019379565813,4.769703813185968
-0.5443828237544454,-1.3880570539264718,6.6997164176976725,4.594482461950646
-0.5582633942937101,-1.2048567086928936,6.745661242317179,4.4341072512992366
-0.570311961380639,-1.0306790011552507,6.790002314830171,4.2869586311890435
-0.5806187513921915,-0.8647330848127119,6.832871901142061,4.151400233079901
-0.5892660822403186,-0.7062696749899496,6.87438590347286,4.025873031155481
-0.5963287789902181,-0.5546163004577576,6.914644633784415,3.9089358549026514
-0.6018749419947956,-0.4091899378639911,6.953733992333442,3.799277337654322
-0.6059668413734356,-0.2694976645999278,6.991726765709985,3.6957135223584627
-0.6086618180194349,-0.13513130773757545,7.0286839009335695,3.5971789717091576
-0.6100131310968107,-0.005759377567135654,7.064655690650661,3.5027155877233405
-0.610070724872482,0.11888195178775553,7.0996828465278945,3.411461301291157
-0.6088819053546045,0.23899790596719778,7.133797459540806,3.322639661651597
-0.6064919262949325,0.3547437793966825,7.167023856157321,3.235550741410269
