th1 (rad),w1 (rad/s),th2 (rad),w2 (rad/s)
2.860898692211854,-1.2439378325569657,1.951495117907409,-1.1422055724281532
2.8484593138862846,-1.2539260410331827,1.9400730621831275,-1.214843393580176
2.8359200534759528,-1.2660661418177122,1.9279246282473257,-1.286372668840817
2.8232593920577758,-1.2804396336420865,1.9150609015589175,-1.3567095243789693
2.8104549957213547,-1.2971266767414646,1.9014938063151279,-1.4257679814505304
2.79748372895394,-1.3162059965212425,1.8872361265006226,-1.4934595034033942
2.784321668988728,-1.337754765438501,1.8723015314665885,-1.5596925032541493
2.7709441213343426,-1.3618484617634514,1.8567046064340471,-1.624371812487602
2.757325636716708,-1.388560704705948,1.840460888309171,-1.6873981114096224
2.7434400296696486,-1.417963066217462,1.8235869071950748,-1.748667321234051
2.729260399007474,-1.4501248606102233,1.8061002339827343,-1.8080699581308168
2.714759150401372,-1.4851129139814048,1.7880195344014262,-1.8654904497202311
2.699908021261558,-1.522991316307936,1.7693646299042238,-1.9208064149729318
2.6846781080984785,-1.5638211600102123,1.7501565657544944,-1.9738879091617458
2.6690398964983766,-1.607660269799568,1.7304176866628769,-2.0245966363973364
2.652963293800381,-1.6545629297577522,1.7101717202989035,-2.0727851333416996
2.6364176645028037,-1.7045796148817174,1.6894438689654865,-2.118295928901969
2.6193718683539866,-1.757756735798826,1.668260909676467,-2.160960686023184
2.6017943009959983,-1.8141364070490016,1.646651302816235,-2.2005993330762865
2.583652936925508,-1.873756251269919,1.6246453094854723,-2.2370191937221744
2.564915374412809,-1.936649253830724,1.6022751175482506,-2.270014125461207
2.5455488818745016,-2.0028436849513174,1.5795749762936384,-2.2993636782785596
2.525520445024988,-2.072363109118184,1.5565813395108528,-2.3248322857889665
2.5047968139338064,-2.145226504649376,1.533333016652963,-2.3461685019816363
2.4833445488873127,-2.2214485195376237,1.5098713316331467,-2.363104296973662
2.4611300636919364,-2.301039893156751,1.48624028866341,-2.375354425003065
2.438119664760369,-2.384008076970955,1.4624867444133793,-2.3826158771422445
2.4142795839906595,-2.470358090924559,1.438660585641957,-2.3845674298202963
2.3895760030814137,-2.5600936555552707,1.414814911343754,-2.3808692981799124
2.363975066525861,-2.653218642855594,1.391006218361955,-2.371162900605056
2.337442880097305,-2.749738891218423,1.3672945893559043,-2.35507073760284
2.309945491185121,-2.8496644310501265,1.343743881979876,-2.332196384962058
2.2814488468746195,-2.953012167264915,1.3204219181302554,-2.3021245983941836
2.2519187252019703,-3.0598090620938327,1.2974006721463136,-2.26442152579865
2.221320634581032,-3.170095855282744,1.2747564568883272,-2.2186350256823135
2.1896196760282045,-3.283931347063699,1.252570106631504,-2.164295098947852
2.1567803625575674,-3.4013972495900386,1.2309271556420256,-2.100914460670651
2.122766390061667,-3.5226035807023903,1.2099180110353192,-2.0279893154198727
2.087540354254643,-3.6476945235275178,1.1896381178811204,-1.9450004645777772
2.051063409019368,-3.776854596499695,1.1701881132353427,-1.851414982896845
2.0132948630543708,-3.9103148553211056,1.1516739634063742,-1.746688878466714
1.9741917145011598,-4.048358656848687,1.134207074621707,-1.6302714321972298
1.9337081279326729,-4.191326217355999,1.1179043602997347,-1.5016123555651164
1.8917948657591128,-4.33961673668487,1.1028882367440835,-1.3601735921111675
1.8483986983922642,-4.4936861494283225,1.089286500822972,-1.2054486416852623
1.803461836897981,-4.654037479443806,1.0772320144061194,-1.0369938816165742
1.756921462103543,-4.821199142653477,1.0668620755899536,-0.8544787312711946
1.708709470677008,-4.995684152173108,1.0583172882772416,-0.6577649379992223
1.658752629155277,-5.177919825122034,1.0517396388972493,-0.4470300021784082
1.6069734309040566,-5.368133239455254,1.0472693388754652,-0.22295577680682407
1.553292098509504,-5.566172898307419,1.045039781107397,0.012990350709599724
1.49763036952643,-5.771243894296556,1.045169684614493,0.2581507113297881
1.4399179305834644,-5.981537629407335,1.047751191727791,0.508125132271874
1.380102554289391,-6.193758854121499,1.0528324430505098,0.7560811028448879
1.318164965748176,-6.402610528123087,1.0603932540789587,0.9920226703131378
1.254138860466945,-6.600409305279687,1.07031348078209,1.2022796923111083
1.188134767414148,-6.777161439975056,1.082336277705201,1.3697074456198892
1.1203631530143974,-6.921532475528013,1.0960333521613999,1.4752342530519715
1.0511478282591171,-7.022968286383861,1.1107856946919197,1.5011334125786504
0.9809181453952786,-7.074567169958325,1.1257970288177062,1.4354306759060709
0.9101724736956953,-7.075422360436372,1.140151335576767,1.2755632751742259
0.8394182500913316,-7.030965110865652,1.1529069683285091,1.029105360047153
0.7691085989826751,-6.950963450142364,1.1631980219289806,0.7109902174090381
0.6995989644812515,-6.846385872359851,1.170307924103071,0.3389401084545162
0.631135105757653,-6.726781467092388,1.1736973251876162,-0.07047989559373224
0.5638672910867291,-6.598995074454717,1.172992526231679,-0.5039270858061395
0.4978773403421819,-6.467048695408573,1.1679532553736176,-0.9516430824669123
0.43320685338809617,-6.332632887439766,1.1584368245489485,-1.4068879893622932
0.3698805245136985,-6.1957534068446805,1.1443679446553254,-1.8651079282553367
0.30792299044525173,-6.055305511119525,1.125716865372772,-2.3231831283772806
0.2473699353340565,-5.909510794411448,1.1024850340889993,-2.778869512820202
0.188274827389942,-5.756226839725948,1.0746963389607973,-3.2304325136411225
0.13071255899268253,-5.593161673436071,1.042392013824386,-3.676434304683276
0.07478094225832183,-5.4180235099154705,1.0056276707775533,-4.115632449106253
0.02060070715916712,-5.228628057543985,0.9644713462864908,-4.546955599967774
-0.03168557341627273,-5.022977428805811,0.9190017902868131,-4.969530568232476
-0.08191534770433084,-4.799318467974246,0.8693064846044883,-5.3827417978923675
-0.1299085323840733,-4.556184328143811,0.8154790666255647,-5.7863087418440315
-0.1754703756655114,-4.292421180468743,0.7576159792071244,-6.180369237099395
-0.21839458747019885,-4.007201831170628,0.6958122868361305,-6.565558120023526
-0.2584666057819051,-3.7000297616762836,0.6301567056358952,-6.943070031316808
-0.29546690339866793,-3.3707410021696163,0.5607260053227271,-7.31469310976948
-0.3291743134203641,-3.019518062144811,0.4875790742250323,-7.682794742329807
-0.3593694940418122,-2.6469413352706477,0.41075112680173426,-8.05022926454164
-0.38583890739451865,-2.254121410510296,0.33024883415631784,-8.420116485074226
-0.4083801214996216,-1.8429839390445169,0.2460476693055756,-8.79540356318805
-0.4268099608900668,-1.4168198267720713,0.1580936336736951,-9.17806595694435
-0.4409781591577875,-0.9812625985057153,0.06631297410425162,-9.56773030356978
-0.45079078514284465,-0.5458778176753137,-0.02936432893144618,-9.959456012366449
-0.45624956331959776,-0.12643270747220392,-0.12895888905511066,-10.340543987125754
-0.4575138903943198,0.25261006111830353,-0.2323643289263682,-10.686914373742512
-0.45498778978313675,0.5571271056228355,-0.33923347266379333,-10.961320753782715
-0.4494165187269084,0.7474532358736443,-0.4488466802016205,-11.118120794055356
-0.44194198636817195,0.7907862368276345,-0.5600278881421741,-11.11893215090819
-0.4340341239998956,0.6780996923138691,-0.671217209651256,-10.954235070482262
-0.4272531270767569,0.4318767204768026,-0.7807595603560786,-10.652874931312702
-0.42293435987198885,0.0952532376584822,-0.8872883096692057,-10.267446713340224
-0.421981827495404,-0.28760844740587893,-0.9899627768026079,-9.849099715815072
-0.4248579119694628,-0.6839130279593786,-1.0884537739607587,-9.432645878409671
-0.4316970422490566,-1.073878810172949,-1.1827802327448553,-9.035737384619784
-0.4424358303507861,-1.4472258826679378,-1.2731376065910531,-8.664254579240557
-0.4569080891774655,-1.7992807343318828,-1.3597801523834587,-8.317687529632138
-0.4749008965207843,-2.1282792147846465,-1.44295702767978,-7.99267637976484
-0.4961836886686308,-2.433823280855579,-1.5228837914774285,-7.684948618735366
-0.5205219214771866,-2.716089183644953,-1.5997332776647821,-7.390266377208056
-0.5476828133136361,-2.9754573242333655,-1.6736359414368627,-7.104843652969091
-0.5774373865559698,-3.2123612172952707,-1.7446843779665535,-6.825500579935747
-0.6095609987289224,-3.4272438574952675,-1.812939383765911,-6.549693776359393
-0.6438334373038751,-3.6205626834108253,-1.8784363215295048,-6.275490855374693
-0.6800390641379833,-3.7928128505262073,-1.9411912300832517,-6.001520964463658
-0.7179671926432454,-3.944553488971196,-2.001206439727888,-5.726915639047661
-0.7574127275329573,-4.076429479040836,-2.058475596118365,-5.451246122872787
-0.7981770223233656,-4.1891854852287835,-2.112988057347093,-5.174459804628696
-0.8400688771756535,-4.283671315007176,-2.16473265539338,-4.896817101315968
-0.8829055903257252,-4.360838992549195,-2.2137008264065394,-4.618829760675439
-0.9265139802512172,-4.421732693192044,-2.2598891240132937,-4.341201552488378
-0.9707313071831377,-4.4674730862632535,-2.3033011395381773,-4.064772381969004
-1.0154060380457703,-4.499237794034969,-2.343948863357867,-3.790466861628027
-1.06039841598612,-4.5182396597996295,-2.3818535319741474,-3.519248281007755
-1.1055808125841162,-4.525704376465201,-2.417046014784225,-3.2520787217993092
-1.1508378563487682,-4.522848799086805,-2.449566802002218,-2.989885806056331
-1.1960663443396362,-4.510860986541559,-2.479465660062781,-2.7335362723334686
-1.2411749542050519,-4.490882720995376,-2.506801022786116,-2.4838162826600056
-1.2860837814150057,-4.463994965439362,-2.531639185612716,-2.2414181005626364
-1.3307237310693993,-4.431206459596757,-2.5540533666183425,-2.006932566800102
-1.375035795665367,-4.393445436395347,-2.5741226922863434,-1.7808466459992236
-1.4189702500293204,-4.3515542719921605,-2.591931158746336,-1.5635452266042997
-1.462485792749242,-4.3062867634687,-2.6075666110123787,-1.3553163243050843
-1.505548660383929,-4.258307656883044,-2.6211197742554297,-1.1563588564079446
-1.5481317369527594,-4.208194018517647,-2.632683362819509,-0.9667922096852322
-1.5902136771379358,-4.156438046445705,-2.6423512849163617,-0.7866669043395489
-1.6317780576023928,-4.103450950054999,-2.650217953959757,-0.6159757496019572
-1.6728125671029428,-4.049567574439782,-2.6563777114557765,-0.4546649814031758
-1.7133082428473405,-3.9950515080967084,-2.6609243612698084,-0.30264496088300824
-1.7532587579283077,-3.940100480851486,-2.6639508108786383,-0.15980008799227557
-1.7926597627368226,-3.884851930282616,-2.665548811758561,-0.025997643307040186
-1.8315082820396487,-3.829388685874217,-2.6658087881916313,0.09890468792058589
-1.8698021688983908,-3.7737447879210597,-2.6648197413124253,0.21505283136754777
-1.9075396167776013,-3.717911519836027,-2.66266921299875,0.32259208977498044
-1.9447187319759616,-3.6618437841098235,-2.6594432921010003,0.42166486590233415
-1.9813371698170599,-3.6054669883606962,-2.655226643441977,0.5124105406468353
-2.0173918397006667,-3.5486846213576446,-2.6501025380355085,0.5949676803456582
-2.052878685914243,-3.491386680406352,-2.644152861232052,0.6694786908173372
-2.0877925527183065,-3.4334590509495047,-2.6374580743238787,0.7360969303076352
-2.1221271432278015,-3.374793827882483,-2.6300971050208024,0.7949961247087146
-2.1558750815066263,-3.3153004022276167,-2.622147143773715,0.846381689483591
-2.1890280855289026,-3.2549169228067933,-2.613683326878879,0.8905032617301392
-2.2215772547569705,-3.193621501907684,-2.604778294261578,0.9276674127817724
-2.2535134697760473,-3.1314423062849532,-2.59550162013376,0.9582492026647319
-2.284827892838897,-3.0684655158299536,-2.5859191281071126,0.9827010313157497
-2.3155125479971965,-3.0048401037702592,-2.576092117793955,1.0015572248808318
-2.345560949034899,-2.9407785447143064,-2.5660765455451466,1.0154330388419919
-2.3749687344820423,-2.876552907414473,-2.555922215156727,1.0250172853700985
-2.403734263556187,-2.812486304466144,-2.545672042303026,1.0310585500149216
-2.4318591266008487,-2.748940264630063,-2.535361456802877,1.0343458264475363
-2.4593485292471495,-2.6862991427200997,-2.5250179985384014,1.0356851910110458
-2.4862115206743507,-2.624953064109339,-2.514661146628291,1.0358746850939988
-2.512461051315444,-2.5652810319321717,-2.5043023997773513,1.0356797535317082
-2.538113861634766,-2.50763568705134,-2.493945602242034,1.035811377473218
-2.5631902185052793,-2.4523308544721836,-2.4835874884673017,1.0369085152849737
-2.587713527050001,-2.3996325326656205,-2.4732184033144518,1.039525767167368
-2.611709852376657,-2.3497534939402316,-2.462823145642778,1.044126467428295
-2.6352073873160595,-2.3028512542735675,-2.452381880968495,1.051080812655749
-2.6582358998587954,-2.259028891002162,-2.4418710728419373,1.0606682282526814
-2.680826188768817,-2.2183380470333676,-2.4312643905594102,1.0730829750145907
-2.7030095692391507,-2.180783440827146,-2.420533560809264,1.088441972472795
-2.724817403647422,-2.146328266637363,-2.4096491410845364,1.1067939145949228
-2.7462806863137956,-2.11489998132987,-2.3985812019385873,1.128128920587458
-2.767429686127094,-2.086396100671767,-2.3872999127327126,1.152388152452069
-2.788293647133812,-2.0606897473454406,-2.3757760312081917,1.1794730094055845
-2.8089005446072663,-2.0376347929223466,-2.3639813011141357,1.209253659361094
-2.8292768925364897,-2.017070512242334,-2.351888764520525,1.2415767828096589
-2.849447597658913,-1.9988257218408123,-2.3394729966924284,1.276272485617418
-2.869435854877321,-1.982722407796997,-2.3267102718362542,1.313160389565532
-2.889263078955291,-1.9685788672348519,-2.313578667940599,1.3520549395849195
-2.9089488676276396,-1.9562123962223754,-2.30005811854475,1.392769981189242
-2.9285109915898633,-1.9454415588575302,-2.2861304187328577,1.4351226662703416
-2.9479654071784385,-1.9360880708895778,-2.2717791920701544,1.4789367445951072
-2.9673262878873343,-1.9279783284000318,-2.2569898246242035,1.5240452951397834
-2.9866060711713347,-1.920944609172734,-2.241749371672806,1.570292947784234
-3.005815517263062,-1.9148259721092191,-2.2260464421949635,1.617537642920945
-3.024963776984154,-1.909468878630246,-2.209871065765754,1.66565197460205
-3.0440584657704566,-1.904727559384267,-2.193214546019733,1.7145241619034204
-3.063105741364299,-1.9004641495275738,-2.176069304400699,1.7640586929306383
-3.082110382859575,-1.8965486160522864,-2.1584287174713923,1.8141766859310784
-3.101075869020098,-1.8928585008288077,-2.1402869506120816,1.8648160119200161
-3.1200044540283858,-1.8892785029655312,-2.1216387904928813,1.9159312227610013
-3.138897239058041,-1.885699923616017,-2.102479478265271,1.9674933275523143
-3.157754238294201,-1.8820199954128072,-2.082804544989748,2.0194894583650442
-3.176574438248329,-1.8781411172855083,-2.0626096504060976,2.0719224638563487
-3.1953558494211842,-1.873970013599927,-2.041890425767534,2.1248104661207567
-3.2140955495571837,-1.8694168344519204,-2.0206423211063265,2.1781864124651897
-3.232789717901703,-1.8643942117102548,-1.9988604569816746,2.2320976497374287
-3.2514336600188054,-1.8588162831887236,-1.9765394804843004,2.286605544529362
-3.2700218228506928,-1.8525976953073542,-1.9536734250390069,2.3417851681078825
-3.288547799803766,-1.8456525929475558,-1.930255573357928,2.3977250603383795
-3.3070043257332418,-1.83789360409426,-1.9062783227545443,2.454527082132535
-3.3253832617741845,-1.829230826481042,-1.881733051933219,2.512306360968966
-3.343675570038995,-1.8195708240307114,-1.8566099883235292,2.5711913286054937
-3.361871278279302,-1.8088156426786592,-1.8308980750374741,2.631323843921366
-3.379959434706089,-1.7968618585144922,-1.8045848365982604,2.692859386464098
-3.397928053291234,-1.7835996765154236,-1.7776562427336193,2.7559672971394686
-3.415764050056388,-1.7689121060477826,-1.7500965697622246,2.820831030790224
-3.433453171116866,-1.7526742505409794,-1.7218882594543223,2.8876483701294062
-3.450979913622276,-1.7347527642906593,-1.6930117757530283,2.956631530289781
-3.4683274412651826,-1.7150055505248882,-1.6634454604501305,3.0280070563994115
-3.4854774967704314,-1.6932818033354504,-1.6331653898861365,3.1020153809064603
-3.502410314803786,-1.6694225339270825,-1.6021452360770718,3.178909860120331
-3.519104540143057,-1.6432617714188649,-1.5703561374758686,3.258955047284757
-3.5355371578572456,-1.6146286931146587,-1.537766587003021,3.342423878562308
-3.551683444788392,-1.5833510219656899,-1.5043423482173979,3.4295933443350015
-3.567516955008049,-1.5492601329235176,-1.470046414774048,3.520738087111464
-3.5830095563372844,-1.512198437009105,-1.4348390339029333,3.616121206221487
-3.5981315407073753,-1.4720297614702815,-1.3986778218407185,3.7159813588292234
-3.612851838322078,-1.4286536100275593,-1.3615180082524263,3.8205150340135803
-3.6271383744223535,-1.3820243522191964,-1.3233128579122906,3.9298526621468115
-3.6409586179445457,-1.332176520821877,-1.2840143312908225,4.044027048370065
-3.6542803831527646,-1.279257428470452,-1.243574060807122,4.162932565542078
-3.667072957437469,-1.2235681440871595,-1.2019447351517012,4.286273741514217
-3.6793086388783407,-1.165613335066997,-1.159081997736559,4.413502534098281
-3.6909647722290106,-1.106159355655324,-1.114946972395576,4.543744996047561
-3.702026365785564,-1.0462979664260366,-1.0695095224351003,4.675720553683678
-3.7124893454498245,-0.9875099341625404,-1.0227523168982635,4.807661111803809
-3.7223644447914497,-0.9317183748684423,-0.9746757057802254,4.937242811916115
-3.731681628540134,-0.8813163890827588,-0.9253032776610643,5.06155011663123
-3.7404947924309617,-0.8391484482802969,-0.874687776494752,5.1770985180439055
-3.7488862769137645,-0.8084224639546219,-0.822916791314313,5.279945585694156
-3.756970501553311,-0.7925330019618417,-0.7701173354573714,5.365915791456949
-3.7648958315729293,-0.7947893343830107,-0.7164581775428018,5.430947868519069
-3.7728437249167595,-0.8180663440050355,-0.6621486988576112,5.471542525313608
-3.7810243883568098,-0.8644276657264578,-0.6074332736044751,5.485248250770942
-3.7896686650140743,-0.934797666127731,-0.5525807910967656,5.4710879890213615
-3.7990166416753515,-1.0287665688158938,-0.497869911206552,5.4298192379426355
-3.8093043073635102,-1.144590351682799,-0.44357171882712565,5.363948526217098
-3.8207502108803384,-1.2793971735538272,-0.38993223356495466,5.277484204134916
-3.8335441826158765,-1.4295542530320005,-0.33715739152360547,5.175484681967949
-3.8478397251461964,-1.5911085567174261,-0.28540254470392595,5.0635107742669385
-3.8637508107133707,-1.760207155825083,-0.23476743696125657,4.947100776124616
-3.8813528822716217,-1.9334265176208065,-0.1852964292000104,4.831358055276183
-3.9006871474478295,-2.1079785263729023,-0.13698284864724858,4.7206930722763065
-3.9217669327115585,-2.2817969113841916,-0.08977591792448551,4.618717023749899
-3.9445849018254004,-2.4535303898132326,-0.04358874768698652,4.528255967152751
-3.9691202057235326,-2.622476665316506,0.0016938119845409938,4.451444298912354
-3.9953449723766976,-2.788488633655981,0.046208254973664535,4.389859717132151
-4.023229858713258,-2.951876306124003,0.09010685214498605,4.344671468555605
-4.052748621774498,-3.11331937257004,0.1335535668305421,4.316784474141454
-4.083881815500198,-3.2737982962711243,0.17672141157195664,4.30697100745337
-4.116619798462909,-3.4345470799684916,0.21979112164649034,4.315988078268608
-4.150965269262594,-3.5970281887043978,0.2629510024291764,4.344682767449156
-4.186935551149638,-3.762929045650761,0.30639783010366795,4.394090102157076
-4.224564841606146,-3.9341794907701972,0.3503387311252387,4.465529300025318
-4.263906636513847,-4.112990151261607,0.3949940241254919,4.560704815513261
-4.305036538026464,-4.3019124165412395,0.4406010722806245,4.681818781076838
-4.348055662191876,-4.503921157227732,0.4874192600913929,4.831700925076018
-4.393094873764153,-4.72252061581431,0.5357362693421531,5.013959896368893
-4.440320079922296,-4.961870146391144,0.585875868305842,5.233153595624364
-4.489938781386208,-5.2269153721140125,0.6382074042620857,5.494959564626906
-4.542207935107347,-5.523481899499082,0.6931569999083547,5.80628571034767
