th1 (rad),w1 (rad/s),th2 (rad),w2 (rad/s)
0.058661674636066495,1.6195102275044169,2.217152005105718,3.074989859510484
0.07485677691111066,1.6264361850684685,2.2479019037008228,2.9787704637216517
0.09112113876179534,1.6281296069892177,2.277689608338039,2.881550701249332
0.10740243483168752,1.6247740050986383,2.3065051153505323,2.7834557172765124
0.12365017488267391,1.616561877438211,2.3343396725232974,2.684618662641662
0.13981579365705601,1.603692939194946,2.361185859149714,2.5851776236377346
0.15585272304900546,1.5863723703421309,2.387037635386091,2.4852728259229453
0.17171644675242678,1.564809121756474,2.4118903636453206,2.385044124151449
0.18736453796999153,1.5392143127433273,2.435740804886835,2.2846287817309783
0.2027566810974248,1.5097997446322613,2.458587092704145,2.1841595386379
0.21785467854374743,1.476776547636839,2.480428688090524,2.083762959699076
0.23262244402011584,1.4403539716484608,2.5012663176875147,1.9835580512987223
0.24702598373660045,1.4007383261194928,2.521101898200502,1.8836551311053567
0.2610333669977954,1.3581320696847665,2.5399384495115553,1.7841549330843953
0.27461468769464303,1.3127330466216158,2.5577799988423995,1.6851479286611466
0.2877420181608592,1.2647338645703794,2.574631478129011,1.5867138442925688
0.300389356806563,1.2143214060220762,2.590498616571937,1.488921355747553
0.31253257086678377,1.1616764648109092,2.605387830129412,1.3918279399390905
0.32414933551489283,1.1069734981097035,2.6193061095288033,1.2954798660624505
0.33521907049598987,1.0503804841065623,2.6322609081894277,1.1999123089528596
0.3457228753370555,0.9920588755424457,2.6442600312789564,1.1051495688849502
0.35564346409247993,0.9321636395270134,2.655311526967806,1.0112053834151913
0.36496510048775005,0.8708433744531687,2.6654235808019577,0.9180833182573274
0.3736735342322817,0.8082404953421507,2.674604413984531,0.825777225535923
0.3817559391857032,0.7444914795260658,2.6828621862398903,0.7342717590549306
0.3892008539809639,0.6797271651794345,2.6902049038304394,0.6435429374283833
0.3959981256327582,0.614073095820519,2.6966403332047233,0.5535587470389465
0.4021388565909634,0.5476499044987669,2.7021759206751126,0.4642797778131247
0.407615355635951,0.48057373195388275,2.7068187184532437,0.37565988572933473
0.41242109295548984,0.4129566735659193,2.710575317310537,0.2876468768089036
0.416550659691149,0.34490725040819975,2.713451786078626,0.20018320808345763
0.419999732195231,0.2765309001614355,2.71545361815946,0.1132067016883236
0.4227650411968454,0.20793048404479342,2.7165856851763435,0.02665126880321199
0.4248443460372933,0.13920680626521653,2.7168521978643754,-0.059552359349437214
0.4262364140999455,0.07045914277763614,2.716256674270881,-0.14547589583046144
0.42694100552772185,0.0017857763836135049,2.7148019153125764,-0.231192759690128
0.42695886329155797,-0.0667154646277486,2.712489987715675,-0.3167773368661345
0.4262917086452805,-0.13494666697715557,2.7093222143470137,-0.4023042419246641
0.42494224197550895,-0.20280929465825226,2.7052991719277673,-0.48784758222086355
0.42291414902892643,-0.27020365560537446,2.700420696105559,-0.5734802260684186
0.4202121124728727,-0.33702837548175596,2.694685893844875,-0.6592730766121225
0.41684182871805514,-0.40317988144753397,2.6880931630787535,-0.7452943532953723
0.4128100299035798,-0.4685518989770582,2.6806402195457997,-0.8316088831092507
0.4081245109138092,-0.533034965071051,2.672324130714707,-0.9182774042039226
0.4027941612630987,-0.5965159615491533,2.663141356672668,-1.0053558849387503
0.39682900164760715,-0.6588776725089157,2.6530877978232805,-1.092894862046398
0.390240224922518,-0.7199983704930989,2.6421588492028167,-1.1809388022888498
0.383040241217587,-0.7797514364106914,2.6303494611799283,-1.2695254927889108
0.3752427268534801,-0.8380050187979741,2.6176542062520394,-1.3586854661266923
0.3668626766655004,-0.8946217385704639,2.6040673515907726,-1.448441467291522
0.35791645927979576,-0.9494584459867281,2.5895829369178576,-1.5388079706670923
0.3484218748199285,-1.0023660370980372,2.574194857211187,-1.6297907563886511
0.33839821444894813,-1.0531893374650851,2.5578969496473003,-1.721386556627586
0.3278663210742973,-1.1017670613494723,2.5406830840810244,-1.8135827836064626
0.31684865046080257,-1.1479318548910242,2.52254725624496,-1.9063573523945834
0.3053693319118923,-1.1915104319122194,2.503483682721014,-1.9996786127400936
0.2934542275927701,-1.2323238108899128,2.483486896593613,-2.093505405309892
0.281130989483871,-1.270187661236309,2.462551842540514,-2.187787258673742
0.2684291128715079,-1.3049127662630118,2.4406739699537767,-2.2824647441151407
0.2553799852088778,-1.3363056089861314,2.4178493225126254,-2.3774700058013907
0.24201692911901646,-1.3641690851867572,2.3940746224546117,-2.4727274839156843
0.2283752382671489,-1.3883033457912988,2.369347347615455,-2.5681548479591583
0.21449220480923592,-1.4085067676091323,2.3436657991358634,-2.6636641564886125
0.2004071371331446,-1.424577047703428,2.3170291575709774,-2.7591632579943077
0.1861613666561103,-1.4363124121394746,2.289437524991034,-2.8545574453906677
0.17179824253471554,-1.4435129245481042,2.2608919505371277,-2.9497513736709404
0.1573631132892345,-1.4459818738938128,2.2313944368004184,-3.0446512466890163
0.14290329455029638,-1.4435272141286126,2.200947924333528,-3.139167274859059
0.12846802240901026,-1.435963021177065,2.1695562515849374,-3.233216400957612
0.1141083921972396,-1.4231109251239817,2.1372240875753614,-3.326725286405486
0.09987728294599979,-1.4048014678054068,2.1039568347113065,-3.4196335457182956
0.08582926826794572,-1.3808753285213047,2.0697604992541234,-3.5118972126558865
0.07202051498273268,-1.3511843536087256,2.0346415271275644,-3.6034924184694486
0.05850867144664543,-1.3155923194559052,1.99860660294287,-3.6944192611130076
0.04535274825208638,-1.2739753534940792,1.96166241033174,-3.7847058449807354
0.032612994717145585,-1.226221934007067,1.9238153518819325,-3.874412474309077
0.020350775377074914,-1.1722323873826719,1.8850712271388417,-3.963635990494946
0.008628451503248195,-1.1119178006951072,1.8454348672338923,-4.052514254839362
-0.0024907265037028767,-1.0451982680953347,1.8049097246854986,-4.141230794162225
-0.012942709184656223,-0.9720003910701044,1.7634974167438764,-4.230019647762289
-0.022662713095357265,-0.8922539547357091,1.7211972202662535,-4.31917048056843
-0.031585252642714355,-0.8058877043963317,1.6780055154605693,-4.409034059075779
-0.03964412968667767,-0.7128241480922983,1.6339151748698115,-4.50002822350027
-0.046772371167600656,-0.6129733115187012,1.588914892634809,-4.592644530745074
-0.05290210428278767,-0.5062253718664912,1.542988447327358,-4.687455786651125
-0.05796435800145258,-0.3924420984415327,1.4961138894608468,-4.785124729523688
-0.06188877898586791,-0.27144703429748296,1.44826264216561,-4.8864141643102705
-0.06460324932884273,-0.14301437269951867,1.3993985005225071,-4.992198867309253
-0.06603339305583791,-0.0068565305542485355,1.3494765118494145,-5.103479565048323
-0.0661019583613804,0.1373894733336195,1.2984417161989312,-5.221399201426833
-0.0647280636280442,0.29017651218334617,1.2462277241846629,-5.3472614773557146
-0.06182629850621074,0.45206197621046795,1.1927551094111057,-5.482551154553024
-0.05730567874410606,0.623720998521253,1.1379295978655755,-5.628954637003886
-0.05106846875889353,0.8059552916320345,1.0816400514955367,-5.788377475672602
-0.04300891584257319,0.9996919383664865,1.0237562767388106,-5.9629519559842405
-0.03301199645890832,1.205961667889737,0.9641267571789682,-6.155021526806777
-0.020952379780010952,1.425837568971529,0.9025765419109004,-6.367077260931341
-0.0066940040902956615,1.6603001978417746,0.838905769301587,-6.60160106815329
0.009908997888122084,1.9099697303978762,0.772889758620054,-6.8607354366514635
0.029008695192100843,2.1746059315969664,0.7042824042535394,-7.1456437304094225
0.05075475450807051,2.4522227886054617,0.6328259669494452,-7.455348329417055
0.07527698239412513,2.737619785635459,0.5582724836552746,-7.784766497375805
0.10265318025047972,3.0201886204237898,0.48042481868151654,-8.121731663012401
0.13285506645471762,3.2812583581466104,0.39920750205139255,-8.443329173659194
0.16566765003618372,3.4924002577683293,0.3147742103148006,-8.713456487431156
0.20059165261386702,3.6180169571426513,0.227639645440489,-8.886139347384388
0.23677182218529352,3.6259610331101357,0.13877825196664512,-8.919737192689873
0.2730314325163949,3.504003035492422,0.049580880039746394,-8.799057761172865
0.3080714628713191,3.269313656286848,-0.03840969757198226,-8.54785241460985
0.3407645994341876,2.9597750823822992,-0.12388822171808075,-8.216648612992003
0.37036235025801056,2.6150394278489966,-0.20605470784800078,-7.857096932771684
0.39651274453650054,2.2638832931366633,-0.28462567717571763,-7.505358500378592
0.4191515774678672,1.9224250004331656,-0.3596792621795035,-7.180304178108569
0.43837582747219883,1.597699487403469,-0.43148230396058923,-6.888731624788521
0.45435282234623353,1.2916019976234208,-0.5003696202084744,-6.630825053814172
0.46726884232246774,1.003564969012945,-0.5666778707466161,-6.403756237792746
0.47730449201259717,0.732049394382214,-0.6307154331245436,-6.203630493190749
0.4846249859564193,0.4752867239550169,-0.6927517380564511,-6.026414744516785
0.48937785319596944,0.23161400468531643,-0.7530158855016189,-5.868328262727663
0.4916939932428226,-0.0003949563483524876,-0.8116991681288955,-5.725973756708336
0.49169004367933905,-0.22189520622429507,-0.8689589056959789,-5.596352379661742
0.4894710916170961,-0.433779497084005,-0.9249224294925963,-5.476832513116016
0.4851332966462561,-0.6367046168479706,-0.9796907546237564,-5.365104753477829
0.4787662504777764,-0.8311232685841745,-1.0333418021585348,-5.259137264050973
0.47045501779193466,-1.0173162717582496,-1.0859331747990446,-5.157136990675224
0.46028185507435215,-1.1954230219591833,-1.1375045447057968,-5.057518247176677
0.4483276248547603,-1.3654695732487419,-1.1880797271775636,-4.958878420679139
0.4346729291222729,-1.527394295792293,-1.237668511384355,-4.859979843097564
0.41939898616434995,-1.6810712544749515,-1.2862683098153307,-4.759736656421816
0.4025882736196004,-1.8263314712326735,-1.333865676379549,-4.657205497532822
0.3843249589072737,-1.962982183347045,-1.380437731354877,-4.551578919240695
0.36469513707380324,-2.0908241451352136,-1.425953520547284,-4.442180592456109
0.3437868956224511,-2.2096669663864437,-1.470375326471845,-4.328461475980008
0.3216902259585867,-2.319342447929974,-1.5136599412316452,-4.209996285129569
0.298496801479287,-2.419715865233566,-1.5557599040829408,-4.086479733365159
0.2742996428269513,-2.5106951627866376,-1.5966247014165924,-3.9577221587938536
0.2491926911990849,-2.59223805057902,-1.636201923004531,-3.8236442765889262
0.2232703106932947,-2.664357033445972,-1.6744383657704203,-3.684270915636484
0.19662674035883498,-2.727122448434887,-1.711281074926785,-3.539723700059984
0.1693555158744861,-2.780663629254426,-1.746678311927385,-3.390212721406213
0.14154887958194184,-2.825168355982702,-1.780580439141447,-3.2360273140509226
0.11329719602211483,-2.860880779606278,-1.8129407122819563,-3.0775260949129
0.08468838822605204,-2.8880980331292343,-1.8437159732310853,-2.915126460139003
0.0558074078947597,-2.9071657536911273,-1.8728672378324753,-2.7492937482136495
0.026735750357848427,-2.918472744089009,-1.9003601753146118,-2.580530283618625
-0.0024489770830416653,-2.922444998633198,-1.926165478150798,-2.409364510464979
-0.03167342706937365,-2.919539308937065,-1.9502591232554478,-2.236340413914234
-0.0608688201587443,-2.9102366515507234,-1.97262252739459,-2.062007410691013
-0.08997118667425154,-2.895035542556862,-1.9932426015015001,-1.8869108699915038
-0.11892154209982016,-2.8744455252937273,-2.012111710201415,-1.7115834035326232
-0.14766599735275743,-2.8489809368936903,-2.029227544236741,-1.536537038924921
-0.17615580672169434,-2.819155077746346,-2.0445929146259902,-1.3622563643739234
-0.2043473574991578,-2.7854748856261127,-2.0582154782697293,-1.189192705309147
-0.23220210635541894,-2.7484361933772825,-2.070107405322821,-1.0177593654299888
-0.2596864682891918,-2.7085196261074183,-2.080284998977121,-0.8483279365584623
-0.286771664550266,-2.666187171288119,-2.0887682783427053,-0.6812256544958203
-0.3134335362631472,-2.621879433574933,-2.0955805348876635,-0.5167337527970742
-0.3396523305988965,-2.5760135661526045,-2.100747872415634,-0.3550867440081985
-0.36541246626042256,-2.5289818525819316,-2.1042987398557162,-0.19647253934291606
-0.39070228478624186,-2.4811508979732246,-2.106263465249145,-0.04103330367930785
-0.4155137937659741,-2.432861376193587,-2.1066737982859385,0.11113306648472857
-0.43984240752790993,-2.3844282709014895,-2.105562467621091,0.25997095879194765
-0.4636866902369248,-2.3361415424658247,-2.1029627580331716,0.40546467078856574
-0.4870481056615831,-2.288267150054744,-2.098908111325286,0.5476357573583167
-0.5099307771621305,-2.2410483580003056,-2.093431753751703,0.6865402032979802
-0.5323412607421336,-2.1947072574663165,-2.0865663517187234,0.8222655134639
-0.5542883333167968,-2.1494464378983764,-2.0783436965840845,0.9549277997828152
-0.5757827976957806,-2.105450747106241,-2.0687944185862563,1.084668929867255
-0.596837305166843,-2.0628890834977884,-2.0579477292875836,1.2116537865542139
-0.6174661960018208,-2.0219161683366282,-2.0458311914220415,1.3360676717660782
-0.6376853576851871,-1.9826742493286689,-2.032470514704381,1.458113871831512
-0.6575121001784737,-1.9452946887554956,-2.0178893759860657,1.5780113847176451
-0.6769650470660287,-1.9098993891420921,-2.002109262138889,1.6959927921663522
-0.6960640409574496,-1.8766020063950473,-1.9851493342172257,1.8123022408611464
-0.7148300610214,-1.8455088936945496,-1.9670263118086142,1.9271934755214999
-0.7332851499583455,-1.8167197082315734,-1.9477543770533992,2.0409278419109995
-0.7514523470406612,-1.7903275959957028,-1.9273450986342893,2.153772147425055
-0.7693556230006182,-1.7664188458092598,-1.9058073771600388,2.265996228997658
-0.7870198114587108,-1.7450718709263473,-1.8831474148700622,2.377870029836715
-0.8044705301679743,-1.7263553327245162,-1.859368714571695,2.4896599247808906
-0.8217340834952195,-1.710325164080432,-1.834472115323886,2.6016239553517875
-0.8388373351360238,-1.6970201778533727,-1.8084558757703681,2.7140055364307667
-0.8558075369145575,-1.686455857287851,-1.7813158204060604,2.8270250745394896
-0.872672095487436,-1.6786158211729878,-1.7530455696606655,2.9408687934984328
-0.8894582536991659,-1.6734403432489804,-1.723636881725681,3.0556739037510097
-0.9061926571316556,-1.670811198011276,-1.693080142688171,3.1715090963350927
-0.9229007691117684,-1.6705320357885642,-1.66136505172482,3.288349233229259
-0.9396060894696541,-1.6723035184516355,-1.6284815593925275,3.406043121905667
-0.9563291246541704,-1.675692675393132,-1.5944211281734708,3.52427354049084
-0.9730860514081018,-1.6800965278520898,-1.5591783927685625,3.642509438208163
-0.9898870166866227,-1.6847012051308976,-1.5227532983864809,3.759951783333794
-1.0067340287379316,-1.6884398112979175,-1.485153780553143,3.8754772424500525
-1.0236184268509108,-1.6899554231319605,-1.4463990081286424,3.9875880676704845
-1.0405179810822303,-1.6875797732084734,-1.4065231274519376,4.094382204319281
-1.057393778814315,-1.6793427052049177,-1.3655793054087448,4.193563779877561
-1.0741872058663642,-1.6630305386840516,-1.3236436676099692,4.282518289715944
-1.0908175112532046,-1.6363097975449556,-1.2808184847128097,4.358474522410403
-1.1071806092286542,-1.5969224181316548,-1.2372337394887056,4.418761217902044
-1.1231498334099708,-1.5429375123746383,-1.1930461273096853,4.461137864761426
-1.1385792085337172,-1.473016868406409,-1.148434748662071,4.484141270102273
-1.1533093772177814,-1.3866288214213904,-1.1035933359610481,4.487359355352108
-1.1671756654319954,-1.2841443581751977,-1.058719742407527,4.471543494005017
-1.1800171090137472,-1.1667791210761238,-1.0140043074674767,4.438512313585528
-1.1916849002245085,-1.036395399959702,-0.9696191843316214,4.3908690552357035
-1.2020488542241055,-0.8952234842335233,-0.9257104937792644,4.331615687711171
-1.2110010890664407,-0.7455786045680137,-0.8823943369021527,4.263768352443128
-1.2184568751121208,-0.5896342411935325,-0.8397566533777214,4.1900558321311685
-1.2243532175240561,-0.429279835723384,-0.7978560950564098,4.112736913100933
-1.22864601588129,-0.2660602712614819,-0.7567287259254004,4.033530502371684
-1.2313066185939048,-0.10117681551740737,-0.7163934209016836,3.953628853189006
-1.2323183867490788,0.06447506770209716,-0.6768571323697935,3.8737592877445453
-1.2316736360720577,0.23025169701959625,-0.638119539492348,3.794265963016378
-1.2293711191018617,0.39570485829999313,-0.6001768798621843,3.715192941268284
-1.2254140705188619,0.5605308920137031,-0.5630249504495014,3.6363585618976937
-1.2198087615987248,0.7245284253966432,-0.5266613648305245,3.55741724643057
-1.2125634773447582,0.8875653168985098,-0.4910871923662188,3.4779084695050497
-1.2036878241757731,1.0495540315734897,-0.4563081076711683,3.397294375699219
-1.1931922838600382,1.2104341477986034,-0.42233516391417614,3.3149881264392955
-1.1810879423820522,1.3701606285562555,-0.3891852826497832,3.2303750570373135
-1.1673863360964896,1.5286966305905674,-0.35688153207941004,3.1428284490041896
-1.152099369790584,1.6860098337208207,-0.3254532475893681,3.0517213655954425
-1.1352392714533757,1.842071480941927,-0.29493603393341367,2.9564356518191834
-1.1168185566439564,1.9968574980334695,-0.26537167741522183,2.856368902171535
-1.0968499816636217,2.150351200524633,-0.23680798839350647,2.7509399606943306
-1.0753464696583754,2.302547197007697,-0.20929858878656316,2.6395933368555866
-1.0523209976882986,2.45345616548792,-0.1829026554180073,2.521802791603281
-1.0277864360334195,2.603110218580328,-0.15768462750197448,2.3970742653763937
-1.0017553338476162,2.7515685874939892,-0.13371388484821053,2.2649482808005437
-0.9742396479726763,2.8989233452099334,-0.1110644020402051,2.1250019575174464
-0.9452504145205769,3.0453048543610572,-0.08981438246503062,1.9768508295153189
-0.9147973659769664,3.1908865594204876,-0.07004587416987743,1.8201507660096148
-0.8828885003827615,3.3358886350465804,-0.051844366509781276,1.6546004815883866
-0.8495296140322957,3.4805798349748085,-0.03529836169389741,1.4799454050594523
-0.8147238156825476,3.625276631500947,-0.020498907643302887,1.2959840961422562
-0.7784710493675381,3.77033835506148,-0.007539066681880325,1.1025790071251025
-0.7407676658169233,3.916156482814747,0.0034867233893706995,0.8996742534274799
-0.7016061009887758,4.0631354160195405,0.012483465923645498,0.6873242706902494
-0.6609747468285805,4.211660953039018,0.019356708630547993,0.46573888989843937
-0.6188581372981903,4.362051152586529,0.02401409752953239,0.23535251464518464
-0.575237625772325,4.514482424872348,0.026367622675984234,-0.0030723423074806577
-0.5300928015236015,4.66888176814945,0.026336899252909426,-0.24829435408569006
-0.483403983842107,4.8247749287516655,0.023853955712052524,-0.4983814216917661
-0.4351562345545903,4.981081864669634,0.018870141495134864,-0.7504262327484514
-0.38534541590789395,5.135859094064218,0.011365879167650349,-1.0001906370172957
-0.3339868249672518,5.286009642202761,0.0013639727974773912,-1.2417113540906246
-0.2811267285452242,5.42702297076402,-0.011053140743428854,-1.4669601041195897
-0.226856498837584,5.552871850136054,-0.02572274178462475,-1.665744108538311
-0.17132778033622345,5.656261599661032,-0.04238018287000786,-1.8261300899174355
-0.11476516433961313,5.729437234698892,-0.060641483769182214,-1.9356865433484114
-0.05747079199262421,5.765604657358337,-0.07999834920266632,-1.9836199917613824
0.00018525458095915853,5.760663299172229,-0.09983454912028014,-1.9633603870472025
0.05779188757268145,5.714548051115784,-0.11946815299075217,-1.8745715731900043
0.1149373680838393,5.631436771229768,-0.1382138687226522,-1.723499075478891
0.17125173579613698,5.51862789945688,-0.1554488594774411,-1.5213564632772993
0.22643801479070577,5.3846585808178675,-0.1706624241102141,-1.2815635945465471
0.28028460059888444,5.2375484025016235,-0.18347806005567957,-1.0171214953662029
