th1 (rad),w1 (rad/s),th2 (rad),w2 (rad/s),a1 (rad/s^2),a2 (rad/s^2)
5.4657942574289535,2.586106234379754,0.814516246398999,0.6744603144326545,6.9662544687958645,-13.37846994596828
5.491655319772751,2.6557687790677127,0.8212608495433256,0.5406756149729717,6.8255539038408255,-13.933991136581655
5.518213007563428,2.724024318106121,0.8266676056930553,0.4013357036071551,6.716200683164966,-14.488364722946999
5.545453250744489,2.7911863249377706,0.8306809627291268,0.2564520563776851,6.642400944287957,-15.042759343309612
5.573365113993867,2.85761033438065,0.8332454832929037,0.10602446294458898,6.608513042483424,-15.599186377805589
5.601941217337673,2.9236954648054843,0.8343057279223496,-0.04996740083346693,6.619074480331391,-16.160585719701537
5.631178171985728,2.989886209608798,0.833806053914015,-0.2115732580304823,6.678841834448683,-16.73091151875177
5.661077034081816,3.056674627953285,0.8316903213337101,-0.378882373218,6.792844011880938,-17.315217188824363
5.691643780361349,3.124603068072094,0.8279014976015301,-0.5520345451062436,6.9664477862641085,-17.919737781472794
5.722889811042069,3.194267545934735,0.8223811521504677,-0.7312319229209716,7.205432211106342,-18.551965293159107
5.754832486501416,3.2663218680457984,0.815068832921258,-0.9167515758525626,7.516064513589012,-19.220707604969206
5.7874957051818745,3.3414825131816883,0.8059013171627324,-1.1089586519022547,7.905163280428588,-19.936112884455515
5.820910530313691,3.4205341459859744,0.7948117306437098,-1.3083197807468099,8.380123172176695,-20.709625597366045
5.855115871773551,3.5043353777077413,0.7817285328362417,-1.5154160367204703,8.948855653834716,-21.55381302379977
5.8901592255506285,3.5938239342460885,0.7665743724690369,-1.730954166958468,9.61956656229473,-22.48195431917733
5.92609746489309,3.6900195998690357,0.7492648307994523,-1.9557737101502413,10.400234129634256,-23.507204291819118
5.96299766089178,3.7940219411653784,0.7297070936979498,-2.1908457530684324,11.297554622440575,-24.641009263306675
6.000937880303434,3.906997487389784,0.7077986361672655,-2.437255845701499,12.31496243745729,-25.89022833465451
6.040007855177332,4.030147111764357,0.6834260777102504,-2.696158129048044,13.449072131937392,-27.25205106990754
6.080309326294976,4.164637833083731,0.65646449641977,-2.9686786397471194,14.683491234622148,-28.705246065328673
6.121955704625813,4.311472745429953,0.6267777100222988,-3.255731100400406,15.978401166661833,-30.195505682737377
6.165070432080112,4.471256757096571,0.5942203990182947,-3.55768615722778,17.25372051058382,-31.61184161091201
6.209782999651078,4.643793962202409,0.5586435374460169,-3.8738045733369,18.363606147912424,-32.75091558369073
6.256220939273102,4.827430023681533,0.5199054917126479,-4.201313729173807,19.062184636257005,-33.269207418037084
6.304495239509917,5.018051870044103,0.4778923544209098,-4.534005803354178,18.968612759503234,-32.63446939338987
6.354675758210358,5.207737997639136,0.43255229638736803,-4.860350497288077,17.560011964625563,-30.116649772215123
6.406753138186749,5.383338117285391,0.38394879141448723,-5.161516995010228,14.254822813269374,-24.90619839778011
6.4605865193596035,5.525886345418085,0.33233362146438494,-5.4105789789880285,8.666725538940868,-16.472185677239835
6.515845382813785,5.612553600807494,0.27822783167450466,-5.575300835760427,1.0169477259216173,-5.14240447345524
6.57197091882186,5.62272307806671,0.22247482331690038,-5.6267248804949785,-7.579153531813402,7.495064501766584
6.628198149602527,5.546931542748576,0.1662075745119506,-5.551774235477312,-15.412757240349249,19.017977004592517
6.6836674650300125,5.392803970345083,0.11068983215717747,-5.361594465431387,-21.062365411134707,27.411957090534237
6.737595504733464,5.182180316233736,0.057073887502863595,-5.087474894526045,-24.079752454632256,32.03670237888225
6.789417307895801,4.941382791687413,0.006199138557603144,-4.767107870737222,-24.8966741296563,33.494707701690594
6.838831135812675,4.69241605039085,-0.04147194014976908,-4.432160793720316,-24.28160973806617,32.86652100560043
6.885755296316583,4.449599953010188,-0.08579354808697223,-4.103495583664311,-22.918548640700223,31.117190807733422
6.930251295846685,4.220414466603186,-0.12682850392361533,-3.792323675586977,-21.268238868459424,28.899705780161803
6.972455440512717,4.007732077918592,-0.16475174067948511,-3.5033266177853593,-19.5928738847661,26.588473679378723
7.012532761291903,3.811803339070931,-0.19978500685733872,-3.237441880991572,-18.022307932609284,24.371644942589302
7.050650794682612,3.6315802597448386,-0.23215942566725445,-2.993725431565679,-16.60999711609494,22.32940274430011
7.08696659728006,3.465480288583889,-0.26209667998291125,-2.770431404122678,-15.36924104855634,20.4848248257951
7.1216214001659,3.311787878098326,-0.28980099402413806,-2.5655831558647266,-14.293992294168477,18.83318836474177
7.154739278946883,3.1688479551566413,-0.3154568255827853,-2.377251272217309,-13.369998202542297,17.35773999654117
7.186427758498449,3.0351479731312185,-0.3392293383049584,-2.203673872251897,-12.58045441693241,16.0377623375343
7.216779238229761,2.9093434289618942,-0.3612660770274774,-2.0432962488765543,-11.90870402922914,14.852478879491134
7.24587267251938,2.790256388669603,-0.3816990395162429,-1.894771460081643,-11.339402664861309,13.7827860862878
7.273775236406076,2.67686236202099,-0.4006467541170593,-1.756943599218765,-10.85891396750464,12.811885652267831
7.300543860026286,2.5682732223459435,-0.41821619010924693,-1.6288247426960867,-10.455336917776993,11.925382145164647
7.326226592249745,2.4637198531681737,-0.4345044375362078,-1.5095709212444401,-10.118371531843216,11.111138221675231
7.350863790781427,2.3625361378497414,-0.44960014674865223,-1.3984595390276877,-9.839126626538095,10.359035193826333
7.374489152159925,2.2641448715843606,-0.4635847421389291,-1.2948691870894244,-9.609919697565294,9.660711213963069
7.3971306008757685,2.168045674608708,-0.47653343400982334,-1.1982620749497936,-9.424091339702388,9.00931033457775
7.4188110576218556,2.073804761211684,-0.4885160547593213,-1.1081689716040162,-9.275842686150577,8.399255901581428
7.439549105233972,1.981046334350178,-0.4995977444753615,-1.0241764125882018,-9.160097524904959,7.826051999300626
7.459359568577474,1.8894453591011284,-0.5098395086012435,-0.9459158925951956,-9.0723876200176,7.286112143805764
7.4782540221684854,1.7987214829009524,-0.5192986675271954,-0.8730547711571379,-9.008758514293921,6.776612564651312
7.496241236997495,1.708633897758013,-0.5280292152387668,-0.8052886455106248,-8.965692768841414,6.295366879705246
7.513327575975075,1.618976970069599,-0.536082101693873,-0.7423349767135724,-8.940047710917058,5.840719050580066
7.529517345675771,1.5295764929604285,-0.5435054514610088,-0.6839277862077717,-8.929005062036133,5.411451844680235
7.544813110605375,1.4402864423400672,-0.5503447293230865,-0.6298132677609694,-8.930030177120017,5.006708442043589
7.559215975028776,1.350986140568867,-0.5566428620006962,-0.5797461833405335,-8.94083898236629,4.6259252244017075
7.572725836434465,1.2615777507452042,-0.5624403238341016,-0.5334869310965165,-8.959371028201874,4.2687741335904885
7.585341613941917,1.1719840404631854,-0.5677751931450667,-0.49079918976061154,-8.983767364732092,3.9351132755828693
7.597061454346549,1.0821463668158644,-0.5726831850426729,-0.45144805700478285,-9.012352199189243,3.624944676563929
7.607882918014708,0.992022844823972,-0.5771976656127207,-0.41519861023914356,-9.043617510187827,3.3383782758532936
7.617803146462948,0.9015866697220937,-0.5813496517151121,-0.38181482748061063,-9.076209975555555,3.075601376342214
7.626819013160169,0.8108245699665382,-0.5851677999899182,-0.3510588137171885,-9.108919722799795,2.8368528758101017
7.634927258859834,0.7197353727385403,-0.5886783881270901,-0.32269028495908747,-9.140670537358742,2.6224016805749657
7.64212461258722,0.6283286673649529,-0.591905290976681,-0.2964662681533378,-9.170511266813765,2.432528763759762
7.64840789926087,0.5366235546968152,-0.5948699536582144,-0.2721409805157402,-9.197608242010158,2.26751238003987
7.653774134807838,0.44464747227671364,-0.5975913634633718,-0.2494658567153415,-9.22123860106673,2.1276159918019246
7.658220609530606,0.35243508626604636,-0.6000860220305252,-0.22818969679732226,-9.240784451830953,2.0130785017432595
7.661744960393266,0.26002724174773684,-0.6023679189984984,-0.20805891177988967,-9.2557278445409,1.9241064266080812
7.664345232810743,0.16746996330232783,-0.6044485081162972,-0.18881784751380887,-9.26564655120267,1.8608676876781278
7.666019932443766,0.07481349779030114,-0.6063366865914354,-0.1702091706370276,-9.27021066324682,1.8234867368185756
7.666768067421669,-0.01788860884216706,-0.6080387782978056,-0.15197430326884184,-9.269180026014299,1.8120407827928233
7.666589181333248,-0.11058040910231005,-0.609558521330494,-0.1338538954409136,-9.262402529038487,1.8265569312756806
7.665483377242225,-0.20320443439269492,-0.6108970602849032,-0.11558832612815681,-9.249813266320155,1.8670101032768351
7.6634513328982985,-0.2957025670558965,-0.6120529435461848,-0.09691822509538846,-9.231434572127526,1.9333216500844548
7.660494307227739,-0.38801691277717176,-0.6130221257971387,-0.07758500859454391,-9.207376926518577,2.0253586377323543
7.656614138099967,-0.48009068204235755,-0.613797975883084,-0.05733142221722037,-9.177840711965526,2.142933829637423
7.651813231279544,-0.5718690891620128,-0.6143712901052563,-0.03590208392084614,-9.14311878934763,2.2858064516009726
7.6460945403879235,-0.6633002770554891,-0.6147303109444647,-0.013044019404836411,-9.103599849387525,2.453683877892291
7.639461537617368,-0.7543362755493643,-0.6148607511385131,0.0114928193740865,-9.059772485621227,2.646224429655234
7.631918174861875,-0.8449340004055766,-0.6147458229447723,0.03795506367063884,-9.012229928587598,2.8630415263969664
7.623468834857819,-0.9350562996914527,-0.614366272308066,0.0665854789346085,-8.961675379579855,3.1037094768655025
7.614118271860905,-1.0246730534872512,-0.6137004175187198,0.09762257370326353,-8.908927887610949,3.367771236336704
7.603871541326033,-1.1137623323633608,-0.6127241917816872,0.13130028606663058,-8.854928726896238,3.6547484925664695
7.592733918002399,-1.2023116196323231,-0.611411188921021,0.16784777099229528,-8.80074825591386,3.9641544721125053
7.5807108018060765,-1.2903191021914617,-0.6097327112110981,0.20748931571342033,-8.74759327476115,4.295509882588056
7.567807610784162,-1.3777950349390733,-0.6076578180539639,0.2504444145393009,-8.69681494686022,4.648362425543861
7.554029660434772,-1.4647631844076754,-0.6051533739085709,0.2969280387947395,-8.649917415774949,5.022310330796784
7.539382028590695,-1.5512623585654248,-0.6021840935206235,0.34715114210270737,-8.608567329540296,5.417030378850345
7.5238694050050405,-1.6373480318608278,-0.5987125820995964,0.4013214458912108,-8.574604584822074,5.832310897408297
7.507495924686432,-1.7230940777090484,-0.5946993676406843,0.45964455486529376,-8.550054722492323,6.268090245813622
7.490264983909341,-1.8085946249339717,-0.5901029220920314,0.5223254573234299,-8.537143545522502,6.724501343489397
7.472179037660002,-1.8939660603891968,-0.5848796675187972,0.5895704707583239,-8.538314689632287,7.201922861667631
7.45323937705611,-1.9793492072855197,-0.5789839628112139,0.6615896993750002,-8.556251056213076,7.701037788291858
7.4334458849832545,-2.0649117178476506,-0.5723680658174639,0.7386000772579188,-8.593901213538041,8.22290019893014
7.412796767804778,-2.150850729983031,-0.5649820650448847,0.8208290792472202,-8.65451208136681,8.769011223017312
7.391288260504948,-2.237395850796699,-0.5567737742524125,0.9085191914773932,-8.741669425961765,9.341405378219092
7.3689143019969805,-2.3248125450563166,-0.5476885823376385,1.0019332452595842,-8.859347888209069,9.942748635168762
7.345666176546417,-2.4134060239384074,-0.5376692498850426,1.1013607316112717,-9.011972410916211,10.576449723204409
7.321532116307033,-2.5035257480475694,-0.5266556425689299,1.2071252288433159,-9.204492955434759,11.246786201783149
7.296496858826557,-2.595570677601917,-0.5145843902804967,1.3195930908611473,-9.442474179804378,11.959046527399776
7.270541152050538,-2.689995419399961,-0.5013884593718853,1.4391835561351451,-9.732201068185468,12.719688424376148
7.2436411978565385,-2.7873174300818158,-0.4869966238105338,1.5663804403789066,-10.080799954185004,13.53651174967997
7.215768023555721,-2.888125429623666,-0.47133281940674476,1.7017455578757064,-10.496371251895653,14.418839710388847
7.186886769259484,-2.9930891421426224,-0.4543153638279877,1.8459339549795948,-10.988124217324154,15.377693938980013
7.156955877838058,-3.102970384315864,-0.43585602427819176,1.9997108943693949,-11.566492924266399,16.425933339835904
7.125926173994899,-3.218635313558528,-0.4158589153344978,2.163970227767754,-12.243192279832552,17.578298070232506
7.093739820859314,-3.3410672363568534,-0.3942192130568203,2.339753208470079,-13.03113608351533,18.85124835354122
7.060329148495746,-3.4713785971920066,-0.3708216809721195,2.5282656920054913,-13.944073043891219,20.262395095792858
7.025615362523825,-3.6108193276309186,-0.34553902405206455,2.7308896429634197,-14.995678942524673,21.829154159898593
6.989507169247516,-3.7607761170561655,-0.31823012762243036,2.9491811845624056,-16.197635688300796,23.565965306137752
6.9518994080769545,-3.9227524739391737,-0.2887383157768063,3.184840837623783,-17.55586923090639,25.47891397106077
6.912671883337563,-4.098311166248237,-0.2568899074005685,3.439629977334391,-19.063519150977505,27.555754588447183
6.87168877167508,-4.288946357758013,-0.2224936076272246,3.7151875232188627,-20.688279446710382,29.748027029942737
6.8287993080975,-4.495829152225117,-0.18534173239503596,4.01266779351829,-22.350507513480213,31.94021907466194
6.7838410165752485,-4.719334227359918,-0.14521505445985305,4.332069984264909,-23.887518084786997,33.89956249045949
6.73664767430165,-4.9582094082077885,-0.10189435461720396,4.671065609169505,-25.00105745421829,35.20228904734469
6.6870655802195715,-5.208219982749972,-0.05518369852550891,5.0230884996429515,-25.195555469131396,35.14710894572887
6.634983380392072,-5.460175537441286,-0.004952813529079392,5.37455958910024,-23.74721853597459,32.71236753014042
6.580381625017659,-5.697647722801031,0.04879278236192301,5.701683264401645,-19.80798774144493,26.70332118848272
6.523405147789648,-5.895727600215481,0.10580961500593947,5.968716476286472,-12.797691333789537,16.305253873748402
6.464447871787494,-6.023704513553376,0.1654967797688042,6.1317690150239565,-3.082996435706572,2.0401763815925533
6.40421082665196,-6.054534477910442,0.22681446991904375,6.152170778839882,7.586197367035255,-13.618276977356594
6.343665481872856,-5.978672504240089,0.2883361777074426,6.015988009066317,16.717965644818253,-27.146870261079883
6.283878756830455,-5.811492847791906,0.3484960577981058,5.744519306455518,22.5788371004833,-36.08455422065885
6.225763828352536,-5.585704476787074,0.405941250862661,5.38367376424893,25.0180622228291,-40.19503771018889
6.169906783584665,-5.335523854558782,0.4597779885051503,4.981723387147041,24.95795207804433,-40.75493147641162
6.116551545039077,-5.085944333778339,0.5095952223766207,4.574174072382925,23.49704988335464,-39.29584437543486
6.065692101701294,-4.850973834944792,0.5553369631004499,4.181215628628576,21.443945466937755,-36.948542215192575
6.017182363351846,-4.636534380275415,0.5971491193867356,3.81173020647665,19.26802393131564,-34.371319008426624
5.970817019549092,-4.443854140962259,0.6352664214515021,3.4680170163923836,17.200337416515758,-31.88943561560741
5.92637847813947,-4.271850766797101,0.669946591615426,3.1491226602363094,15.335619404990883,-29.636976525295964
5.883659970471499,-4.118494572747192,0.7014378182177892,2.85275289498335,13.699387401681062,-27.650391317656972
5.842475024744028,-3.9815006987303816,0.7299653471676226,2.57624898180678,12.285377717172954,-25.920820550140593
5.802660017756724,-3.858646921558652,0.7557278369856905,2.317040776305374,11.07468385131859,-24.420965439632457
5.764073548541137,-3.747900083045466,0.7788982447487443,2.07283112190905,10.044935793392428,-23.118084015858006
5.726594547710682,-3.6474507251115416,0.7996265559678347,1.8416502817504699,9.174388661960105,-21.979884971170883
5.690120040459567,-3.5557068384919406,0.8180430587853394,1.6218514320387611,8.443513871792236,-20.976929323359375
5.654562972074647,-3.471271699774018,0.834261573105727,1.4120821388051674,7.835413634401784,-20.08338032344312
5.619850255076907,-3.39291756343,0.8483823944937787,1.2112483355707362,7.335713902228872,-19.277015014901874
5.585921079442607,-3.3195604244077113,0.8604948778494861,1.0184781854217175,6.9322534197086805,-18.5389400997401
5.55272547519853,-3.2502378902106246,0.8706796597037033,0.8330887844243166,6.6147184418807985,-17.853219648688135
5.520223096296424,-3.1840907057918164,0.8790105475479465,0.6545565879374352,6.374290063595654,-17.20650623961676
5.488382189238505,-3.12034780515586,0.8855561134273209,0.4824915255412676,6.203331164530143,-16.587710861259175
5.4571787111869465,-3.0583144935105584,0.8903810286827336,0.31661441692867587,6.095121170081343,-15.987720440835567
5.426595566251841,-2.997363281809745,0.8935471728520203,0.1567372125203202,6.0436383701466765,-15.399160143636355
5.396621933433743,-2.936926898108278,0.8951145449772235,0.0027456110839566283,6.043386047023745,-14.81619314197503
5.367252664452661,-2.8764930376380407,0.8951420010880631,-0.14541632033579366,6.089257474109044,-14.234349601144324
5.33848773407628,-2.81560046289695,0.8936878378847052,-0.2877598163472369,6.176434657670445,-13.650377297064233
5.310331729447311,-2.7538361163202456,0.8908102397212329,-0.4242635893178792,6.300315890854027,-13.062107617176325
5.282793368284109,-2.6908329574117054,0.8865676038280541,-0.5548846654896424,6.456467502589203,-12.468332223631535
5.255885038709992,-2.6262682823858134,0.8810187571731577,-0.6795679877259578,6.6405955133630385,-11.868687131059954
5.229622355886134,-2.559862327252183,0.8742230772958981,-0.7982548590365574,6.848533232381626,-11.26354224484221
5.204023732613612,-2.4913769949283666,0.8662405287055325,-0.9108902814849794,7.076241154996608,-10.65389545875804
5.179109962664328,-2.4206145833784007,0.8571316258906827,-1.0174292360725599,7.319815860965707,-10.041271200391531
5.1549038168305445,-2.3474164247687437,0.8469573335299571,-1.1178419480764752,7.575504983973578,-9.427623841806486
5.131429652582857,-2.2716613749290078,0.8357789140491924,-1.21211818649454,7.839725722598849,-8.815246683876214
5.108713038833566,-2.1932641177030194,0.823657732184247,-1.3002706533333022,8.109084785006399,-8.206687311297047
5.086780397656536,-2.1121732698529554,0.810655025650914,-1.3823375264462727,8.380398089380488,-7.604670046790929
5.065658664958007,-2.0283692889591505,0.7968316503864512,-1.458384226914182,8.650708960974816,-7.012026056339347
5.045374972068416,-1.9418621993494023,0.7822478081173094,-1.5285044874775755,8.917303955764302,-6.431631420593205
5.025956350074922,-1.8526891597917592,0.7669627632425337,-1.5928208016835075,9.17772578380828,-5.866353233803915
5.007429458477004,-1.7609119019536763,0.7510345552256986,-1.6514843340215466,9.429783091111453,-5.319003555330615
4.989820339457467,-1.6666140710425619,0.7345197118854832,-1.7046743695748527,9.67155708137932,-4.792300844485076
4.973154198747042,-1.5698985002287686,0.7174729681897346,-1.7525973780197035,9.90140511891034,-4.288838371142392
4.957455213744755,-1.4708844490396653,0.6999469944095376,-1.7954857617311275,10.11796155641492,-3.8110590164247005
4.942746369254358,-1.3697048334755162,0.6819921367922263,-1.8335963518953746,10.32013608611882,-3.3612358561242655
4.929049320919603,-1.266503472614328,0.6636561732732725,-1.8672087104566173,10.507109930679608,-2.941457944918469
4.91638428619346,-1.161432373307532,0.6449840861687064,-1.896623289905802,10.678330184476863,-2.5536207790942664
4.904769962460384,-1.0546490714627634,0.6260178532696484,-1.9221594976967447,10.833502597272933,-2.1994209956736257
4.8942234717457564,-0.9463140454900341,0.606796258292681,-1.944153707653481,10.972583070856883,-1.8803549536212494
