th1 (rad),w1 (rad/s),th2 (rad),w2 (rad/s)
0.8495565652929488,-0.9947955670216194,3.022449438112915,-2.2230614568972404
0.8396086096227325,-1.0648760079804014,3.0002188235439426,-2.28255739688868
0.8289598495429286,-1.133207035053669,2.977393249575056,-2.343795795914035
0.8176277791923918,-1.1996633003127768,2.9539552916159155,-2.406861400800594
0.805631146189264,-1.2641079453426858,2.9298866776079096,-2.4718268956087055
0.7929900667358372,-1.3263923896564238,2.9051684086518224,-2.53875232020366
0.7797261428392729,-1.3863561830124533,2.8797808854497857,-2.6076845407791844
0.7658625810091484,-1.443826933115492,2.8537040400419937,-2.6786567892557693
0.7514243116779935,-1.4986203215357845,2.826917472149436,-2.7516882914852436
0.7364381084626357,-1.5505402217416986,2.7994005892345832,-2.8267840071551933
0.7209327062452187,-1.5993789338121491,2.7711327491630313,-2.9039345071449385
0.7049389169070972,-1.6449175505698184,2.742093404091582,-2.983116016762862
0.6884897414013991,-1.686926469430409,2.7122622439239534,-3.064290655699331
0.671620476707095,-1.7251660630624286,2.68161933736696,-3.1474069075503737
0.6543688160764707,-1.7593875198537994,2.6501452682914564,-3.2324003532817884
0.6367749408779327,-1.7893338620417245,2.6178212647586383,-3.3191947038811893
0.6188816022575155,-1.814741145042931,2.5846293177198265,-3.4077031675572322
0.6007341908070862,-1.8353398359016029,2.550552286044254,-3.4978301860740513
0.5823807924480702,-1.8508563617601415,2.5155739841835136,-3.5894735730652547
0.5638722288304687,-1.8610148108046771,2.479679248452861,-3.682527084412142
0.545262080722422,-1.8655387582524983,2.4428539776087397,-3.776883447018724
0.526606693139897,-1.864153178714189,2.4050851431385523,-3.8724378676861706
0.5079651613527552,-1.8565863938460105,2.3663607644616906,-3.9690920385107504
0.48939929741429505,-1.8425719908672826,2.326669844076583,-4.066758649668739
0.47097357750562224,-1.821850633606877,2.286002257579896,-4.16536641513062
0.4527550711695535,-1.7941716737035396,2.24434859342859,-4.264865612451258
0.4348133544325181,-1.759294455929087,2.201699937304077,-4.365234135160289
0.4172204098732272,-1.7169891988906851,2.1580475959524743,-4.466484056417385
0.4000505178843204,-1.667037321174471,2.1133827553883004,-4.568668706589204
0.3833801446725757,-1.6092310738840114,2.0676960683224084,-4.671890276364902
0.3672878339337356,-1.5433723340514427,2.0209771655587594,-4.776307971985123
0.3518541105932212,-1.4692704101200964,1.9732140858389082,-4.882146770887533
0.3371614064920202,-1.3867387113113738,1.9243926181300328,-4.989706854817315
0.32329401937890645,-1.2955901382907504,1.8744955495818596,-5.099373832510479
0.3103381179959989,-1.1956310651550404,1.8235018112567547,-5.2116299030716915
0.2983818073444485,-1.086653806275837,1.7713855122260378,-5.327066148908722
0.28751526928169013,-0.9684275034509531,1.7181148507369506,-5.446396173330501
0.2778309942471806,-0.8406874432511608,1.6636508890036457,-5.570471293661498
0.269424119814669,-0.7031229474319663,1.6079461760670306,-5.700297431393305
0.26239289034034935,-0.5553642180723515,1.5509432017530975,-5.837053644102326
0.25683924815962583,-0.3969689486462417,1.4925726653120743,-5.982111807403608
0.2528695586731634,-0.22741028417912454,1.4327515472380383,-6.137056077512942
0.25059545583137216,-0.04606909734942016,1.371380986462909,-6.303699084647646
0.25013476485787794,0.14776398182088732,1.3083439956164324,-6.484088679720125
0.2516124046760868,0.3548669582399747,1.2435031088192312,-6.68049334380586
0.25516107425848655,0.5760277464932572,1.1766981753811727,-6.895344109042889
0.2609213517234191,0.8119174509748345,1.1077447342907438,-7.131092796338207
0.2690405262331675,1.0628424518666213,1.0364338063273617,-7.389915711885488
0.2796689507518337,1.3282870582035018,0.9625346492085068,-7.673143036748973
0.2929518213338687,1.6061107162254356,0.8858032188410171,-7.980225960797248
0.30901292849612305,1.891221120594614,0.8060009592330446,-8.306988927617027
0.3279251397020692,2.173580524971169,0.7229310699568743,-8.642951658392272
0.3496609449517809,2.435716627717204,0.6365015533729516,-8.96791749263239
0.37401811122895295,2.6508561844919476,0.5468223784466276,-9.24930182615441
0.4005266730738724,2.7844948899538875,0.4543293601850835,-9.443990464559946
0.4283716219734113,2.8030924758461033,0.35988945553948404,-9.509738931985238
0.4564025467318723,2.689392646819734,0.26479206621963164,-9.425441686496185
0.48329647320006963,2.4540185068527567,0.17053764935466978,-9.206248397842657
0.5078366582685973,2.1309392422891644,0.0784751653762432,-8.896944626803357
0.5291460506914889,1.7601621800812055,-0.010494280891790372,-8.548601692289676
0.5467476724923009,1.3733187947158316,-0.09598029781468713,-8.199783575574672
0.5604808604394592,0.9896743100941956,-0.17797813357043385,-7.871994120840712
0.5703776035404011,0.6187250229353232,-0.256698074778841,-7.573731498966547
0.5765648537697543,0.26407630818300554,-0.33243538976850645,-7.3059249578626835
0.5792056168515843,-0.0736584630207594,-0.40549463934713326,-7.065843148190241
0.5784690322213767,-0.3951498631073502,-0.4761530708290357,-6.849318533421762
0.5745175335903032,-0.7014649479485309,-0.5446462561632534,-6.651857124713581
0.567502884110818,-0.9936480472104936,-0.6111648274103891,-6.469135700643228
0.557566403638713,-1.2725461291511433,-0.6758561844168214,-6.297194542213041
0.5448409423472016,-1.538755625253319,-0.7388281298389519,-6.132490258803987
0.5294533860946684,-1.7926272513321726,-0.8001530324269918,-5.971890537597388
0.5115271135813467,-2.0342972134945856,-0.8598719378029657,-5.812649370448826
0.4911841414464009,-2.2637293539373746,-0.917998431507454,-5.652379712661704
0.4685468479070271,-2.4807607431735006,-0.974522228634071,-5.489030044680656
0.4437392404752921,-2.6851470259285555,-1.0294125290808775,-5.320866353304185
0.41688777021600654,-2.876605581983934,-1.0826211926139193,-5.146458813040459
0.3881217143961672,-3.0548553395800955,-1.1340857807443239,-4.964671549931992
0.35757316100036624,-3.2196524164570306,-1.1837324962436437,-4.774653638129459
0.32537663683579593,-3.3708209309605452,-1.2314790326249383,-4.575829586564955
0.2916684275261905,-3.508278452447348,-1.2772373284905878,-4.36788785604852
0.256585643001717,-3.632055702787466,-1.320916207051073,-4.150766319167234
0.22026508597384234,-3.742310296168796,-1.3624238702427454,-3.9246339846514586
0.18284198301215437,-3.8393345089360023,-1.40167021008926,-3.689868718811346
0.14444863792279436,-3.923557290962412,-1.4385688972773734,-3.4470310822032046
0.10521306501317024,-3.995540947479546,-1.4730392080994055,-3.196834738621778
0.06525765553837477,-4.055973118060012,-1.5050075554856233,-2.9401141696609394
0.024697924357774646,-4.105654842812985,-1.5344086971822326,-2.677790630250165
-0.016358624070355203,-4.145485623773546,-1.5611866034847341,-2.410837402581834
-0.05781348030809066,-4.176446455052094,-1.5852949775105525,-2.140245446584087
-0.0995779448586116,-4.199581805784614,-1.6066974319763934,-1.8669905085739542
-0.14157376291645773,-4.215981496364361,-1.6253673370621329,-1.5920026450831155
-0.18373357788010136,-4.226763315276778,-1.6412873635129641,-1.3161389601922664
-0.22600121103286913,-4.233057088138224,-1.6544487531148868,-1.0401601606630977
-0.2683317819142514,-4.235990740764397,-1.6648503547215179,-0.7647113260689529
-0.31069168932189534,-4.236678702683689,-1.6724974679822073,-0.4903070960959538
-0.3530584763487322,-4.236212782770871,-1.6774005389431668,-0.21732132125425835
-0.3954206041764409,-4.235655416338874,-1.6795737521557093,0.05401886474109152
-0.43777715833982966,-4.236034927318354,-1.6790335635082982,0.3236345808289765
-0.4801375076130132,-4.238342153277661,-1.6757972177000084,0.591592222960686
-0.5225209291457898,-4.243527412783951,-1.6698812954704016,0.8580955199153206
-0.5649562032736294,-4.252496300779856,-1.6613003402712485,1.1234715682917154
-0.6074811662814279,-4.266102097182246,-1.6500656245883314,1.3881488391533994
-0.6501421872532503,-4.285131550798235,-1.6361841361967975,1.6526236876083449
-0.6929935027612327,-4.310279301243486,-1.619657899320714,1.9174097336182936
-0.7360962957736676,-4.342104049353854,-1.600483801984531,2.1829613906779826
-0.7795173362672062,-4.380956647595702,-1.5786541880777514,2.4495586307968136
-0.8233269027431632,-4.426866654470957,-1.5541586017697833,2.717134945305555
-0.8675955692878727,-4.479370373965444,-1.5269872523167276,2.9850255176971805
-0.9123892730275271,-4.537262453281592,-1.497136997139756,3.251611337968106
-0.957761897560343,-4.598260647910612,-1.464620883760075,3.513845633613489
-1.003744504039449,-4.658600990610372,-1.42948242742394,3.7666878038784937
-1.0503305139455528,-4.712645843035405,-1.391815549385155,4.00256147172288
-1.097456972375907,-4.752703548275635,-1.351789934667926,4.211115795523953
-1.1449840078586633,-4.76939968950092,-1.3096787767126865,4.379765859385093
-1.1926780047536725,-4.752979366627302,-1.2658811181188356,4.495540004646118
-1.2402077984199456,-4.695619804486252,-1.2209257180723745,4.548335969113208
-1.287163996464808,-4.594077295500839,-1.1754423583812423,4.534623996744556
-1.3331047694198164,-4.45125110668222,-1.1300961184137968,4.4595981083176195
-1.3776172804866387,-4.275497356421059,-1.0855001373306206,4.3361422967960594
-1.4203722540508492,-4.077977589060793,-1.04213871436266,4.18103235059353
-1.461152029941457,-3.869620306675788,-1.0003283908567246,4.0106128089062025
-1.499848233008215,-3.659129523986148,-0.9602222627676626,3.837973481508863
-1.5364395282480765,-3.4523832920409454,-0.921842527952574,3.6721030761335784
-1.570963361168486,-3.2527587722022857,-0.8851214971912382,3.5183587224949946
-1.6034909488905087,-3.061798066937831,-0.8499379099662883,3.379419544372279
-1.634108929559887,-2.879853517942794,-0.8161437145225655,3.256211428434007
-1.662907464739315,-2.706579549188614,-0.7835816002382254,3.1486139136158413
-1.689973260231201,-2.541263109924893,-0.752095461102067,3.0559373924699367
-1.7153858913304498,-2.3830284183575428,-0.7215360871773677,2.977220901749402
-1.7392161755140252,-2.2309560475779553,-0.6917638781598737,2.91140714514145
-1.7615257359898047,-2.08414787982775,-0.6626498067084592,2.8574394658800846
-1.7823672147880822,-1.9417595280411346,-0.6340754120496583,2.814311490838673
-1.8017848100684937,-1.80301399274592,-0.6059322971412716,2.7810890933047885
-1.8198149499959528,-1.667204961156775,-0.5781214062082237,2.7569167194734705
-1.8364869996075206,-1.5336947327340313,-0.550552239013489,2.7410152564728363
-1.851823946934861,-1.4019096548834644,-0.5231420864487607,2.7326756224202287
-1.8658430434836957,-1.271334694409163,-0.4958153302245584,2.7312504568421025
-1.8785563904277873,-1.141508029836488,-0.4685028256561374,2.736145224369827
-1.8899714707261521,-1.012016120309721,-0.4411413734124391,2.7468094240913583
-1.9000916319292493,-0.8824894616510208,-0.4136732791715255,2.76272824173877
-1.9089165265457595,-0.7525991029605508,-0.3860459967541378,2.7834147836361254
-1.916442517575365,-0.6220539223262394,-0.3582118489177766,2.8084029252989
-1.9226630567986274,-0.49059862085638467,-0.3301278196647876,2.8372407553653174
-1.9275690430071912,-0.35801237448927614,-0.30175541211113444,2.8694845744629847
-1.931149166752084,-0.22410807359305612,-0.2730605663665046,2.9046934053033624
-1.9333902474880145,-0.08873207587811477,-0.24401363231347098,2.942423976885055
-1.9342775682467956,0.048235604432725454,-0.21458939254462042,2.982226157531718
-1.9337952122024684,0.18688075052605768,-0.18476713096930325,3.023638825815688
-1.9319264046972078,0.3272541221458482,-0.15453074271114636,3.06618618350682
-1.9286538634757493,0.4693704456029988,-0.12386888087607817,3.1093745293987247
-1.9239601590197193,0.6132073043726481,-0.09277513558209093,3.152689526361346
-1.9178280859759929,0.7587040243158192,-0.06124824031847746,3.1955940055523486
-1.9102410457328347,0.9057606515587494,-0.02929230026295398,3.237526360760744
-1.9011834392172473,1.054237124110503,0.0030829633446534596,3.277899591773208
-1.8906410679761423,1.2039527397193983,0.035861959262385536,3.3161010579315673
-1.8786015405789482,1.3546860216063437,0.06902296984170121,3.3514930012851956
-1.865054680362885,1.5061750800075724,0.10253789985455317,3.3834138927022925
-1.8499929295628093,1.658118560518719,0.13637203878157608,3.411180643991688
-1.833411743957622,1.8101772599043764,0.17048384522149296,3.434091714790958
-1.8153099713585783,1.9619764764639895,0.20482476236940253,3.4514311252975993
-1.7956902065939384,2.113109145687364,0.23933907362237852,3.4624733657512166
-1.7745591151370648,2.263139793554126,0.27396380727989067,3.4664891720290747
-1.7519277172015235,2.4116093204251947,0.3086286990001814,3.462752114992646
-1.7278116239972716,2.558040609138919,0.34325622015010787,3.450545930410636
-1.7022312179058825,2.70194493268697,0.37776167945421424,3.4291724971426287
-1.6752117685790129,2.8428291204573366,0.41205340442564053,3.3979603539922896
-1.6467834773744394,2.980203427772709,0.44603300796556344,3.3562736296797473
-1.6169814430967124,3.1135900409795254,0.4795957442623609,3.303521244364313
-1.5858455426869171,3.2425321386419697,0.512630956706004,3.2391662229517246
-1.5534202213004975,3.36660341687389,0.5450226189355213,3.1627349374628113
-1.5197541871317586,3.4854179715933555,0.5766499683101494,3.073826065475863
-1.484900007415825,3.5986404107254506,0.607388228964908,2.9721190122545553
-1.4489136033085706,3.7059960440204676,0.6371094190874536,2.8573814953164325
-1.411853642868366,3.80728096743485,0.6656832340406179,2.729475933828588
-1.3737808331940173,3.902371825074235,0.6929779933789038,2.5883642260908153
-1.334757114943275,3.991234998908729,0.7188616356398119,2.434110444163438
-1.2948447649541879,4.073934951476286,0.7432027400814463,2.2668809355319572
-1.254105415439425,4.1506414379858825,0.7658715494367658,2.0869413088918094
-1.2125990010595662,4.221635320750364,0.7867409625256839,1.8946498052562153
-1.1703826478520625,4.287312769106218,0.805687460578246,1.690446623994187
-1.1275095201610004,4.348187717826994,0.8225919268181879,1.47483888764986
-1.0840276429827305,4.404892588321237,0.8373403156946866,1.248381083109575
-1.039978717099518,4.458177446236677,0.8498241265257823,1.0116509945467502
-0.9953969426371513,4.508907967699601,0.8599406364712499,0.7652213219025947
-0.9503078629601552,4.5580628011067335,0.8675928496902758,0.5096273278653491
-0.9047272349490879,4.606731126555217,0.8726891229689293,0.24533094505935266
-0.8586599236835357,4.656111415251415,0.8751424324195228,-0.027318224311291717
-0.8120988095310215,4.707512563737841,0.8748692501764099,-0.3081246901981207
-0.7650236838936432,4.762358713038279,0.8717880032744287,-0.5970915274854272
-0.7174000967632603,4.822199152289274,0.8658170879995745,-0.8944676962420266
-0.6691781052403676,4.888724734230455,0.8568724110371542,-1.2007987725383535
-0.620290857898063,4.963792154330767,0.8448644233117706,-1.5169819155538282
-0.5706529363547553,5.049457160916519,0.8296946041562323,-1.8443259136275887
-0.5201583647455902,5.148017025454044,0.8112513450199564,-2.184616506153108
-0.46867819449104975,5.2620608718675035,0.7894051799584254,-2.5401850698835204
-0.4160575857723747,5.394522595411216,0.7640033292595902,-2.913973549323597
-0.36211235981826256,5.548722697205054,0.7348635937663542,-3.309576826090332
-0.306625132846212,5.728367471453944,0.7017678255054509,-3.731218631276105
-0.24934145813167258,5.937436611876415,0.6644556391926899,-4.183564627974336
-0.18996709201290843,6.179814163660062,0.6226199929129466,-4.6711694656688865
-0.12816895037630782,6.458369522482601,0.5759082982562577,-5.197146896726575
-0.0635852551514818,6.77293386906219,0.5239368292889919,-5.760286364841393
0.0041440835391401,7.116264453125018,0.46633396564057794,-6.349346996904343
0.07530672807039028,7.467032297067501,0.4028404956715345,-6.933187778858149
0.1499770510410653,7.780681901366234,0.33350861788295305,-7.447956422447116
0.2277838700547276,7.985969468549301,0.2590290536584819,-7.792363045976332
0.3076435647402206,8.005662509888362,0.18110542319871858,-7.857071997913897
0.3877001898391042,7.808812141777023,0.10253470321957961,-7.598564128080594
0.4657883112568744,7.446010699290408,0.02654906193877367,-7.088905430404498
0.5402484182497785,7.011772049980207,-0.04433999236527132,-6.462715937562482
0.6103661387495806,6.581590492927001,-0.10896715174089615,-5.828306933591308
0.6761820436788506,6.191894275582066,-0.16725022107680923,-5.239091500710124
0.7381009864346713,5.85237792586766,-0.21964113608391048,-4.710662320099079
0.7966247656933478,5.560671993356081,-0.26674775928490124,-4.241340275906468
0.8522314856269086,5.310519302035563,-0.30916116204396593,-3.823701945227878
0.9053366786472643,5.095202811510189,-0.3473981814962447,-3.449465232014321
0.9562887067623662,4.9087089876187395,-0.3818928338163879,-3.111189716772116
1.0053757966385537,4.745985396411981,-0.41300473098410906,-2.8026912261816044
1.0528356506026735,4.602881663681339,-0.4410316432459251,-2.5189981468755596
1.098864467239487,4.476003940139253,-0.4662216247146807,-2.256175086044242
1.1436245066408794,4.362565314408014,-0.48878337557512314,-2.011132072616065
1.1872501597849596,4.260257450803502,-0.5088946963012838,-1.7814566788676072
1.2298527342929946,4.167147827579737,-0.5267092630899599,-1.5652765576835344
1.271524212568792,4.081600073092949,-0.5423620286667953,-1.3611498365752477
1.3123402132997215,4.002213236558536,-0.5559735270325478,-1.1679782252416349
1.3523623456653069,3.9277759667076784,-0.5676533092849642,-0.9849377486082023
1.3916401053323837,3.857232211682519,-0.5775026867710462,-0.8114228635233625
1.430212427449209,3.789655734890176,-0.5856169154062798,-0.6470006779128687
1.4681089847981108,3.724231322596407,-0.5920869221854085,-0.49137284329559683
1.5053512980240749,3.6602410165878654,-0.5970006506183645,-0.34434338190488883
1.5419537081899535,3.597054055510273,-0.6004440844374134,-0.20579124336354235
1.5779242487450562,3.534119476947724,-0.6025019968710488,-0.07564678425083485
1.6132654435145335,3.4709605426913117,-0.6032584647135572,0.046128350159578085
1.6479750489414466,3.4071703206292034,-0.6027971812119614,0.15955826882871524
1.6820467521477387,3.342407901401264,-0.6012015985236742,0.2646670098704983
1.7154708311617513,3.2763948545729855,-0.5985549284249692,0.3614899938839949
1.748234779707481,3.208911641806264,-0.5949400284861293,0.4500828853491562
1.7803238961255436,3.139793804695219,-0.5904391996326377,0.5305280055621842
1.8117218341724959,3.0689278321929665,-0.5851339195770159,0.6029384726028358
1.8424111124944256,2.9962466857081997,-0.5791045348509876,0.6674602831204332
1.8723735793515075,2.921725017854838,-0.5724299320197832,0.7242725883543801
1.9015908295300559,2.8453741629357476,-0.5651872061362394,0.7735864461601549
1.9300445711594134,2.7672370038556386,-0.5574513416746378,0.8156423477743927
1.9577169411979698,2.687382832546208,-0.5492949181968939,0.8507068208919418
1.984590769523432,2.605902321201283,-0.5407878499879745,0.879068399664868
2.0106497927354448,2.5229027122488485,-0.5319971659913257,0.9010332293423641
2.0358788198579334,2.438503318844494,-0.5229868336979021,0.9169205413072742
2.0602638530463784,2.352831407504005,-0.5138176282848294,0.9270581965131456
2.0837921671214183,2.2660185127473933,-0.5045470463196979,0.9317784550284156
2.1064523522488923,2.1781972122941573,-0.4952292617694138,0.9314140894108365
2.128234324371834,2.0894983718982254,-0.4859151208753054,0.926294922234358
2.1491293080908163,2.0000488522882134,-0.4766521716529618,0.9167448348685063
2.1691297966136984,1.909969657366346,-0.46748472330427676,0.9030792665063767
2.188229493187362,1.8193744929207927,-0.45845393063921297,0.8856031998175851
2.2064232381165696,1.7283686984440867,-0.4495978986410371,0.8646096123779702
2.2237069251010104,1.6370485108631745,-0.4409518025172574,0.8403783607843306
2.240077410209642,1.545500617612083,-0.4325480189094141,0.813175456482603
2.255532416385763,1.453801957019495,-0.42441626434458807,0.783252688104724
2.2700704359559576,1.3620197259578786,-0.4165837374635408,0.7508475437869553
