th1 (rad),w1 (rad/s),th2 (rad),w2 (rad/s)
4.0979992179118065,2.369895085771214,4.812443662053531,-1.9420138589865654
4.121698168769519,2.46714796650069,4.793023523463665,-1.9547729382518289
4.146369648434526,2.5678884448597885,4.773475794081147,-1.973832441149265
4.172048532883124,2.6723417367267857,4.753737469669654,-1.999288248595486
4.198771950250391,2.7806544759439644,4.7337445871837,-2.031108663017294
4.22657849500983,2.8928573832233213,4.713433500553527,-2.0690765052403797
4.255507068842063,3.008817098710557,4.692742735501123,-2.112715245738529
4.285595239829169,3.1281770080916154,4.671615583043738,-2.1611990113611235
4.316877009910085,3.250289466061027,4.650003592930126,-2.21325006805847
4.349379904570696,3.3741463581412257,4.627871092249541,-2.2670339737496144
4.383121368152108,3.4983217293020554,4.605200752512045,-2.320072434536992
4.418104585445128,3.620948484517201,4.582000028166675,-2.3692058916065197
4.454314070290301,3.7397580549950677,4.55830796925061,-2.410647894984627
4.4917116508402515,3.852211705535433,4.534201490300763,-2.4401731898563637
4.530233767895606,3.9557375063728477,4.5097997584022,-2.4534606264399534
4.5697911429593345,4.048053975950317,4.4852651521378,-2.4465647692179333
4.610271682718838,4.127517332983721,4.460799504445621,-2.416426688158485
4.651546856048675,4.193396427112451,4.436635237564036,-2.3612864973350205
4.6934808203198,4.24598465504419,4.413022372590686,-2.280866310058982
4.735940666870242,4.2865100466861685,4.390213709490096,-2.1762651299405764
4.778805767337103,4.316878733772637,4.368451058190691,-2.049612577145699
4.82197455467483,4.339340688937749,4.347954932419234,-1.9036059550524942
4.865367961564207,4.35617345950136,4.328918872868709,-1.7410667823031598
4.908929696159221,4.369447004790588,4.311508205045677,-1.564608177597533
4.952624166207126,4.380888397074725,4.295862123269702,-1.3764422061501913
4.996433050177874,4.391832411725965,4.282097701208199,-1.1783096445249546
5.040351374295134,4.403230247690545,4.27031460476295,-0.9714943828188418
5.084383676772039,4.415689186235639,4.260599660934761,-0.7568847278446215
5.128540568634396,4.42952312025021,4.253030813656315,-0.5350533657693274
5.172835799836898,4.444801868728293,4.2476802799986215,-0.30633865759920365
5.217283818524181,4.461393433172662,4.24461689342263,-0.07091855024247759
5.261897752855908,4.47899735882701,4.243907707920205,0.1711260800091303
5.306687726444178,4.497169559959024,4.245618968720296,0.41975882815015225
5.351659422043768,4.515339975239624,4.249816557001798,0.6749447588532296
5.396812821796164,4.532824749423111,4.25656600459033,0.9366155061565183
5.442141069290395,4.548834631674927,4.2659321596518955,1.2046411202732634
5.487629415607144,4.562481135243469,4.2779785708546285,1.478807655867445
5.5332542269595795,4.572781816444994,4.292766647413303,1.7587998961193405
5.57898204512403,4.578665843668952,4.310354646374496,2.04418898089419
5.6247687035607195,4.578980848330478,4.330796536183438,2.3344250190055167
5.670558512044024,4.5725018731144536,4.3541407863734936,2.6288349974448217
5.7162835307751685,4.557943046258843,4.380429136347942,2.926626446777103
5.761862961237757,4.533972401242712,4.409695400815713,3.2268973778245105
5.807202685250184,4.499230018973699,4.441964374593958,3.52865296908068
5.852194985439921,4.452349389106184,4.477250904284765,3.830829359115294
5.896718479330983,4.391981569489404,4.515559197875918,4.132324690416864
5.9406382950258765,4.316821376395066,4.556882444780086,4.432037273961619
5.983806508789828,4.225634479610734,4.601202817519702,4.728910418261932
6.026062853585935,4.117283930274402,4.6484919217023215,5.021983121932288
6.067235692888679,3.9907543473000655,4.6987117529216444,5.310445501648549
6.107143236361679,3.8451717677857724,4.75181620793813,5.593697559634653
6.145594954039537,3.6798170683182616,4.8077531835344764,5.871409728688914
6.1823931247227195,3.49413092837752,4.866467280821365,6.143583602723113
6.217334434006495,3.2877085740721457,4.927903116848596,6.410611380976367
6.250211519747216,3.0602830528329443,4.99200923065836,6.673332799071277
6.280814350275546,2.8116966065359885,5.058742558649073,6.933088594735473
6.308931316340906,2.541860941140232,5.128073444596428,7.191769644962183
6.334349925752308,2.250709065445501,5.199991141046049,7.451860388640208
6.356857016406763,1.938144378157202,5.274509744932452,7.71647320666102
6.376238460188334,1.6039978250642442,5.351674476999062,7.989365550769059
6.392278438438977,1.2480132194439069,5.431568132506753,8.274920929534177
6.404758570633416,0.8698980322969943,5.514317341802094,8.57805300842756
6.4134575509563865,0.469509069952285,5.60009787188637,8.903949275663363
6.418152641655909,0.047301073232420554,5.6891373646430035,9.257490396012274
6.418625652388233,-0.39473308286599684,5.781712268603126,9.642040519672523
6.414678321559573,-0.8512531746181511,5.878132673799851,10.05709010345977
6.406165789813391,-1.3103823049387944,5.978703574834449,10.494024890960478
6.393061966764003,-1.7488241343894932,6.083643823744054,10.929514798108716
6.375573725420108,-2.1264220220801695,6.192938971725141,11.317919380276399
6.354309505199306,-2.385371738422399,6.306118165527905,11.589606845238684
6.330455787815082,-2.4643154295446563,6.422014233980292,11.668952686522971
6.305812633519635,-2.3311602054835956,6.538703760845522,11.517241173484388
6.2825010314647995,-2.0102465877467535,6.6538761725803655,11.167680055601515
6.262398565587332,-1.5688947250738599,6.765552973136381,10.706249072931048
6.2467096183365936,-1.076400195459295,6.872615463865691,10.217462562460815
6.235945616382001,-0.5787921496150761,6.974790089490299,9.75292005878133
6.2301576948858495,-0.09878667654051648,7.072319290078113,9.333319482556533
6.229169828120444,0.35518456829872763,7.165652484903678,8.961414311394986
6.2327216738034315,0.7814913979433906,7.255266628017628,8.632071906105153
6.240536587782866,1.181128547552753,7.341587347078679,8.337616633636124
6.252347873258393,1.5557665087425019,7.42496351341504,8.070179497036992
6.267905538345818,1.9069540237365488,7.50566530838541,7.8225800757359325
6.2869750785831835,2.2358532233835056,7.58389110914277,7.588576629916377
6.309333610817019,2.54320561261093,7.659776875441934,7.362872927012431
6.334765666943128,2.8293914049868336,7.7334056047120585,7.141047332230515
6.363059580992997,3.094521448251277,7.804816078034364,6.919468996164516
6.394004795475509,3.3385352200080978,7.874010767996009,6.695222766666928
6.42739014767559,3.561293257353724,7.940962995662678,6.466046794030189
6.463003080249127,3.7626587532531586,8.00562346360298,6.2302802335617
6.500629667781658,3.9425658041516582,8.067926265938597,5.986816647591979
6.540055325823175,4.101073098116613,8.127794432414516,5.735058917924435
6.5810660568043415,4.238402620961371,8.18514502159376,5.474872487947691
6.623450083013955,4.354963593652873,8.239893746473237,5.20653500629187
6.666999718950484,4.45136244570918,8.291959096536155,4.930681669581368
6.711513343407575,4.5284001745113835,8.341265913231968,4.6482466189230465
6.756797345152689,4.587058900591545,8.387748379421199,4.360401560367596
6.802667934158604,4.628479763824939,8.431352395024875,4.068493324699551
6.848952731796854,4.653934489624937,8.47203732827187,3.7739823592637336
6.895492076693103,4.6647929816806535,8.509777151864508,3.4783841798676245
6.94214000650991,4.662489180110432,8.544560993663184,3.183215645183349
6.988764898311015,4.648487185720771,8.576393150115019,2.8899475990871704
7.035249770168222,4.624249324575628,8.605292626105891,2.5999650105027796
7.0814922634139785,4.591207447349012,8.63129227621092,2.3145352766375358
7.1274043378874685,4.550738359072521,8.654437628977295,2.0347848904181
7.172911721478194,4.504143887303403,8.674785477881477,1.761684245616527
7.217953160351228,4.4526357451771075,8.692402320337642,1.4960399936114208
7.262479517802999,4.397325048153864,8.707362720273757,1.2384940935422688
7.3064527682845375,4.339216110031628,8.71974766120918,0.9895285216468779
7.349844929384854,4.279203978327426,8.729642946425649,0.7494745246848787
7.3926369691681275,4.218075068497888,8.737137691672498,0.5185253071488762
7.434817719853107,4.156510212884489,8.742322944743986,0.2967511172463965
7.476382821981952,4.095089442785136,8.74529045591645,0.08411582412367738
7.517333716409803,4.034297858328433,8.746131614157687,-0.11950576029684501
7.557676694993088,3.9745319986911882,8.744936556554718,-0.3143103844774806
7.597422014979999,3.9161061939053408,8.741793452709944,-0.5005490764573505
7.636583076919052,3.8592584506079444,8.736787961945371,-0.6785103013465699
7.675175661425132,3.804155492054251,8.730002858931906,-0.8485036290098337
7.713217216345674,3.750896635308205,8.721517822641808,-1.0108438585776787
7.750726182698756,3.6995162472359024,8.711409384056031,-1.165835452836084
7.787721345171115,3.649984581520169,8.69975102952767,-1.3137570819490136
7.824221190986317,3.6022068722285012,8.68661345870818,-1.4548460748795529
7.860243259708602,3.5560206624092365,8.672064997959385,-1.5892826474905528
7.895803466332694,3.511191502565902,8.65617217148448,-1.7171739465358569
7.9309153813583535,3.467407394127672,8.63900043201912,-1.8385382554988698
7.9655894552996305,3.4242727111882147,8.620615049464131,-1.953290193391029
7.999832182411513,3.3813028382882218,8.60108214753022,-2.0612284355820996
8.033645210794395,3.337921416575121,8.5804698631744,-2.1620283965688554
8.067024424960147,3.2934628408883904,8.558849579208712,-2.2552433574708677
8.09995905336903,3.247183336780127,8.536297145634004,-2.3403184688799437
8.132430886736831,3.1982842579104473,8.512893960945204,-2.4166224742769726
8.164413729315935,3.1459507085615095,8.488727736202435,-2.4835012201841455
8.19587323640155,3.08940667532989,8.463892724000594,-2.54035429933807
8.22676730315485,3.0279842104363244,8.438489181007213,-2.586731055723306
8.257047145259213,2.9611991445463444,8.41262187044998,-2.6224351047996644
8.286659136704676,2.88882064824547,8.386397519401983,-2.6476193756967095
8.31554734318713,2.8109190104172637,8.359921325645017,-2.6628497063752343
8.343656533291304,2.727877634121271,8.333292828581264,-2.6691175356447707
8.370935309632516,2.6403623401575844,8.306601653224817,-2.6677924124931307
8.397338933034092,2.5492517687209713,8.279923729099886,-2.6605202155892713
8.422831450721302,2.455542828183905,8.253318526943994,-2.6490872498464246
8.447386879003142,2.360250524276218,8.22682765444553,-2.635277803903957
8.470989384245904,2.2643203095134057,8.200474876406492,-2.6207508275699034
8.493632587341038,2.1685647795617493,8.174267368130794,-2.60695225503422
8.515318235136656,2.073628498119264,8.148197845580452,-2.5950679960153717
8.536054520117847,1.979978103187239,8.122247165620298,-2.586013205340509
8.55585430114972,1.887911172472838,8.096387033566893,-2.580448276524226
8.57473341287445,1.7975764970659882,8.070582550801651,-2.5788109042410907
8.592709177845109,1.708999440066537,8.04479444175924,-2.581355095169253
8.609799172245774,1.6221078515864684,8.018980890807548,-2.588190617944308
8.626020250761638,1.5367558066856055,7.993098984628105,-2.599318977943061
8.641387808828494,1.4527438541494329,7.967105794848674,-2.6146640508721717
8.655915247369988,1.3698354238347006,7.940959154339953,-2.6340968891032426
8.669613601608335,1.2877696002979546,7.91461818544892,-2.6574550174721443
8.682491297611314,1.2062707412189053,7.888043635274198,-2.6845569210122635
8.694554005023504,1.1250555064924512,7.861198066064076,-2.7152125483639473
8.705804560088428,1.0438378486256514,7.834045940580436,-2.749230627862398
8.716242938574684,0.9623324512343286,7.806553634301812,-2.786423496343623
8.725866263087028,0.8802570224030725,7.778689399338376,-2.826610020253675
8.734668833311058,0.7973337708984738,7.750423299135839,-2.869617069894863
8.742642171020043,0.7132903237761481,7.721727128436891,-2.9152799022949147
8.749775074257805,0.627860286482692,7.692574329413942,-2.9634417202005228
8.756053677122631,0.5407836010032449,7.662939912211937,-3.0139526040067706
8.761461513132664,0.45180682255010085,7.632800386171869,-3.066667958157898
8.765979581358165,0.36068340890682127,7.6021337065902905,-3.1214465712283457
8.769586415447232,0.26717409701191674,7.570919240878007,-3.178148357091075
8.772258156417351,0.17104742704380027,7.539137757307096,-3.236631821193647
8.773968630687788,0.07208046374708202,7.50677143909516,-3.296751279287136
8.774689435325259,-0.029940243161449887,7.473803926302288,-3.358353844685776
8.774390032893644,-0.13521742394026617,7.4402203878554305,-3.4212761933300095
8.773037858654241,-0.2439415490383878,7.406007625922131,-3.4853411129345875
8.770598443163857,-0.3562889599131307,7.371154214792785,-3.550353842916797
8.767035553564726,-0.4724196517914585,7.335650676363617,-3.6160982153888845
8.762311357046812,-0.5924746968943023,7.299489694209728,-3.6823326141607042
8.756386610077868,-0.7165733055231512,7.262666368068121,-3.748785778404386
8.749220877022637,-0.8448095334592947,7.225178510284077,-3.8151524903728435
8.740772781688044,-0.9772486577385429,7.187026985380348,-3.881089202292103
8.731000295110658,-1.1139232593178492,7.148216093357427,-3.946209676121044
8.719861062517479,-1.2548290705713732,7.108753996596217,-4.010080730989135
8.707312771811765,-1.3999206678629315,7.068653189286326,-4.07221821625829
8.693313565133135,-1.549107114297842,7.027931007123743,-4.132083352502614
8.677822493990156,-1.7022476845012786,6.9866101735987165,-4.189079607124804
8.660800017145144,-1.8591478308843885,6.944719377527468,-4.242550294342323
8.6422085388363,-2.019555577947524,6.9022938745840445,-4.291777109048074
8.622012983056825,-2.183158555976427,6.859376103493564,-4.335979818455617
8.60018139749706,-2.3495819059646244,6.816016305309008,-4.374317342169047
8.576685578437415,-2.5183873015288745,6.772273131887317,-4.405890448037441
8.551501705422126,-2.689073338773284,6.7282142274069425,-4.429746275705359
8.524610972034393,-2.861077539539905,6.683916764649889,-4.444884870399747
8.496000196638994,-3.0337801957789305,6.639467915945891,-4.4502678650581915
8.465662394681205,-3.2065102520998296,6.59496523729531,-4.444829389024117
8.433597292160206,-3.3785533799904774,6.550516943405069,-4.42748920663146
8.3998117583603,-3.549162341647254,6.506242051338754,-4.397168000188496
8.364320134943828,-3.7175696755192185,6.462270371336869,-4.3528046107048946
8.327144438188636,-3.883002661679788,6.41874232522982,-4.29337493784156
8.288314411571838,-4.0447004452667565,6.375808575851404,-4.217912079420801
8.24786740711917,-4.201933112547391,6.333629455057196,-4.1255271614530935
8.205848075993696,-4.354022428422695,6.292374183442664,-4.015430172881654
8.16230785170947,-4.500363858050342,6.252219881713848,-3.8869499765185727
8.117304213128966,-4.6404494110118755,6.213350381948662,-3.7395525221031445
8.070899719018847,-4.773890768085476,6.175954856727631,-3.5728561455010435
8.023160811337991,-4.900442085317097,6.140226295272621,-3.386642710919204
7.97415639048482,-5.020021829096608,6.106359868163429,-3.1808632570492814
7.923956172193854,-5.132732995460275,6.074551235592936,-2.955636763962165
7.872628842239251,-5.238881126871937,6.0449948679533145,-2.7112406871209727
7.820240030970532,-5.338989681730759,6.017882461082105,-2.4480920253640144
7.766850134153224,-5.433812554701478,5.993401540828465,-2.16671790677769
7.712512008606209,-5.5243439011479865,5.971734361760689,-1.8677149767714152
7.65726856959473,-5.611825886045435,5.9530572119929746,-1.5516972193451033
7.601150310734275,-5.6977555415338195,5.937540239799524,-1.219232174991737
7.544172755318937,-5.783892547173467,5.9253479180496065,-0.8707657609883794
7.486333829847202,-5.872270397697357,5.916640260439722,-0.5065359787567572
7.427611125870228,-5.965214032403705,5.9115749006521545,-0.1264756689266867
7.367958985546191,-6.065367474302959,5.910310143962888,0.26989580722818973
7.307305310803161,-6.175735193013943,5.913009102035169,0.6835923008300887
7.245547958873022,-6.299740392626434,5.91984502504347,1.1162919451922801
7.182550554946758,-6.441301389206522,5.931007944495393,1.5704771107164943
7.1181375410546925,-6.604921740719923,5.946712715602558,2.0495735469006298
7.052088323647493,-6.79577640479325,5.967208451071564,2.558060461298454
6.984130559599561,-7.019744997216076,5.992789055684549,3.101479252868163
6.9139331096274,-7.283272355682779,6.02380384821323,3.6861682410899395
6.841100386070572,-7.59278005439332,6.06066553062413,4.318329398407583
6.7651725855266385,-7.953023340337989,6.103848824608206,5.0015693954403435
6.685642352123258,-8.363170196602901,6.153864518562609,5.731191054938924
6.602010650157229,-8.808551517140888,6.211176429111998,6.48236200582396
6.51392513498582,-9.246351275978176,6.276000049170238,7.189787713536368
6.421461622226039,-9.5904062476958,6.347897926305602,7.72635484432192
6.325557559749081,-9.721685123149738,6.425161474748821,7.918541109358044
6.2283407085175835,-9.56190217157531,6.504346885842401,7.651701893227118
6.132721686801831,-9.160965602817797,6.580863904774672,6.99528205164406
6.041112030773653,-8.659983573983677,6.650816725291112,6.151393756086352
5.954512195033816,-8.17455292721844,6.712330662851976,5.2887653681230695
5.872766665761632,-7.754331464470155,6.765218316533207,4.483463288030833
5.79522335111693,-7.407554193717892,6.810052949413515,3.7522507940887766
5.721147809179751,-7.126709334071915,6.847575457354402,3.088677198343534
5.649880715839032,-6.900697908594637,6.8784622293378375,2.4805235811290545
5.580873736753086,-6.719002088464446,6.903267465149128,1.9160153294965165
5.513683715868441,-6.5726885730633775,6.922427618444093,1.3855020264776146
5.447956830137808,-6.454379719422178,6.936282638708869,0.8816056662403625
5.383413032943586,-6.357964383064076,6.945098695371273,0.39893934587889873
5.319833389112945,-6.278297472108391,6.949088088830062,-0.06624027142823952
5.257050414391861,-6.210955529874902,6.94842568611578,-0.5163440721366832
5.194940859093112,-6.152056954742795,6.943262245394413,-0.9527084194616698
5.133420289545684,-6.098138714347523,6.933735161199796,-1.3758079840388802
5.072438902402209,-6.046078169504834,6.9199770813594075,-1.7854358897970302
5.011978120707161,-5.993049235432551,6.902122722461437,-2.1808615211138385
4.952047628352835,-5.93650349295492,6.880314107250299,-2.560972788699791
4.892682593423285,-5.87416820063957,6.854704379363301,-2.9244063051909968
4.83394091141689,-5.804054361097693,6.825460316311391,-3.269666346281946
4.775900367805913,-5.7244691519204,6.7927636528485715,-3.595231828987098
4.7186556762867085,-5.634028219335381,6.756811334558701,-3.8996497967355737
4.662315394093355,-5.531664554048156,6.717814836591345,-4.181613913939941
4.606998748552873,-5.416631860603813,6.675998697451946,-4.440027012424911
4.552832429946835,-5.288501397429675,6.631598427327697,-4.674047535199261
4.499947415972538,-5.147152115185909,6.584857951975705,-4.8831205427739475
4.448475894820679,-4.992754506163927,6.536026746547965,-5.066994599625887
4.398548349759039,-4.825748900990455,6.485356800551706,-5.225726248823763
4.350290860749135,-4.646819063363648,6.433099538063469,-5.3596739067577905
4.3038226701154985,-4.456861920787656,6.379502798995891,-5.469482931325997
4.2592540509076215,-4.2569542148787525,6.324807969682631,-5.556063433871881
4.216684508758834,-4.0483168253735275,6.269247335343912,-5.620562214352826
4.176201340505099,-3.8322775511233544,6.213041713200384,-5.664330069249458
4.137878564993865,-3.6102332171338385,6.156398412507889,-5.6888856801057415
4.101776232822527,-3.3836120888845067,6.099509555706832,-5.69587732482834
4.067940111933682,-3.1538376690611067,6.042550782458549,-5.687043723298426
4.0364017352430706,-2.922294983787391,5.985680345225565,-5.664175381716418
4.007178785405197,-2.6903004056466173,5.929038591408401,-5.629077790418183
3.9802757813487304,-2.4590759005447627,5.872747813504219,-5.583537729610084
3.9556850223432827,-2.229728337942476,5.816912436208118,-5.529293741738928
3.933387738963858,-2.0032341992981744,5.761619498790728,-5.4680115548805945
3.9133553969708763,-1.7804296965971331,5.706939383241922,-5.401264920514098
