th1 (rad),w1 (rad/s),th2 (rad),w2 (rad/s)
3.312900039967513,2.607605784464213,3.237185211334038,2.7345609848835863
3.338976097812155,2.620830299902904,3.264530821182874,2.735871561280498
3.365184400811184,2.636533867361578,3.291889536795679,2.7373378432128153
3.3915497394847995,2.6546980895090284,3.319262915227807,2.7389864870126175
3.4180967203798898,2.6753037390568295,3.346652780097933,2.74084479740687
3.444849757770458,2.698330313576583,3.374061228072002,2.742941387664245
3.471833060906224,2.7237555257081345,3.4014906419486444,2.7453069304733138
3.499070616163305,2.751554727349751,3.4289437112533774,2.747975001155609
3.5265861634368023,2.7817002666076425,3.4564234612649334,2.7509830143532974
3.5544031661028788,2.8141607766645396,3.483933291408466,2.754373254464413
3.582544773869524,2.8489003963462602,3.5114770239531103,2.758193998753769
3.6110337778329864,2.885877923067944,3.539058963940648,2.762500730161194
3.639892557063666,2.9250459000786972,3.5666839712422598,2.7673574342713088
3.669143016064453,2.966349641547569,3.594357545584973,2.772837971610276
3.6988065124799285,3.0097262010962234,3.6220859253010755,2.779027512310245
3.728903774490891,3.0551032919288175,3.649876200424178,2.7860240151628384
3.759454807410179,3.1023981697681653,3.6777364405758064,2.793939727128926
3.7904787891078606,3.151516493387403,3.7056758378470955,2.8029026724884747
3.8219939540417345,3.202351181602907,3.73370486457198,2.813058093071952
3.8540174658577637,3.2547812900964606,3.7618354455026997,2.8245697925717534
3.886565278758728,3.308670936233911,3.7900811434284174,2.8376213290575594
3.919651988121067,3.363868304945566,3.818457356718993,2.8524169909151453
3.9532906711705227,3.420204773454875,3.8469815266281446,2.869182483044133
3.9874927189050715,3.4774941968326423,3.875673351458586,2.888165242989979
4.022267660873398,3.5355323995913936,3.9045550038884858,2.9096343015932034
4.057622984869312,3.5940969203506263,3.933651346904418,2.9338796006625913
4.093563954072818,3.652947056527049,3.962990142911044,2.961210682104364
4.130093424638088,3.7118242536196315,3.9926022497320877,2.9919546697894384
4.167211667174284,3.7704528786869744,4.022521796429982,3.026453477946123
4.204916195961154,3.8285414099967405,4.052786331209443,3.065060198409193
4.243201610061122,3.885784064817268,4.083436933193535,3.1081346435153074
4.282059450709294,3.9418628755550444,4.114518279628688,3.1560380510404604
4.321478079464844,3.9964502119671006,4.146078660139092,3.209126990825418
4.361442581584515,4.049211735430629,4.178169930047346,3.2677465473912455
4.401934698938821,4.099809761955772,4.210847395521259,3.3322228860416505
4.442932796558379,4.147907005611039,4.2441696243816756,3.4028553384156046
4.484411866614489,4.193170674982114,4.278198177765832,3.4799081638668707
4.5263435733643105,4.235276903461221,4.312997259404501,3.563602152433635
4.568696342398923,4.273915510104762,4.348633280928837,3.6541062313250308
4.61143549749997,4.308795111083287,4.385174343242087,3.7515292187385487
4.654523448610803,4.339648630856504,4.422689635429473,3.8559118367682474
4.697919934919368,4.366239294472529,4.461248753797155,3.9672190509828824
4.741582327864093,4.38836721408032,4.5009209443069835,4.085332751183781
4.785466000004897,4.405876709188976,4.541774271818821,4.210044730411605
4.829524767096787,4.4186645159464835,4.583874719122937,4.341049863117376
4.873711412256252,4.426689039561501,4.62728521775411,4.47793933532842
4.917978302651868,4.42998077899997,4.672064611107395,4.620193747727634
4.962278110441868,4.428653996341117,4.718266548584671,4.767175906695625
5.006564650405279,4.422919605558185,4.765938307651627,4.9181231507983405
5.050793846460861,4.413099106563191,4.81511953915961,5.0721391461384675
5.094924837526493,4.3996391787445575,4.865840930620995,5.228185241595493
5.138921229313939,4.383126263043584,4.918122783036949,5.385071724136157
5.182752491944375,4.364300095735593,4.9719735002783105,5.541449673074704
5.226395492901731,4.3440647131705985,5.027387997009058,5.695804589278321
5.269836140033437,4.323494946762513,5.084346042901841,5.846453558635668
5.313071089501062,4.303835925661991,5.142810578488198,5.991548348484314
5.356109448757683,4.286492701238983,5.202726061973041,6.12908742372007
5.398974375770073,4.273006958954683,5.264016936210242,6.256940226510327
5.44170444535962,4.265018095931022,5.3265863384753445,6.3728869411662945
5.48435462631893,4.264206938740989,5.390315207887007,6.474676084382039
5.526996695706339,4.272222217938223,5.455061968730828,6.560100400973273
5.569718917885721,4.290592591799976,5.520662972740561,6.627088686740344
5.6126248438037205,4.3206302151533,5.5869338596079645,6.673807634629391
5.655831145955253,4.363334920364317,5.653671935954258,6.698764366874911
5.699464495158897,4.4193100921881365,5.720659579623008,6.700898055467598
5.743657596080778,4.488701365994305,5.787668560177684,6.679649008256973
5.788544609740721,4.571166868428287,5.854465050260254,6.634996357339644
5.834256278425004,4.6658831168182,5.920815013833651,6.567460661292099
5.880915109593186,4.7715849666573655,5.986489620446572,6.478074004542031
5.92863095925976,4.886632667786662,6.051270360491992,6.3683257298865446
5.977497285937626,5.0090955404125825,6.114953617790857,6.240095202737271
6.027588241341752,5.136840725804147,6.17735456981823,6.095583275441214
6.078956648599793,5.267616771362942,6.238310402572642,5.937251733380982
6.131632816313423,5.3991247110909475,6.297682919906452,5.76777602137021
6.185624063424332,5.529072825296355,6.355360680120154,5.590012203365647
6.240914791677296,5.655214601297097,6.4112608021538104,5.406975348358284
6.297466937690267,5.775372112412533,6.465330555637394,5.221823831402262
6.3552206588143925,5.887448951883721,6.517548793951416,5.03784245593878
6.41409514833323,5.98943804801888,6.567927218510804,4.858416709062034
6.473989528813418,6.07943021266082,6.616511385601425,4.686990739652636
6.534783830940027,6.1556291125217575,6.663381292997951,4.527002837944149
6.596340122065245,6.21637736226144,6.708651321377392,4.381794500105233
6.6585038956878595,6.2601964357666455,6.752469266378444,4.25449283703784
6.721105860045526,6.285840011174511,6.7950141947488225,4.147871189350648
6.783964260157271,6.292356464097073,6.836492906642329,4.064198890107279
6.846887824798242,6.279152243148489,6.877134895543402,4.005096991552173
6.909679347229726,6.246044988196045,6.917185865458924,3.9714206032781165
6.972139797111687,6.193294770471551,6.956900071491705,3.9631883241138817
7.034072744816402,6.1216045261959575,6.996531954732844,3.9795739495876448
7.095288790078362,6.032086323261709,7.036327694228721,4.018965755309383
7.155609653310979,5.9261970294813695,7.076517351781814,4.079086645096761
7.214871623605792,5.805653040615213,7.117308218232782,4.157157841440933
7.272928154011945,5.672337068086066,7.158879796647191,4.250082679989732
7.329651524692806,5.528209811670662,7.201380623447088,4.35462677289648
7.384933622809513,5.3752362360154615,7.2449268911760525,4.467575509575591
7.438685985169667,5.215331592132124,7.289602646271808,4.585857305800555
7.490839301090989,5.0503278360666926,7.335461219329813,4.706628683002468
7.541342579451656,4.881957755481699,7.382527506159838,4.827323361554436
7.590162157006473,4.711852286476476,7.430800739775383,4.945671348780338
7.637280679871238,4.541546009643578,7.480257453263186,5.059695633452386
7.682696139967674,4.3724862191002325,7.53085440959771,5.167694159960968
7.726421002158676,4.206041810105881,7.58253135119732,5.268213920679108
7.768481420259735,4.043509199763056,7.6352134904041105,5.360022802150644
7.808916512257365,3.88611340608567,7.688813718425617,5.442083561063283
7.847777646318222,3.73500321765042,7.74323455403625,5.513533109080616
7.885127678494726,3.5912401236675127,7.798369885127056,5.573669144019189
7.921040079731401,3.455781405617129,7.854106576567248,5.621945016391372
7.955597893787572,3.3294585617296324,7.910326026731162,5.657972513816281
7.988892479404869,3.21295303506683,7.966905751869325,5.681530993678862
8.021022009755537,3.1067719597017276,8.023721061806114,5.692580104303769
8.052089729352554,3.0112271710321648,8.080646862849152,5.691272407774928
8.082202001062875,2.9264208553936957,8.137559586926901,5.677961801755162
8.111466209616811,2.852240785646674,8.194339204944454,5.653203941441006
8.139988617473279,2.788367062606791,8.250871244358864,5.617745950891108
8.167872288099346,2.734290785060325,8.307048703867775,5.572504434825381
8.195215195949949,2.6893433935879716,8.362773748216028,5.51853279789421
8.22210862988583,2.6527339485940225,8.41795907619497,5.45698067890428
8.248635969371769,2.62359064362478,8.472528882984014,5.389049490828933
8.274871875808017,2.6010026014076546,8.526419377892303,5.315948393295482
8.300881901822095,2.5840584301229557,8.579578861825258,5.238854536422423
8.326722486123325,2.5718789384629246,8.631967407189482,5.158880340829255
8.352441275507955,2.5636425440503467,8.683556210597775,5.077049257700109
8.378077700948458,2.558602998988729,8.734326703174776,4.99428020332318
8.403663730938344,2.556099918271084,8.784269505208009,4.911379898912864
8.429224730121055,2.555563153848571,8.833383304197138,4.829041754658556
8.454780361659541,2.556512318412697,8.881673721743724,4.74784969683969
8.480345484843667,2.5585527900218876,8.92915221871212,4.66828536669023
8.505931012743886,2.5613694016981343,8.975835072379024,4.590737318665551
8.531544706760867,2.5647188134281187,9.02174244556568,4.515511123324097
8.557191894895148,2.568421334279103,9.06689755679892,4.442839569671639
8.582876108237938,2.572352745926823,9.111325952495637,4.372892422990665
8.608599635697207,2.576436494710728,9.155054876725544,4.305785407813688
8.634364000644315,2.580636473799733,9.19811273080368,4.241588247521403
8.660170365382312,2.5849505089188978,9.240528613278896,4.180331706374482
8.686019870471501,2.5894045852192265,9.28233193034264,4.1220136548605435
8.711913916323693,2.5940478027909615,9.323552066891246,4.066604224203937
8.737854394351602,2.59894801768338,9.364218109133285,4.014050139152199
8.763843874528437,2.6041881086132572,9.404358610524806,3.9642783266713875
8.78988575561457,2.609862802424224,9.44400139379152,3.9171988973025056
8.815984383638812,2.6160759904707716,9.483173382764546,3.872707589542879
8.842145143543519,2.6229384710321937,9.521900458659974,3.8306877584107464
8.86837452825384,2.6305660579350754,9.560207336244082,3.7910119790994905
8.89468018883319,2.6390780016547764,9.598117456035077,3.7535433264303517
8.921070968849738,2.6485956755572713,9.63565288929938,3.7181363813019592
8.947556925605312,2.6592414861966756,9.672834253112399,3.6846380068313906
8.974149340467278,2.6711379724579905,9.709680633180712,3.6528879295040757
9.000860720191858,2.6844070637134045,9.746209512475753,3.6227191543963966
9.027704790828992,2.6991694720093675,9.782436704019716,3.593958238334544
9.054696485549085,2.7155441976352863,9.818376286403062,3.5664254406014644
9.081851927525438,2.73364813128588,9.854040540809077,3.539934767383889
9.109188408838296,2.7535957394749806,9.889439888482915,3.514293923447286
9.136724366233047,2.7754988229514854,9.924582827717387,3.4893041824296955
9.16447935446256,2.799466340670878,9.959475869541684,3.464760185558046
9.19247401786927,2.8256042944478703,9.994123471397264,3.440449677427057
9.220730060813748,2.8540156718117413,10.028527968171534,3.4161531866671107
9.249270217531866,2.8848004468541584,10.062689500038205,3.3916436588005214
9.278118222000407,2.9180556410406844,10.09660593662621,3.3666860482926606
9.307298778410814,2.953875448084731,10.130272797109136,3.341036876702382
9.336837532891662,2.9923514290799087,10.16368316587616,3.314443763892331
9.366761047182461,3.033572786165851,10.196827603515082,3.286644939452588
9.397096775044119,3.0776267250621943,10.229694052909608,3.2573687418138135
9.42787304229474,3.1245989188261807,10.262267740327745,3.226333112991273
9.459119031483002,3.174574087128864,10.294531071457659,3.19324509754952
9.490864772354291,3.2276367071289522,10.326463522433153,3.157800355290446
9.523141139425581,3.283871873534372,10.358041525986058,3.1196826984861814
9.555979858160924,3.3433663265011653,10.38923835297092,3.0785636664323492
9.589413521425936,3.4062096663624866,10.420023989635244,3.0341021530453434
9.62347561808956,3.4724957734186703,10.450365011165697,2.985944107718101
9.658200575823747,3.542324448585371,10.480224452242878,2.9337223365074743
9.6936238203096,3.6158032857638363,10.509561675607952,2.877056441180984
9.729781853167239,3.6930497781599243,10.538332240019761,2.815552949515045
9.766712350948838,3.7741936466768693,10.56648776951491,2.748805714172701
9.804454287415608,3.8593793563705736,10.593975826656639,2.6763966933848287
9.843048080979313,3.9487687530300777,10.620739793590486,2.597897280168834
9.882535768509614,4.042543700751507,10.646718766392175,2.5128704261248207
9.92296120551713,4.14090852494748,10.671847470653423,2.4208739227179517
9.964370290766604,4.244091952075599,10.696056209880602,2.3214653741641937
10.00681121028736,4.352348071056252,10.719270863622244,2.2142096451987823
10.050334690997923,4.465955598846409,10.741412960074232,2.0986899267012205
10.094994246986387,4.585214382556682,10.762399859341244,1.9745240759007454
10.140846390811953,4.710437572107792,10.782145100100252,1.8413886107330522
10.187950766533032,4.84193720232687,10.800558986207582,1.6990537325969102
10.2363701385563,4.979999984263152,10.81754952353355,1.5474340739914607
10.286170138398932,5.124848900762882,10.833023864273464,1.3866615273987284
10.33741862740656,5.2765847924370135,10.84689047954745,1.217188387063325
10.39018447533093,5.435100769771163,10.859062363418085,1.0399306964241113
10.444535483028641,5.599961677185782,10.869461670382325,0.8564620863907848
10.5005350998005,5.770242413915404,10.878026291246233,0.6692653359313483
10.558237523939654,5.944325320934948,10.884718944605547,0.48203849701288737
10.617680777149005,6.119672055162402,10.889539329575676,0.3000289195561362
10.678877497700629,6.292613648685114,10.892539618771238,0.13032585643801975
10.74180363418748,6.458244179018324,10.893842877335619,-0.018019638652879533
10.806386075977663,6.610546267897974,10.89366268094909,-0.13424138432261712
10.872491538656643,6.742884745721771,10.892320267105864,-0.2066755136967696
10.93992038611386,6.8489229358645005,10.890253511968897,-0.22422963983284572
11.008409615472505,6.923813813831977,10.888011215570568,-0.17828316139631767
11.077647753610824,6.965271279284971,10.886228383956604,-0.06442820169109689
11.147300466403674,6.974035765441214,10.885584101939694,0.1166831307265789
11.217040824058087,6.953476412702024,10.88675093324696,0.35979345221632764
11.286575588185107,6.908510330798465,10.890348867769124,0.6565594353445258
11.35566069149309,6.844330040595185,10.896914462122568,0.9974248816916684
11.424103991899042,6.76539908620073,10.906888710939485,1.3731588731275288
11.49175798276105,6.674913525447321,10.92062029967076,1.775741892356129
11.558507118015523,6.574678962112948,10.938377718594323,2.1986495160197292
11.624253907636653,6.465245795920622,10.96036421375452,2.6367524513173937
11.688906365595859,6.346155225694346,10.986731738267695,3.086049279474582
11.752367917852801,6.216202706933316,11.01759223106244,3.5433757733929396
11.814529944922134,6.073675742628112,11.05302598879637,4.006162798723379
11.875266702348414,5.916554078760894,11.093087616783604,4.472267410154521
11.934432243136023,5.7426749751398045,11.137810290885149,4.939877057767651
11.99185899288742,5.5498708238270815,11.187209061462825,5.407476260459127
12.047357701125692,5.336086402090498,11.241283824067416,5.873861387175079
12.100718565146597,5.0994818421474575,11.300022437939168,6.338187810483283
12.15171338356807,4.838526925510533,11.363404316044,6.800032205849375
12.200098652823176,4.552093863135321,11.431404638102494,7.259449674156187
12.24561959145453,4.239560529494031,11.503999134844056,7.716999243044514
12.28801519674947,3.9009457455554997,11.581169127274501,8.17370009294943
12.327024654205024,3.5371148173091562,11.662906128203996,8.630861324039696
12.362395802378115,3.150119726098889,11.749214741444394,9.089695831559217
12.393896999639104,2.7437754593201897,11.840111699759987,9.550580319436891
12.421334754232305,2.3246156376516556,11.935617502954356,10.011764178330555
12.444580910608822,1.9033845177502036,12.03573514473766,10.467299080057835
12.463614755786324,1.4971091037238267,12.14040813553824,10.904088133964812
12.478585846823563,1.1313309588256455,12.249449016877888,11.298538989544765
12.48989915641182,0.8409648656769713,12.362434406773335,11.614763887863054
12.49830880506859,0.6666884783130713,12.478582045651965,11.80837295518582
12.50497568985172,0.64384421528905,12.596665775203823,11.839892681342688
12.511414132004612,0.7863631554864565,12.71506470201725,11.694624377900281
12.519277763559476,1.0772730752282702,12.832010945796252,11.393957168462778
12.530050494311759,1.4760430489524574,12.94595051748088,10.985230923635356
12.544810924801283,1.9367699764694257,13.055802826717233,10.51866533004466
12.564178624565978,2.422179633452588,13.16098948001768,10.030845367275049
12.588400420900504,2.9074855726318307,13.26129793369043,9.541561582990782
12.617475276626822,3.3780674286597367,13.356713549520338,9.058118650735342
12.65125595091342,3.8258621320411024,13.447294736027692,8.580687097722599
12.689514572233831,4.246591582167005,13.533101607004918,8.10618252833164
12.731980488055502,4.638091227912598,13.614163432288233,7.630544787498186
12.778361400334628,4.9994306789566085,13.690468880163214,7.149926486860456
12.828355707124194,5.330499180975392,13.761968145031819,6.661247977778715
12.881660698933947,5.6318328944927885,13.828580624809605,6.162405388220933
12.937979027878875,5.904552284468273,13.890204678691815,5.652289839630829
12.997024550723557,6.150336978057768,13.946727577088122,5.130702026822195
13.058527920504135,6.371400168378567,13.998034597356344,4.5982092004929775
13.122241922187921,6.57044434908008,14.044016689361275,4.055975088114395
13.187946365678723,6.750590767009983,14.084576440242419,3.505587436401666
13.255452273348823,6.91527948397737,14.119632314606436,2.9489074507989006
13.324605068188596,7.068136546552991,14.149121389114425,2.3879683427662166
13.395286433654126,7.212799646681517,14.173001072542087,1.824956362329786
13.467414430120941,7.352683462097063,14.191250636165385,1.2623181510679677
13.540941264741912,7.4906503742529935,14.203873817676065,0.7030540802501708
13.615847768484443,7.628533085152603,14.210904358478567,0.15127683481304766
13.692133099335969,7.766440782966269,14.212417126826697,-0.3868731760617399
13.769797507165631,7.901794617567461,14.20854839506608,-0.901894234421822
13.848815453341306,8.028139956614542,14.199529452721862,-1.3792667211328868
13.92909685290745,8.134073494013691,14.185736785510533,-1.7979947281590334
14.010437587847587,8.203175833348649,14.167756838228943,-2.1306615126954465
14.092469346181074,8.216405185136827,14.146450223101988,-2.3471089276101615
14.174633398032443,8.157967784197819,14.122979133825886,-2.4231768486782057
14.25621307587442,8.022976895654203,14.098747365339104,-2.351994258636011
14.336442844830962,7.821665262109598,14.075227422752745,-2.1501615321872785
14.414659497452059,7.575856182053462,14.053725807430872,-1.852506794576088
14.490418059272594,7.310117767866429,14.035200739485111,-1.498865317733236
14.563519236951258,7.044274922596509,14.02021208630778,-1.122642029497597
14.633961986177223,6.7907789249671655,14.008985666012803,-0.7464493044298792
14.701869775426895,6.5557003092186195,14.001521172968504,-0.38319510002230034
14.76742677851908,6.340873348139803,13.997689221968281,-0.0390530872191438
14.830835512000478,6.145770707847566,13.99729869109609,0.2838175911542413
14.892293219078955,5.968748682523984,14.000136867007631,0.5853998901797469
14.951980705904194,5.807762657263882,14.005990865909428,0.8666972466098011
15.010058332476833,5.660738168980694,14.014657838375527,1.129116656022432
15.06666571416664,5.525743865214339,14.025949004935752,1.3741520037888504
