th1 (rad),w1 (rad/s),th2 (rad),w2 (rad/s)
2.0124423507459537,-1.5678648727776405,2.735164980189058,2.05906355036997
1.9967637020181772,-1.6429257321372315,2.755755615692758,2.06035812695308
1.980334444696805,-1.7169182241487801,2.7763591969622885,2.0585854327691924
1.963165262455317,-1.7899261687767125,2.7969450512899803,2.0535914753605957
1.94526600076755,-1.8620566563075267,2.817480966043586,2.045234619455339
1.9266454342044748,-1.9334383154520973,2.83793331223814,2.0333820078240787
1.9073110510499538,-2.004219383627712,2.8582671323163806,2.017905574956347
1.8872688572136767,-2.074565714828972,2.878446188065944,1.9986778335961337
1.8665232000653869,-2.1446588385191108,2.8984329664019053,1.975567588429567
1.8450766116801958,-2.2146941563668734,2.918188642286201,1.9484357000020172
1.822929670116527,-2.284879335627668,2.937672999286221,1.9171309898814042
1.8000808767602503,-2.3554329309413906,2.956844309185035,1.8814863487996336
1.7765265474508365,-2.4265832418254707,2.9756591726730317,1.8413150854800726
1.7522607150325817,-2.4985673918852456,2.9940723235278326,1.7964075365294991
1.7272750411137292,-2.5716305977786975,3.0120363988931276,1.7465279477328268
1.7015587351359422,-2.646025580815764,3.029501678370456,1.6914116343530181
1.6750984793277846,-2.722012061014357,3.0464157947139863,1.6307624322872616
1.6478783587176409,-2.7998562616242095,3.062723419036859,1.5642504627044047
1.6198797961013989,-2.8798303407226005,3.078365923663903,1.491510249616724
1.5910814926941728,-2.9622116547498525,3.0932810261600703,1.412139252295324
1.5614593761466742,-3.0472817462464183,3.1074024186830234,1.3256969021301366
1.53098655868421,-3.1353249343051486,3.120659387704325,1.231704266027385
1.4996333093411585,-3.226626371440725,3.132976430364599,1.1296444951141016
1.4673670456267511,-3.321469415232163,3.14427287531574,1.0189642573876123
1.4341523514744294,-3.4201321483137046,3.154462517889616,0.8990763943801209
1.3999510299912923,-3.522882867886652,3.1634532818334176,0.7693640823331006
1.3647222013124258,-3.629974358573575,3.1711469226567486,0.6291868139322739
1.32842245772669,-3.741636763801598,3.1774387907960713,0.4778885418471221
1.2910060900886742,-3.8580688856998395,3.1822176762145427,0.3148083327464602
1.2524254012316758,-3.979427777414657,3.185365759542007,0.13929386071896366
1.212631123457529,-4.105816551117355,3.186758698149197,-0.04928198904300651
1.1715729579463556,-4.237270416089077,3.1862658782587667,-0.25150124394542117
1.1292002537854648,-4.3737410891813715,3.1837508658193125,-0.46787770314757726
1.085462842893651,-4.515079886773325,3.1790720887878368,-0.6988307808340877
1.0403120440259177,-4.661020009961307,3.172083780979496,-0.9446568944973506
0.9937018439263047,-4.81115876224856,3.1626372120345225,-1.2054993332081108
0.9455902563038191,-4.964940670531117,3.1505822187024415,-1.4813179512482646
0.895940849598508,-5.121642683604302,3.1357690391899586,-1.7718604345080338
0.844724422762465,-5.280362755600996,3.118050434844878,-2.0766372164984084
0.791920795206455,-5.440013137104843,3.097284062679894,-2.3949022986077737
0.7375206638354066,-5.59931954970379,3.073335039693816,-2.725642172647233
0.6815274683383687,-5.756827081386473,3.0460786179673436,-3.0675746845196943
0.623959197524504,-5.910913110398039,3.0154028711221468,-3.4191589845846817
0.5648500664205236,-6.0598068841951145,2.9812112812763,-3.7786167098543655
0.5042519975785724,-6.201614632485439,2.9434251141777565,-4.143963333809963
0.442235851253718,-6.334348400577553,2.901985480839657,-4.513047368333874
0.3788923672479425,-6.455956290436339,2.856855007156318,-4.883594022282358
0.31433280434357913,-6.564351619745139,2.8080190669334946,-5.253249232423844
0.24868928814612773,-6.657438740086988,2.755486574609256,-5.619619863560099
0.18211490074525785,-6.733133915631687,2.6992903759736553,-5.980306421274242
0.11478356158894097,-6.789380701797138,2.639487311760913,-6.332925821962311
0.04688975457096958,-6.82416056166538,2.57615805354129,-6.675123503955473
-0.021351851045684225,-6.83550085124515,2.509406818501735,-7.004576239913178
-0.08970685955813572,-6.821483600440133,2.4393610561026033,-7.3189891703209575
-0.15792169556253705,-6.780259509195034,2.3661711643993937,-7.616092540189258
-0.2257242906544874,-6.710072054726915,2.290010238997501,-7.893645092444553
-0.2928250112017565,-6.609296348677985,2.2110737880730555,-8.149451749627971
-0.35891797468853637,-6.476496185239287,2.1295792705767758,-8.381402797341021
-0.42368293654092926,-6.310500428204929,2.0457652426033657,-8.587539999470774
-0.48678794082297855,-6.110496475658204,1.959889842608658,-8.766151772296382
-0.5478929055795606,-5.876134240292978,1.8722283248856941,-8.915894810715592
-0.6066542479824903,-5.607629467007374,1.7830693767785382,-9.03593387117212
-0.662730542652564,-5.3058512353914,1.692710038066817,-9.126085725775383
-0.715789055006478,-4.972376381665323,1.6014491808090632,-9.186948979773582
-0.7655128188231313,-4.609494483740747,1.5095796910113273,-9.219999989013912
-0.8116077636605388,-4.220151623396984,1.4173796911211882,-9.227637660914727
-0.8538092798945086,-3.8078290469889877,1.325103314512041,-9.2131666989453
-0.8918875703643985,-3.376362630800415,1.232971647522588,-9.180718842937528
-0.9256511966724026,-2.9297184049064935,1.1411644590932128,-9.135122734858527
-0.9549483807214675,-2.471745844519239,1.0498132317446276,-9.081742585291295
-0.9796658391666598,-2.005932470014259,0.9589958058917146,-9.026311638352531
-0.9997251638668024,-1.5351801167410082,0.8687326895081893,-8.974787541641959
-1.0150769650342124,-1.061616064526574,0.7789848140917697,-8.93325360854638
-1.0256931256794781,-0.5864430124529469,0.6896522780063059,-8.90788424599081
-1.0315575558040075,-0.1098228143440062,0.6005734355463979,-8.904986551711287
-1.0326557839474475,0.36921824478495,0.511523570029285,-8.931124865819228
-1.028963601499598,0.8528787038603395,0.42221232137109266,-8.99333128532537
-1.0204348144609945,1.3446808064616285,0.332279008517839,-9.09940108442282
-1.0069880063963783,1.8495847310266156,0.24128499767361078,-9.258261869447537
-0.9884921590861122,2.374096414555649,0.1487023789791354,-9.48037440384491
-0.9647511949405557,2.926276056319769,0.053898634940686294,-9.778034828382891
-0.9354884343773581,3.515375317726993,-0.043881713343142614,-10.165212518861548
-0.9003346812000881,4.15039157851933,-0.1455338385317581,-10.655961321987547
-0.8588307654148948,4.8358077554954075,-0.25209345175163356,-11.259033059453076
-0.8104726878599408,5.560764445303129,-0.36468378234616433,-11.96348907822756
-0.7548650434069095,6.27574173509921,-0.48431867312843996,-12.706966892314853
-0.6921076260559174,6.857481661357761,-0.6113883420515884,-13.327176077602179
-0.6235328094423398,7.10588340572709,-0.7446601028276102,-13.556433622215593
-0.5524739753850689,6.875142818727714,-0.8802244390497661,-13.199954854329892
-0.4837225471977918,6.264769257342169,-1.012223987593065,-12.394364718100332
-0.4210748546243701,5.526383703048753,-1.1361676347740683,-11.475715861491565
-0.36581101759388257,4.825867632293523,-1.250924793388984,-10.657661966823783
-0.31755234127094734,4.211710490557753,-1.3575014130572218,-9.995493918692478
-0.2754352363653698,3.6804619262133054,-1.4574563522441466,-9.47778955803378
-0.23863061710323677,3.2159035425945808,-1.5522342478244844,-9.07897569966701
-0.20647158167729096,2.8019094402884392,-1.6430240048211544,-8.775667672827709
-0.17845248727440657,2.425282037688077,-1.7307806815494315,-8.549714354445008
-0.15419966689752582,2.0757560032103854,-1.8162778250938816,-8.387701211230336
-0.13344210686542196,1.745420536080565,-1.900154837206185,-8.279842735154373
-0.11598790150461631,1.4281607698100482,-1.9829532645577286,-8.218987635906121
-0.10170629380651583,1.119242078704346,-2.0651431409167897,-8.199846307677833
-0.09051387301947236,0.815037819630982,-2.147141603993568,-8.21840271014855
-0.08236349482316255,0.5128775129355767,-2.2293256310950533,-8.27145129369319
-0.07723471969380678,0.21099414135504413,-2.312040144031985,-8.356207913714055
-0.07512477828025634,-0.09144532095731167,-2.3956022231691256,-8.469956758039977
-0.07603923148982945,-0.3942391185383447,-2.4803017907495253,-8.609708329853499
-0.0799816226752129,-0.6959944854596948,-2.56639887404806,-8.771857352193985
-0.08694156752980985,-0.9939387459121867,-2.65411744757,-8.95184635535042
-0.0968809549889317,-1.2837352777429443,-2.743635911123504,-9.143862590135466
-0.10971830776636116,-1.5593625229349781,-2.835074537024859,-9.340622648277009
-0.12531193299571095,-1.8131361723821782,-2.928480763507629,-9.5333262451237
-0.14344329471953274,-2.0359674737539373,-3.023814025958866,-9.711876724328617
-0.16380296945707212,-2.2179379342918275,-3.1209327932021522,-9.865452871350206
-0.1859823487999904,-2.349215549672418,-3.2195873219156543,-9.9834560168269
-0.20947450429671458,-2.421235639860073,-3.3194218820839234,-10.056744257248493
-0.2336868606953153,-2.4279445643948603,-3.419989324656408,-10.078930523921855
-0.25796630633926393,-2.3668135304668874,-3.5207786298956267,-10.04742711830963
-0.2816344416439328,-2.2393364066453536,-3.621252901078723,-9.963935419428296
-0.30402780571038635,-2.050854011933457,-3.720892255273006,-9.834226864817845
-0.3245363458297209,-1.8097505044510895,-3.8192345239211845,-9.66728176779156
-0.3426338508742318,-1.5262490223404257,-3.9159073415991,-9.474039309742645
-0.3578963410976361,-1.2111128337017036,-4.010647734696526,-9.266083018867894
-0.3700074694346531,-0.8745192116762563,-4.1033085648852055,-9.05453325698468
-0.3787526615514157,-0.5252610985000539,-4.193853897455052,-8.84929578830659
-0.3840052725364162,-0.17030991288934766,-4.282346855338118,-8.65869082409398
-0.3857083716653097,0.18531451928478326,-4.368933763579058,-8.489402352192927
-0.38385522647246184,0.5384613168902461,-4.4538277871009875,-8.346652243974404
-0.37847061330355936,0.8876503357462312,-4.537294309540732,-8.234505744339085
-0.36959410994609704,1.2328375861995413,-4.6196393669841225,-8.156236828947145
-0.3572657340841016,1.5751993900719257,-4.701201735273594,-8.114709305918684
-0.3415137401833824,1.9169690577135627,-4.782348828332781,-8.11275433412833
-0.32234404960624674,2.2613448187177725,-4.863476371674064,-8.153544234777087
-0.29973060141906904,2.612479063870277,-4.945011814021835,-8.240975997218035
-0.2736058107803663,2.9755547313235753,-5.027421573994015,-8.380086308079694
-0.2438502634671305,3.356951180815435,-5.1112224370748125,-8.577522168427485
-0.21028075165897617,3.7644916442101723,-5.196997658759087,-8.842080482619826
-0.17263583521687445,4.207729378015932,-5.285418463585285,-9.18528455727667
-0.13055854143671514,4.698123314331843,-5.3772713091580515,-9.621823017963502
-0.08357730829339671,5.248653021825499,-5.473489539337686,-10.169267960996837
-0.031090778075141726,5.871611885538069,-5.5751822189476545,-10.845375695011626
0.02762534078023897,6.571286568657863,-5.68363597589777,-11.658457445501492
0.09333820646681759,7.324043015896782,-5.800220550352785,-12.580441520280768
0.16657863662578543,8.03495583563946,-5.926024965555593,-13.487337867382722
0.24692819498218002,8.484634783775181,-6.06089834422942,-14.085434359436544
0.33177454281993185,8.391767249903761,-6.201752687823785,-13.996462997483276
0.4156922153189695,7.722393310146555,-6.341717317798619,-13.181467005268631
0.4929161484204351,6.79568449768659,-6.473531987851305,-12.078966279098289
0.560872993397301,5.898808833792243,-6.594321650642288,-11.07332739534423
0.6198610817352235,5.1210090611077534,-6.70505492459573,-10.276569438809705
0.671071172346301,4.456307173633042,-6.807820618983827,-9.674556104945282
0.7156342440826314,3.8782906958722876,-6.90456618003328,-9.228928345807164
0.7544171510413543,3.3623109964950046,-6.996855463491351,-8.906026430038285
0.7880402610063044,2.889157188262467,-7.085915727791734,-8.680907042629457
0.8169318328889291,2.4444109462217405,-7.172724798218029,-8.5358472694492
0.8413759423511465,2.0172532058008024,-7.258083270912521,-8.458297290089426
0.8615484744091546,1.5995144750396344,-7.342666243813415,-8.439233640648673
0.8775436191595509,1.1850495942498411,-7.427058580219902,-8.471946222941778
0.8893941151020494,0.7693806015548547,-7.51177804244932,-8.551134649948914
0.8970879211175979,0.3495440505891394,-7.597289388948809,-8.672198540565853
0.9005833616234893,-0.0759077713419703,-7.684011374354467,-8.830642679931335
0.8998242839100696,-0.5067943584224837,-7.772317801153781,-9.021553951713814
0.8947563403258448,-0.9411282875858087,-7.862533340670919,-9.239140702191921
0.8853450574499867,-1.374927846329351,-7.954924747692838,-9.476358563593063
0.8715957789866932,-1.8020975905528334,-8.049688333328769,-9.724678808111976
0.8535748030811648,-2.2144711158389403,-8.14693512140989,-9.974079354341333
0.8314300919227754,-2.6021131968677516,-8.246675914953302,-10.213341459010888
0.8054089599540979,-2.953950048949432,-8.34880932954341,-10.430700922270981
0.7758694594646036,-3.2587258327652755,-8.45311633876612,-10.61482288511322
0.7432822011369509,-3.506178557200098,-8.559264567617253,-10.755957844451073
0.7082204155649499,-3.6882249382171355,-8.666824146061764,-10.84703718432008
0.6713381661827785,-3.7998953718018327,-8.775294517904964,-10.884438283773585
0.6333392124647602,-3.839806427271721,-8.8841389007427,-10.86822724533291
0.594941148192043,-3.810089663891929,-8.99282117319603,-10.801847288669446
0.5568402515531238,-3.715851361220675,-9.100839646082724,-10.691385792594712
0.519681737940917,-3.5643455372494928,-9.207753504008672,-10.544644987307253
0.4840382825684221,-3.364066423449955,-9.313199953881744,-10.370234082549885
0.4503976183339225,-3.1239212468387922,-9.416902294707244,-10.176825799543096
0.4191584058655346,-2.852571493020357,-9.518670552702675,-9.972631593329893
0.39063269093533104,-2.5579668566236533,-9.618396868635974,-9.765085233732124
0.3650530223690945,-2.247056103176952,-9.716047720973295,-9.560693727801985
0.34258246133732495,-1.9256414116399503,-9.811654658251316,-9.365009204944489
0.32332604722092545,-1.598339230576605,-9.905304750300761,-9.18268237962575
0.3073426549151594,-1.2686137949939353,-9.997131574097018,-9.017568268485105
0.29465651696522005,-0.9388547790546189,-10.08730725678187,-8.872863739695886
0.28526796917467384,-0.6104761291245235,-10.176035894178828,-8.751263307581507
0.27916320788342863,-0.2840182257221818,-10.263548527254642,-8.655124800602161
0.2763230256262068,0.04076009327535818,-10.350099775260663,-8.586640766589355
0.2767306265589604,0.36480958811731534,-10.435966182926556,-8.548015169638635
0.28037872244013357,0.6897460863016707,-10.521446334622942,-8.541648283445916
0.28727618330315025,1.01783895687497,-10.606862817457401,-8.57033572385691
0.29745457287189997,1.352036992614546,-10.69256617469597,-8.637490083890466
0.31097494279804544,1.6960346598957128,-10.778941075534876,-8.747394881890074
0.32793528939700256,2.0543780334347117,-10.866415024353776,-8.905498320895166
0.3484790697313497,2.432599211722059,-10.955470007562727,-9.118742859088039
0.37280506184857026,2.837339236460707,-11.046657436153607,-9.395890877851043
0.4011784542131773,3.2763447802366192,-11.140616344932118,-9.747709353812839
0.4339419020155435,3.7580362745101055,-11.238093438470246,-10.186625568740581
0.47152226476064457,4.289890884585297,-11.339959694157653,-10.724847438062376
0.5144211736064975,4.873855710081291,-11.447208168538276,-11.368522577463128
0.5631597307073104,5.495064677995777,-11.560893394312908,-12.102789563530687
0.6181103774872682,6.09845270441916,-11.681921289948214,-12.860110082398498
0.6790949045314598,6.556033774684474,-11.8105223907722,-13.475254264760697
0.7446552422783046,6.671365300720678,-11.945274933419807,-13.690422454996748
0.8113688952855114,6.315107118665733,-12.082179157969774,-13.339056134662403
0.8745199664721687,5.597129176828751,-12.215569719316399,-12.576618123511228
0.9304912582404562,4.758872402740453,-12.341335900551512,-11.72772267936882
0.9780799822678607,3.9533960503864933,-12.458613127345199,-10.989530606994382
1.0176139427717257,3.2237567958617275,-12.568508433415143,-10.410267463024354
1.049851510730343,2.565214309761517,-12.672611108045388,-9.97671721349175
1.075503653827958,1.9614929323853603,-12.772378280180305,-9.662848740048313
1.0951185831518118,1.3967160438306832,-12.869006767580789,-9.44481441396211
1.1090857435901187,0.8580812705420658,-12.96345491172041,-9.303648153149407
1.1176665562955392,0.33590680788312755,-13.056491393251903,-9.224678125907452
1.1210256243743706,-0.17686230928759394,-13.148738174510978,-9.196382304950152
1.1192570012814946,-0.6851296652835138,-13.24070199756048,-9.209369315933337
1.1124057046286595,-1.1919962215512343,-13.332795690719813,-9.255596492672236
1.1004857424131471,-1.698994572018622,-13.425351655646535,-9.327802316644572
1.0834957966929608,-2.20624762238921,-13.518629678812982,-9.419113894781736
1.0614333204690687,-2.712592400554121,-13.612820817760799,-9.522800452994563
1.0343073964635274,-3.2157052693965937,-13.708048822290744,-9.632155518070652
1.0021503437695616,-3.7122579982156276,-13.80437037747145,-9.74049670407315
0.9650277637874053,-4.1981247303383915,-13.901775344512181,-9.84127135134948
0.9230465164840214,-4.66864725635559,-14.000188058025676,-9.928249323958642
0.8763600439204655,-5.118950714448715,-14.099470551265263,-9.99577334164505
0.8251705367759784,-5.544286190559019,-14.199428284681714,-10.039026171629896
0.7697276748703882,-5.940364435484161,-14.299818546398013,-10.054267587974001
0.7103240305155466,-6.303640029025469,-14.400361222277754,-10.038996318412883
0.6472876302252919,-6.631510205828118,-14.500751185461883,-9.992004785002203
0.5809725281670107,-6.922406574103295,-14.600671233311905,-9.91331511109034
0.5117484624259778,-7.1757772370114665,-14.699804384422809,-9.80400813785207
0.43999069005586317,-7.39197567803322,-14.79784446580133,-9.665976460814107
0.366070933275531,-7.572086017938219,-14.89450423040947,-9.501642781816791
0.2903500730961488,-7.717719190782103,-14.989520658227638,-9.313684681935776
0.21317288118832778,-7.830811605038291,-15.082657505046996,-9.10479830030331
0.13486476513794488,-7.913449603645342,-15.173705488050029,-8.877520448646585
0.05573026910149145,-7.9677329031162705,-15.262480692536494,-8.6341155953736
-0.02394705992967125,-7.995680971437395,-15.34882184849023,-8.37652380952312
-0.1039038696440452,-7.999179554469789,-15.432587086585462,-8.106359326433841
-0.1838956651887431,-7.9799606379102865,-15.5136506798498,-7.824946652480767
-0.26369527156784595,-7.939607603559356,-15.591900146374607,-7.533381090072252
-0.3430913476034395,-7.879577446516904,-15.66723395727533,-7.232602101479008
-0.42188712206860857,-7.801232917682646,-15.73955997829012,-6.923470102056417
-0.499899451245435,-7.705878777573785,-15.808794679310685,-6.606839466280495
-0.5769582390211728,-7.594797646281153,-15.87486307397349,-6.283622438320414
-0.6529062154839843,-7.469282051226951,-15.937699298356694,-5.954840184628948
-0.7275990359962539,-7.330660181159542,-15.997247700202983,-5.621658467569173
-0.8009056378078493,-7.180313598465339,-16.053464284878675,-5.285406474076593
-0.8727087737925027,-7.019685818499948,-16.106318349619443,-4.94757832175994
-0.9429056319775021,-6.850281305153595,-16.15579413283704,-4.609817770090515
-1.0114084450290382,-6.673655098334104,-16.201892310537946,-4.27388771023572
-1.0781449960123792,-6.49139398160193,-16.244631187640305,-3.941627050356433
-1.1430589358283985,-6.305090773390449,-16.28404745814387,-3.6148985523418795
-1.206109843562303,-6.116313906491748,-16.32019644366729,-3.295531876399024
-1.2672729826272204,-5.926574858812713,-16.353151762431278,-2.9852664207908646
-1.3265387312153476,-5.737296138744766,-16.383004426639186,-2.685698417991523
-1.3839116926027952,-5.549782373885513,-16.4098614108191,-2.3982361526492206
-1.4394095163416503,-5.365196617730055,-16.433843772345593,-2.124066173951124
-1.4930614825189508,-5.184543342527568,-16.455084434085105,-1.8641321315259443
-1.5449069159442264,-5.008658831469692,-16.473725755400366,-1.6191265565799209
