th1 (rad),w1 (rad/s),th2 (rad),w2 (rad/s),a1 (rad/s^2),a2 (rad/s^2)
5.497218799276406,-2.854642444118711,5.272782616981393,1.5051435555999384,3.3367190790002144,6.86162805160632
5.468672374835219,-2.8212752533287087,5.287834052537392,1.5737598361160017,4.180334671035731,5.541111775558584
5.4404596223019315,-2.7794719066183515,5.303571650898553,1.6291709538715875,5.069011257204265,4.169395138478755
5.412664903235748,-2.728781794046309,5.319863360437268,1.670864905256375,5.9782318551080795,2.7842284048980646
5.385377085295285,-2.668999475495228,5.336572009489832,1.6987071893053558,6.879551423741338,1.4282884598421528
5.358687090540332,-2.6002039612578147,5.353559081382886,1.7129900739037773,7.743543191095592,0.14491426529196916
5.332685050927754,-2.522768529346859,5.370688982121924,1.714439216556697,8.543098848388965,-1.0266155257019005
5.307457365634286,-2.4373375408629694,5.38783337428749,1.7041730612996782,9.256380847919003,-2.0552604469468054
5.283083990225657,-2.3447737323837794,5.404875104900487,1.68362045683021,9.868808978562855,-2.9209770058384703
5.259636252901819,-2.246085642598151,5.421711309468789,1.6544106867718253,10.373757188657486,-3.615608496845997
5.237175396475838,-2.1423480707115763,5.438255416336507,1.6182546018033654,10.772008484968097,-4.141988484334984
5.215751915768722,-2.034627985861895,5.454437962354541,1.5768347169600156,11.070310966139322,-4.511760622753267
5.195405635910103,-1.923924876200502,5.4702063095241416,1.531717110732483,11.279504695389349,-4.742595053426327
5.176166387148098,-1.8111298292466085,5.485523480631467,1.4842911601982196,11.412649455178244,-4.855421297640507
5.158055088855631,-1.6970033346948261,5.500366392233449,1.4357369472218144,11.483444508117742,-4.872095947472492
5.141085055508683,-1.5821688896136488,5.5147237617056675,1.3870159877470896,11.505072255235458,-4.813693621131703
5.125263366612547,-1.4671181670612943,5.528593921583139,1.3388790515357725,11.489471570029838,-4.699427941345456
5.110592184941934,-1.3522234513609959,5.541982712098497,1.291884772122318,11.446972477393713,-4.546102565970337
5.097069950428324,-1.2377537265870586,5.55490155981972,1.2464237464626144,11.386196037646672,-4.3679522417106815
5.084692413162453,-1.1238917662105918,5.567365797284346,1.2027442240455077,11.314125973732667,-4.176737712947454
5.073453495500347,-1.0107505064732651,5.5793932395248005,1.160976846916033,11.236276127809928,-3.9819836467852725
5.063345990435614,-0.8983877451951658,5.591003007993961,1.1211570104481803,11.156899263275946,-3.791279719727135
5.054362112983663,-0.7868187525624064,5.602214578098443,1.083244213250909,11.079202068341468,-3.6105930377929947
5.046493925458039,-0.6760267318789918,5.613047020230952,1.0471382828729792,11.005546177192018,-3.4445618065434007
5.039733658139249,-0.5659712701070716,5.623518403059681,1.0126926648075452,10.937625429207891,-3.296755353081784
5.034073945438178,-0.4565950158149927,5.633645329707757,0.9797251112767273,10.876616197898697,-3.169895308667629
5.029507995280028,-0.3478288538360057,5.6434425808205235,0.9480261581900511,10.823301441544832,-3.0660384221052195
5.026029706741668,-0.2395958394205574,5.652922842402424,0.9173657739689989,10.778171066982852,-2.9867243981692666
5.0236337483474625,-0.1318141287507289,5.6620965001421135,0.8874985299873062,10.741501960885346,-2.9330933578596254
5.022315607059955,-0.02439910914187543,5.670971485441987,0.8581675964087099,10.713421123860542,-2.9059777143069456
5.022071615968536,0.08273510209672999,5.679553161406074,0.8291078192656404,10.693955064593856,-2.905972919213341
5.022898966989503,0.18967465274266854,5.68784423959873,0.800048090073507,10.683068171454721,-2.9334909485133767
5.02479571351693,0.2965053344572157,5.6958447204994656,0.7707131805883732,10.680692289732004,-2.988799727976356
5.027760766861502,0.4033122573545358,5.703551852305349,0.7408251833086097,10.686749251480771,-3.0720510357209423
5.031793889435048,0.5101797498693436,5.710960104138435,0.7101046729514002,10.701167655811409,-3.1832987959343115
5.036895686933741,0.6171914264274576,5.718061150867949,0.6782716849920571,10.723894784392076,-3.3225091040445416
5.043067601198016,0.7244303742713784,5.724843867717869,0.6450465939516117,10.754904152541943,-3.4895627886884486
5.050311904940729,0.8319794157967978,5.731294333657385,0.6101509660647272,10.79419882645735,-3.6842508005546732
5.058631699098697,0.9399214040613713,5.7373958433180325,0.5733084580591804,10.84181026353438,-3.906262196826499
5.068030913139311,1.0483395066967152,5.743128927898624,0.5342458360909155,10.897792034004397,-4.155163932237605
5.0785143082062785,1.1573174270367592,5.748471386259533,0.4926941967685394,10.962207333944356,-4.430371039551755
5.090087482476646,1.2669395003762027,5.7533983282272185,0.44839048637302187,11.03510867519451,-4.731105045956258
5.102756877480408,1.3772905871281478,5.757882233090949,0.4010794359134593,11.116507507566443,-5.056337587263431
5.116529783351689,1.4884556622038123,5.761893027450084,0.350516060040825,11.20633076303927,-5.404715108985828
5.131414339973727,1.600518969834205,5.765398188050492,0.29646890895096667,11.304360383876595,-5.77445924885546
5.147419529672069,1.713562573672971,5.768362877140001,0.23872431646241207,11.410150792123295,-6.163235965208512
5.164555155408799,1.8276640815942038,5.770750120304625,0.17709195681032697,11.522917990487526,-6.567984739689364
5.1828317962247406,1.942893261499079,5.7725210398727285,0.11141210941343332,11.641392625915126,-6.9846973579908855
5.202260728839732,2.0593071877582303,5.773635160966863,0.04156513583352446,11.7636280777638,-7.408134136744386
5.2228538007173135,2.1769434685358684,5.774050812325198,-0.0325162055339194,11.88675382452422,-7.831464576065417
5.244623235402672,2.2958110067811104,5.773725650269859,-0.11083085129457357,12.006664687659724,-8.245820295507153
5.267581345470483,2.4158776536577076,5.772617341756914,-0.1932890542496451,12.117639239877212,-8.639752495411475
5.29174012200706,2.53705404605648,5.770684451214417,-0.27968657920375983,12.211887617578656,-8.99859685410368
5.317110662467625,2.6591729222322664,5.76788758542238,-0.36967254774479663,12.27904305921243,-9.303769841385538
5.3437023916899475,2.781963352824391,5.764190859944932,-0.462710246158652,12.305636560302709,-9.53205740031473
5.371522025218192,2.905019718427418,5.759563757483345,-0.5580308201617994,12.274634448268989,-9.655015965924019
5.400572222402466,3.0277660629101075,5.753983449281727,-0.6545809798210396,12.165177583409097,-9.638691150970208
5.430849883031566,3.1494178387441987,5.7474376394835165,-0.7509678913307417,11.952736314657123,-9.443967946320667
5.462344061419008,3.26894520189077,5.739927960570209,-0.8454075707939483,11.609973155668282,-9.027977215893547
5.4950335134379165,3.385044933447453,5.731473884862269,-0.9356873429528838,11.108649621070077,-8.347044692373556
5.528883962772391,3.4961314296581536,5.72211701143274,-1.0191577898766193,10.422860157804998,-7.361587366405652
5.563845277068973,3.6003600312362036,5.711925433533974,-1.0927736635406757,9.533639045794795,-6.043015068120817
5.599848877381334,3.6956964216941515,5.700997696898567,-1.153203814221884,8.434501383824927,-4.381990288796014
5.636805841598276,3.7800414355324006,5.689465658756348,-1.1970237171098441,7.136791620288291,-2.396401713040361
5.6746062559536,3.8514093517352834,5.67749542158525,-1.2209877342402478,5.673074251002614,-0.13647867310480885
5.7131203494709535,3.9081400942453097,5.665285544242847,-1.2223525209712958,4.096668300868833,2.3157273830583867
5.752201750413406,3.949106777253998,5.653062019033134,-1.199195247140712,2.476229940522521,4.854120673371148
5.791692818185947,3.973869076659223,5.641070066561728,-1.1506540404070005,0.8860016992850827,7.362754807575065
5.831431508952539,3.982729093652074,5.629563526157658,-1.0770264923312498,-0.6057708808176206,9.732866529518468
5.87125879988906,3.9766713848438977,5.618793261234345,-0.9796978270360651,-1.9468275767605447,11.87779317688426
5.911025513737499,3.9572031090762922,5.608996282963985,-0.8609198952672226,-3.1065384549292614,13.741741130892875
5.950597544828262,3.9261377245269995,5.600387084011313,-0.7235024839582938,-4.076329902245453,15.301034662265671
5.989858922073532,3.885374425504545,5.5931520591717305,-0.5704921373356371,-4.865937660003001,16.559247414418834
6.028712666328578,3.836715048904515,5.5874471377983745,-0.40489966319144877,-5.4975453213175625,17.53911908750061
6.067079816817623,3.7817395956913393,5.58339814116646,-0.22950847231644267,-5.999789076345795,18.27410261259852
6.104897212774536,3.7217417049278816,5.581103056443295,-0.04676744619045747,-6.402886787939254,18.801388302265924
6.142114629823815,3.6577128370484893,5.5806353819813905,0.14124643683220175,-6.735343268158359,19.15710849157899
6.1786917581943,3.5903594043669056,5.582047846349712,0.3328175217479917,-7.022123540035487,19.37361687213066
6.214595352237969,3.5201381689665507,5.585376021567193,0.5265536904692982,-7.283931643637503,19.47835677899278
6.249796733927634,3.4472988525301758,5.590641558471885,0.721337258259226,-7.537197897184733,19.493766753414878
6.284269722452936,3.3719268735583285,5.597854931054478,0.9162749257933748,-7.794450742014133,19.437763960649825
6.317988991188519,3.293982366138187,5.607017680312412,1.1106525653998731,-8.06485055216213,19.324483096027457
6.350928814849901,3.2133338606165656,5.61812420596641,1.3038973963601477,-8.354751941005505,19.165072048694267
6.383062153456066,3.1297863412065103,5.631163179930011,1.4955481168470903,-8.668225510862948,18.968436506924782
6.414360016868131,3.043104086097881,5.646118661098482,1.6852324819163382,-9.007510783857963,18.741884413885373
6.44479105772911,2.9530289782593013,5.662970985917646,1.872651326055192,-9.373395022999903,18.491655274550563
6.474321347511703,2.8592950280293024,5.681697499178198,2.0575678788006977,-9.765523830068737,18.22333695079171
6.502914297791996,2.761639789728615,5.702273177966205,2.239801248308615,-10.1826534805122,17.942180225358804
6.530530695689282,2.659813254923493,5.724671190449292,2.419223050562203,-10.622855083010661,17.653323455162177
6.5571288282385165,2.5535847040933866,5.748863420954914,2.5957562851138247,-11.083678757696886,17.361938750794383
6.58266467527945,2.4427479165164177,5.774820983806052,2.7693756726217686,-11.562283180607418,17.073308788017744
6.607092154444614,2.3271250847103433,5.80251474053227,2.9401087605019463,-12.055532561136589,16.792840269088643
6.6303634052917175,2.2065697590989775,5.831915828137289,3.1080371631928325,-12.560059582514642,16.526016408640697
6.652429102882707,2.080969163273831,5.862996199769217,3.2732973272792396,-13.072289011026152,16.278286517754843
6.673238794515446,1.9502462731635695,5.895729173042009,3.436080192456788,-13.588412402519037,16.054885505490386
6.692741257247081,1.814362149138379,5.930089974966577,3.5966290475116915,-14.104299356201237,15.860569494594698
6.710884878738465,1.6733191555763667,5.966056265441694,3.7552347424576387,-14.615324808292886,15.699245296886541
6.727618070294229,1.5271659074934378,6.0036086128662705,3.912227195426504,-15.116084713052597,15.573460836454277
6.742889729369163,1.376005060362912,6.042730884820536,4.0679618037910465,-15.599964190534012,15.483710720344348
6.7566497799727925,1.2200054184575717,6.083410502858446,4.22279891099449,-16.058513585624002,15.427496923643071
6.768849834157368,1.0594202826013317,6.125638491968391,4.37707388023092,-16.48058113974594,15.398071874896436
6.7794440369833815,0.8946144712038723,6.1694092307707,4.5310545989798845,-16.85115134911489,15.382787014995381
6.78839018169542,0.7261029577127234,6.214719776760499,4.684882469129838,-17.149856185903865,15.360988469534464
6.795651211272547,0.5546043958536847,6.261568601451797,4.838492353825183,-17.34918168959022,15.301469472523502
6.801197255231084,0.3811125789577825,6.309953524990049,4.991507048550418,-17.41251709697662,15.159651042536614
6.805008381020662,0.2069874079880163,6.359868595475553,5.143103558975785,-17.292432701872613,14.87498143491763
6.807078255100542,0.034063080969290144,6.411299631065311,5.291853373324961,-16.929971144330036,14.369586558615802
6.807418885910235,-0.13523663047401022,6.46421816479856,5.435549238911119,-16.256294484214568,13.549973971154824
6.806066519605495,-0.29779957531615586,6.518573657187671,5.571048978622668,-15.198596783219669,12.314396806870048
6.803088523852334,-0.44978554314835256,6.574284146973898,5.694192946691368,-13.692311489881709,10.568703047035317
6.79859066842085,-0.5867086580471697,6.631226076440812,5.799879977161721,-11.700458483229973,8.251957566338305
6.792723581840378,-0.7037132428794693,6.689224876212429,5.882399552825104,-9.237567824521657,5.368552649800173
6.785686449411584,-0.7960889211246859,6.74804887174068,5.936085079323106,-6.390204200165781,2.016177748369695
6.777725560200337,-0.8599909631263437,6.807409722533912,5.9562468568068025,-3.3217282226285096,-1.6069947364797121
6.769125650569074,-0.8932082453526288,6.86697219110198,5.940176909442005,-0.2511427082714233,-5.2296364140389375
6.760193568115548,-0.895719672435343,6.9263739601964005,5.887880545301616,2.592236349514104,-8.566791197575956
6.751236371391194,-0.869797308940202,6.985252765649417,5.802212633325857,5.0210832369002985,-11.388472390994533
6.742538398301792,-0.819586476571199,7.0432748919826755,5.688327909415912,6.926221606093853,-13.56640943640562
6.73434253353608,-0.7503242605102605,7.100158171076835,5.552663815051855,8.283546605555598,-15.081787567545177
6.726839290930977,-0.6674887944547044,7.1556848092273535,5.401845939376403,9.135806089074997,-15.999986841981144
6.7201644029864305,-0.5761307335639545,7.2097032686211175,5.2418460709565915,9.563690942815287,-16.431938956464748
6.714403095650791,-0.48049382413580166,7.2621217293306835,5.077526681391944,9.659568140741072,-16.49980519545656
6.709598157409433,-0.38389814272839096,7.312896996144603,4.912528629437379,9.510145024548196,-16.314996218530176
6.705759175982148,-0.288796692482909,7.362022282438977,4.749378667252077,9.188154390064028,-15.968269489426945
6.702871209057319,-0.19691514858226872,7.409516069111498,4.5896959723578075,8.750344288463637,-15.528041262422587
6.700902057571496,-0.10941170569763234,7.455413028835076,4.434415559733582,8.23884753813617,-15.04292894041539
6.6998079405145194,-0.02702323031627063,7.499757184432411,4.283986270329428,7.683852492237614,-14.54576982618681
6.6995377082113565,0.04981529460610551,7.542597047135706,4.1385285720675595,7.10641704164996,-14.057631440456362
6.700035861157418,0.12087946502260512,7.583982332856381,3.997952257662996,6.520915983445003,-13.591197294019944
6.701244655807644,0.18608862485705516,7.623961855433011,3.8620402847227964,5.936976381266581,-13.153386346041833
6.703105542056214,0.24545838866972097,7.662582258280239,3.730506421262378,5.360925310993946,-12.747275604775792
6.705560125942911,0.29906764177966044,7.699887322492863,3.60303366521462,4.796835184349084,-12.373463284194003
6.708550802360708,0.3470359936231513,7.735917659145009,3.4792990323726802,4.247260562563143,-12.031011927833754
6.7120211622969395,0.3895085992487827,7.770710649468736,3.358988913094343,3.7137484665661176,-11.718088611587858
6.715916248289427,0.4266460839144439,7.804300538599679,3.241808026978464,3.1971868669759242,-11.432392236012092
6.720182709128571,0.4586179525842032,7.8367186188694635,3.1274841046183433,2.698039654174768,-11.171433727091213
6.724768888654413,0.48559834912595085,7.867993459915647,3.015769767347431,2.2165030068089946,-10.932715836643125
6.729624872145672,0.5077633791940408,7.898151157589122,2.906442608981,1.7526079013281795,-10.713845030877247
6.734702505937613,0.5252894582073226,7.927215583678931,2.7993041586722276,1.306286071119508,-10.512597789576308
6.739955400519686,0.5383523189185178,7.955208625265653,2.6941781807764644,0.8774114200080111,-10.326956525349953
6.7453389237088714,0.5471264331185979,7.982150407073418,2.590908615522965,0.465825164551342,-10.1551254277837
6.750810188040058,0.5517846847641112,8.008059493228648,2.4893573612451276,0.07135037793757913,-9.995533187762577
6.756328034887699,0.5524981885434871,8.032953066841099,2.389402029367502,-0.30620019748829924,-9.84682728432359
6.761853016773133,0.549436186568604,8.056847087134773,2.290933756524266,-0.6670204522575119,-9.707862980641602
6.76734737863882,0.5427659820460289,8.079756424700015,2.1938551267178497,-1.0113095739398315,-9.57768914102167
6.77277503845928,0.5326528863066305,8.101694975967193,2.098078235307633,-1.3392719179523882,-9.455532284784715
6.778101567322347,0.5192601671271067,8.12267575832027,2.0035229124597858,-1.6511173410566304,-9.340779825092458
6.783294168993618,0.5027489937165404,8.142710987444868,1.9101151142088613,-1.947061536320956,-9.232963126098142
6.7883216589307835,0.4832783783533308,8.161812138586956,1.81778548294788,-2.2273261013768257,-9.131740799734409
6.793154442714317,0.46100511733956256,8.179989993416434,1.726468074950536,-2.492138202219036,-9.036882519930742
6.797764493887713,0.4360837353173722,8.19725467416594,1.6360992497512286,-2.7417297813946613,-8.948253534286433
6.8021253312408865,0.4086664375034256,8.213615666663452,1.5466167144083642,-2.976336315322888,-8.865799985993505
6.806211995615921,0.3789030743501967,8.229081833807536,1.4579587145484292,-3.196195159925563,-8.78953511199893
6.810001026359423,0.3469411227509411,8.24366142095302,1.3700633634284398,-3.4015435432688217,-8.71952635034206
6.813470437586933,0.3129256873182529,8.257362054587304,1.2828680999250193,-3.5926162731898934,-8.655883365922806
6.816599694460115,0.27699952458635396,8.270190735586555,1.1963092662657913,-3.76964323026461,-8.598746986796494
6.819369689705979,0.23930309228370786,8.282153828249212,1.1103217963978262,-3.9328467143829293,-8.548279030608205
6.821762720628816,0.19997462513987857,8.29325704621319,1.0248390060917443,-4.082438708394426,-8.504652991786324
6.823762466880215,0.1591502380559343,8.303505436274108,0.9397924761738811,-4.218618116029214,-8.468045553849441
6.8253539692607745,0.11696405689564217,8.312903361035847,0.8551120206353866,-4.341568024499429,-8.438628887148534
6.826523609829731,0.07354837665064788,8.3214544812422,0.7707257317639012,-4.451453035481456,-8.416563690241158
6.827259093596237,0.029033846295833325,8.32916173855984,0.6865600948614896,-4.548416702007611,-8.40199293264898
6.827549432059196,-0.01645032072424278,8.336027339508455,0.6025401655349998,-4.632579103441637,-8.395036257817566
6.827384928851953,-0.06277611175865916,8.342052741163805,0.5185898029568241,-4.704034586341541,-8.39578500754305
6.826757167734367,-0.10981645762207456,8.347238639193373,0.4346319528813936,-4.76284969570051,-8.404297832836942
6.825659003158146,-0.15744495457907967,8.351584958722187,0.3505889745530242,-4.809061318806085,-8.420596861058169
6.824084553612355,-0.20553556776714052,8.355090848467718,0.26638300594244246,-4.84267506271803,-8.444664395042796
6.822029197934683,-0.2539623183943208,8.357754678527142,0.18193636199201452,-4.863663886040115,-8.476440126798332
6.81948957475074,-0.30259895725472197,8.359574042147061,0.0971719607240312,-4.871967006119643,-8.515818855986714
6.816463585178193,-0.3513186273159184,8.360545761754302,0.012013772164164063,-4.867489103888588,-8.562648711779344
6.812950398905033,-0.3999935183548043,8.360665899475944,-0.07361271495362938,-4.850099850075844,-8.61672988559792
6.8089504637214855,-0.44849451685556274,8.359929772326407,-0.15978001380960857,-4.819633778260216,-8.677813891615456
6.80446551855293,-0.4966908546381649,8.35833197218831,-0.24655815272576315,-4.775890531967044,-8.745603381524559
6.799498610006548,-0.5444497599578354,8.355866390661053,-0.33401418654100873,-4.718635514485639,-8.81975254980832
6.79405411240697,-0.5916361151026918,8.352526248795643,-0.4222117120390919,-4.6476009710270985,-8.899868175374728
6.788137751255943,-0.6381121248129628,8.348304131675253,-0.5112103937928392,-4.562487532961202,-8.985511354714477
6.781756630007813,-0.6837370001425748,8.343192027737324,-0.601065507339984,-4.462966252857264,-9.0761999904655
