th1 (rad),w1 (rad/s),th2 (rad),w2 (rad/s)
0.25284548402762524,-1.943702744262573,4.095934044452429,1.887988963254956
0.2334084565849995,-1.9382879081611002,4.114813934084979,1.9964682992478728
0.21402557750338852,-1.9339284325793051,4.134778617077457,2.1060325558668342
0.19468629317759548,-1.9310375040356094,4.155838942636126,2.216471780214546
0.17537591813723938,-1.930012188203515,4.1780036604382715,2.3276342441719144
0.15607579625520424,-1.93123276709181,4.201280002879991,2.43943024728335
0.13676346858428615,-1.9350633324223672,4.2256743053528245,2.5518348058613314
0.11741283526006248,-1.941853573828416,4.2511926534114375,2.664889494239811
0.09799429952177832,-1.951941681452247,4.277841548353836,2.7787037501655676
0.07847488270725585,-1.965658279099645,4.305628585855492,2.8934559846226486
0.05881829991625939,-1.983331314959756,4.334563145701718,3.0093948509742767
0.03898498676666183,-2.0052918599202063,4.364657094211461,3.1268410341362203
0.018932068167459768,-2.031880796221334,4.395925504552824,3.2461899226624316
-0.00138673979475357,-2.0634564189679745,4.428387403779448,3.3679155296547734
-0.022021303984433315,-2.1004030170268035,4.462066559075995,3.4925760355678808
-0.04302533415470135,-2.1431405446539338,4.4969923194316745,3.620821338424377
-0.06445673960124068,-2.1921355358159795,4.533200532815918,3.7534030124148425
-0.08637809495940048,-2.2479134410993886,4.570734562940067,3.8911870862625784
-0.10885722937039437,-2.3110725668435745,4.609646433802693,4.035170039761287
-0.1319679550388301,-2.3822997386866676,4.649998134200306,4.186498343543114
-0.1557909524256968,-2.462387642681265,4.691863117635737,4.346491661859607
-0.18041482885250945,-2.552253414728723,4.735328034254334,4.516669365067674
-0.20593736299979667,-2.6529572633688736,4.78049472790501,4.698779001546353
-0.23246693563348542,-2.7657183685632276,4.8274825179204734,4.894823377630602
-0.2601241193191177,-2.8919223452091503,4.8764307516967795,5.1070789923977
-0.28904334277120924,-3.033108991717212,4.927501541620757,5.338091113758128
-0.31937443268838134,-3.19091869135968,4.980882452758338,5.590616753363677
-0.3512836196019781,-3.366956933830537,5.036788620291975,5.867460943766186
-0.3849531889402835,-3.562502982749068,5.095463229729637,6.171105598429957
-0.4205782187677742,-3.777933061586303,5.157174285713936,6.502952865122996
-0.4583575493836372,-4.011647525254036,5.222203814365167,6.861891303362965
-0.49847402463617757,-4.258212694820777,5.290822727398797,7.241780035335036
-0.5410561515843854,-4.505484921280446,5.363240527752147,7.627516760138299
-0.5861110007971898,-4.731066413603032,5.43951569535353,7.9901499109163305
-0.6334216649332202,-4.900230926584996,5.519417194462694,8.283963107416636
-0.6824239741990701,-4.970380443801828,5.60225682553686,8.452509603947517
-0.7321277786370883,-4.907022555149466,5.686781921576335,8.450474771663833
-0.781198004188583,-4.7053305223839255,5.771286669292974,8.27310062851794
-0.8282513094124222,-4.396568358497173,5.854017675578153,7.964565499500547
-0.872216992997394,-4.029470453616429,5.933663330573158,7.591983600385314
-0.9125116975335582,-3.646044590880486,6.009583166577012,7.212257864329576
-0.948972143442363,-3.271590121437724,6.081705745220308,6.858872884557686
-0.9816880446567403,-2.917245050378965,6.150294474065885,6.545848148449232
-1.01086049516053,-2.585777913272125,6.215752955550378,6.275902308528399
-1.0367182742932513,-2.275985138457106,6.278511978635661,6.046522110311696
-1.0594781256778223,-1.985157712969011,6.338977199738778,5.853303367926693
-1.0793297028075124,-1.710265806585007,6.397510233418045,5.691514013274126
-1.0964323608733624,-1.4484625201624066,6.454425373550786,5.556727264808713
-1.1109169860749863,-1.1972634418436365,6.5099926461988735,5.445020009931092
-1.1228896204934227,-0.9545835057719954,6.564442846298184,5.352984961474777
-1.1324354555511427,-0.7187169015269523,6.617972695912932,5.277672346727337
-1.1396226245664123,-0.4882985200422405,6.670749419380205,5.216512200253147
-1.1445056097668347,-0.26226318325163317,6.722914541382736,5.167238365648258
-1.1471282415993511,-0.03980875065402856,6.774586925039219,5.127821917299069
-1.1475263291058915,0.1796352965308131,6.82586514421221,5.096415976382141
-1.1457299761405833,0.3964340779405863,6.876829303976031,5.071311615055621
-1.1417656353611774,0.6107693292684704,6.927542420126587,5.050903776210037
-1.1356579420684927,0.8226583700676346,6.978051457888687,5.03366599459178
-1.1274313583678164,1.0319711286563502,7.028388117834605,5.018132787563821
-1.117111647081253,1.2384461757710286,7.078569445710243,5.002888714410719
-1.1047271853235427,1.4417065253631198,7.12859833285435,4.9865632105083
-1.0903101200699115,1.6412757515694822,7.178463964959433,4.967830364406912
-1.0738973625542165,1.8365947572110761,7.228142268603502,4.945412822991239
-1.0555314149821058,2.0270393198655157,7.277596396833415,4.9180889950556645
-1.0352610217834506,2.211938346016976,7.3267772867839716,4.884702695053985
-1.0131416383232807,2.390592592993073,7.375624313734511,4.844174346289607
-0.9892357123933501,2.562293484001178,7.4240660571974075,4.795512864808446
-0.9636127775533383,2.7263415539971088,7.472021185845492,4.737827385890795
-0.9363493620133672,2.882064030317629,7.5193994597044,4.670338081828883
-0.9075287217101908,3.0288310735271193,7.566102840522689,4.59238545196324
-0.8772404109749197,3.1660702757542953,7.612026695042321,4.503437634599356
-0.8455797082173767,3.2932791244106387,7.6570610713883145,4.403095479022921
-0.8126469169732703,3.410035271921683,7.701092026178544,4.291095303294302
-0.7785465642540534,3.5160045875941215,7.744002979211487,4.167309427684256
-0.7433865183781122,3.610947086975713,7.78567607348833,4.031744695228277
-0.7072770475083551,3.694720921456514,7.825993520440613,3.884539256974956
-0.6703298382937899,3.767284656703381,7.864838913010362,3.725957905814579
-0.632656991726756,3.8286980703791276,7.902098492068508,3.556386194515837
-0.5943700110229648,3.879121662431758,7.937662354013667,3.3763234846502397
-0.5555787943986472,3.9188150063133462,7.9714255888601695,3.1863749637371255
-0.5163906443355137,3.9481339923320897,8.00328933849754,2.9872425616543885
-0.4769093044121928,3.967526942127492,8.033161764114084,2.7797146170395055
-0.4372340349909179,3.977529522014248,8.060958910284478,2.5646541087710983
-0.3974587397707754,3.9787583649840808,8.08660545137219,2.3429852881410986
-0.3576711561209346,3.971903333109702,8.110035304253602,2.1156786261724267
-0.3179521227898376,3.9577184137604515,8.131192090515325,1.8837341198947937
-0.27837493865223306,3.9370113373197206,8.150029431714273,1.648163164343672
-0.23900482527903585,3.9106321180572974,8.16651106335771,1.4099693700041773
-0.19989850409846288,3.879460836764337,8.180610757057751,1.170128861825304
-0.1611038957308195,3.84439508604677,8.192312045676005,0.9295707106565233
-0.12265994487035181,3.8063375711830987,8.20160775278257,0.6891582016072726
-0.08459656915852082,3.7661843902698133,8.208499334798642,0.4496716260374648
-0.046934725255822686,3.7248145025292354,8.212996051059017,0.21179319496224053
-0.009686580230530331,3.6830808355972198,8.215113983008639,-0.023905477811028836
0.027144228125441865,3.6418033898972473,8.214874928230529,-0.25697306589444424
0.06356226202441434,3.6017645835924603,8.212305197571585,-0.48708534723797425
0.09957990786033893,3.5637069595266655,8.207434344099205,-0.7140493067602626
0.1352169774556056,3.5283332595946297,8.200293851031603,-0.9378048642880242
0.1705003100515519,3.496308772707529,8.190915802388723,-1.1584247079450187
0.20546339777862718,3.4682657861105355,8.179331555309274,-1.376112804896445
0.24014605563973254,3.44480991730202,8.16557042726031,-1.591202201089737
0.27459415481275273,3.426528070862473,8.149658405249411,-1.8041527094058547
0.30885943552137746,3.413997741229055,8.131616878155352,-2.0155490214913017
0.342999412933668,3.4077973526521386,8.11146138794044,-2.226099658032881
0.37707738646018935,3.4085172666948163,8.08920039136011,-2.4366369804628008
0.4111625591271375,3.4167709583757184,8.064834021555482,-2.648118190213915
0.4453302687108947,3.4332056060411804,8.038352839653342,-2.8616267739690904
0.4796623247713065,3.4585108633060386,8.00973657191365,-3.0783730964368985
0.5142474334043668,3.493423729926118,7.978952840949282,-3.2996915909370195
0.549181670703628,3.538725958961869,7.945955925039912,-3.5270299062509753
0.5845689302932466,3.5952279180028106,7.910685625977402,-3.7619218654906863
0.6205212094732747,3.663728612265453,7.873066407322495,-4.00593027283835
0.6571584955959292,3.7449347145193648,7.833007104594112,-4.260536117566474
0.6946078427411229,3.83931069642078,7.790401743418448,-4.52693582660993
0.7330009497053307,3.946816509808067,7.745132385152348,-4.805686444212957
0.7724691148034114,4.0664698256838,7.697075520710219,-5.096111385791995
0.8131338130602495,4.1956551823416675,7.646114406852299,-5.395358470931215
0.8550903648836661,4.329120961156794,7.592160822142987,-5.697026620329334
0.898381574495234,4.457725777321476,7.535190555939694,-5.989443606274906
0.9429588322684488,4.567336068135773,7.475296119876945,-6.254148206143258
0.9886321929498065,4.6389060410575516,7.412754637815512,-6.466003497674598
1.035021253360382,4.651341256327144,7.348094602838766,-6.597158384377719
1.0815346659236533,4.588017885963217,7.282123018994989,-6.626053610923466
1.1274148447832855,4.4445855682587245,7.215862482885754,-6.548151323004803
1.1718607004658728,4.2322391808994775,7.150380969655706,-6.380307469192188
1.2141830922748675,3.972882803908025,7.086577894963784,-6.15389100570596
1.2539119203139477,3.6899771274957867,7.0250389849067245,-5.902023571567704
1.2908116915889056,3.401805630936492,6.966018749191048,-5.6503134936818356
1.3248297478982705,3.119638542023132,6.9095156142542296,-5.414444916920783
1.3560261333185017,2.848998437347349,6.855371165085022,-5.2020473319634855
1.3845161176919751,2.5916950524226094,6.803350691765387,-5.015582398558646
1.4104330682162012,2.347486815880882,6.753194867779801,-4.854673232925096
1.43390793637501,2.115151805482231,6.70464813545055,-4.717592170570527
1.4550594544298323,1.8930959642400147,6.657472213744845,-4.602096711289818
1.4739904140722324,1.6796693981776987,6.611451246631947,-4.50585708543318
1.4907871080540094,1.4733170432255243,6.566392675777615,-4.42665341186365
1.5055202784862647,1.2726413459092112,6.522126141658978,-4.362451117229465
1.5182466919453568,1.0764207482011876,6.478501630486683,-4.3114155599788955
1.5290108994273686,0.8836074862982881,6.435387474886894,-4.271898413323691
1.5378469742903516,0.6933168730034901,6.392668490753657,-4.242412592807826
1.5447801430203865,0.5048141192627836,6.350244364825579,-4.221604079901539
1.5498282842130142,0.31750152706199886,6.308028324026563,-4.208224596944327
1.5530032994836342,0.13090721679684955,6.2659460780571195,-4.2011068541472
1.5543123716516027,-0.055324294872438506,6.223935009515648,-4.199142991736839
1.5537591287028785,-0.24143976814427412,6.181943579598279,-4.201266331616405
1.5513447310214357,-0.42758346091331795,6.139930916282115,-4.206436342737364
1.5470688964123025,-0.6138022754598584,6.097866552854741,-4.213626659517409
1.5409308736577039,-0.8000502322272096,6.055730286259568,-4.221815992437591
1.5329303713354319,-0.9861926643436162,6.013512126335192,-4.229981792061606
1.5230684446919958,-1.1720105012565356,5.971212308414575,-4.23709655015738
1.5113483396794305,-1.3572049723755486,5.928841342913001,-4.242126633415463
1.497776289955675,-1.5414030140399944,5.886420076578847,-4.244033541767215
1.482362259815275,-1.7241636063341925,5.843979741161174,-4.2417774636988606
1.4651206237519332,-1.9049852012941926,5.8015619665241855,-4.234322967089219
1.4460707717389913,-2.0833143327601698,5.759218736853294,-4.2206466197924035
1.4252376284113897,-2.2585554235332004,5.71701227065537,-4.1997462846752756
1.4026520741760578,-2.4300817316508363,5.675014807808617,-4.17065178511949
1.3783512568595493,-2.597247309214973,5.633308289957422,-4.132436595135904
1.3523787837673995,-2.759399789008664,5.591983924006063,-4.084230178357269
1.324784785877313,-2.9158937700623344,5.55114162222249,-4.025230585629498
1.2956258481766896,-3.066104545740394,5.510889316366195,-3.9547169225467282
1.2649648027192857,-3.2094419070107545,5.471342147140728,-3.8720613140091094
1.2328703836491781,-3.345363757110787,5.432621534000637,-3.7767400179238066
1.1994167460780703,-3.4733892874350616,5.394854133821399,-3.6683433677500146
1.1646828532037197,-3.59311148232322,5.358170700143899,-3.5465842463195174
1.1287517383804875,-3.7042087364763288,5.322704857680703,-3.411304804979634
1.0917096510157243,-3.80645537815088,5.288591809630907,-3.2624811392819826
1.0536450972342155,-3.8997308918656604,5.255966998238087,-3.1002256162942605
1.014647788315559,-3.984027627558943,5.224964742075144,-2.9247865254549263
0.9748075120399695,-4.059456774423025,5.195716876820595,-2.7365447059078796
0.9342129442957393,-4.126252375993678,5.168351429761516,-2.5360068029335463
0.8929504205358025,-4.184773179511456,5.1429913617321805,-2.323794839480744
0.851102688740688,-4.235502157961069,5.119753413337373,-2.1006318679647897
0.8087476671610773,-4.27904362561091,5.098747094657726,-1.8673235978322333
0.7659572309049681,-4.316117990149733,5.080073858679404,-1.6247360716688963
0.7227960510034708,-4.347554342566709,5.063826497962714,-1.3737696715963001
0.6793205075778037,-4.374281268408811,5.050088801246751,-1.1153299529523684
0.6355776948937156,-4.397316453687327,5.038935501717227,-0.8502959915062326
0.5916045303568424,-4.41775583507544,5.030432541802165,-0.5794870598680768
0.5474269720060879,-4.436763187383601,5.024637671203484,-0.30362848921148994
0.503059340132252,-4.4555611363499645,5.021601386311369,-0.023317505490411505
0.4585037287687523,-4.475424623535161,5.021368211256465,0.2610103484459727
0.41374948253340066,-4.497677832529694,5.0239783147409245,0.549113868504998
0.3687727042081037,-4.523695517544048,5.029469453425975,0.8409779281067067
0.32353574903266324,-4.554909562664323,5.037879232707041,1.1368446658281404
0.27798665340602,-4.592821438494003,5.0492476793653225,1.4372447985525945
0.23205843902108,-4.63902098149067,5.063620127350848,1.7430298963992732
0.1856682292061733,-4.695211513040691,5.0810504263148415,2.0554062978041747
0.13871611407576637,-4.763240544668159,5.101604489292884,2.375970568185892
0.09108370862908477,-4.845133778939351,5.125364194974742,2.7067444430560244
0.04263237083969126,-4.943127007509333,5.152431639405303,3.0502029329381863
-0.006798899235402077,-5.059684249598591,5.182933668734685,3.409280522836748
-0.05739574173138799,-5.197478013853087,5.2170264739630525,3.787322943412761
-0.10937052186991886,-5.359283148934872,5.2548997033971805,4.187917820606626
-0.1629633533592676,-5.5476890952299796,5.296778881603247,4.614472294988895
-0.2184402443115674,-5.764450344588893,5.342923604553136,5.069286934025054
-0.27608474775745634,-6.009154940543071,5.3936164738933865,5.5516797227216514
-0.33617629716288705,-6.276714127201502,5.449133271120603,6.0544672085156535
-0.3989434384349021,-6.553147382763259,5.50967794320576,6.558070943861774
-0.4644749122625347,-6.809935947821198,5.5752586526443775,7.022640104500061
-0.5325742717407467,-7.000296725175701,5.645485053689378,7.382902295691024
-0.6025772389925037,-7.066404585945925,5.719314076646288,7.558410686902395
-0.673241284851963,-6.9663906955454395,5.794898183515312,7.491526332728789
-0.7429051918074174,-6.707197748702965,5.8698134468426,7.193478674743469
-0.8099771692944471,-6.344637078051139,5.941748233590035,6.744215689589368
-0.8734235400749585,-5.945716825079951,6.009190390485928,6.2393195411950595
-0.932880708325758,-5.556845276537427,6.071583585897879,5.74531826945177
-0.9884491610911322,-5.199551529955545,6.129036768592397,5.293681853449437
-1.0404446763906876,-4.8794892405228865,6.181973587126891,4.893459057730335
-1.0892395687959164,-4.59491275745993,6.230908177704195,4.543177759494119
-1.1351886963705158,-4.341464702977668,6.276339955299136,4.237578867151623
-1.1786033434002925,-4.114337743080837,6.318715743970652,3.9706705840555703
-1.2197467208311008,-3.909099185112529,6.358422449811208,3.736905898643699
-1.258837712682226,-3.721928104123732,6.395791508797645,3.5315325645642943
-1.2960569937234634,-3.549620441182299,6.431106834443288,3.3506136278094125
-1.3315531981352864,-3.3895155797433754,6.464612970721381,3.190934146892965
-1.3654483539327202,-3.23940637648117,6.496522312190311,3.049881618791861
-1.397842417697532,-3.0974554499553886,6.527021128378229,2.925332671441731
-1.4288169721970858,-2.962124461450307,6.556274455092646,2.8155559542209936
-1.4584382168115888,-2.8321169074280323,6.584430014634856,2.7191323396624827
-1.4867593858858692,-2.70633282286245,6.611621338031481,2.6348904900109202
-1.5138227141144938,-2.5838333122472203,6.6379702429315905,2.561855100848468
-1.539661047236966,-2.463812947627363,6.663588793940075,2.499205261156697
-1.5642991767132397,-2.3455783769542227,6.688580846551642,2.4462407674787103
-1.5877549604827819,-2.2285318062914827,6.713043254226429,2.40235466444923
-1.6100402785456966,-2.1121582989026386,6.737066800870921,2.3670106721740134
-1.631161861534723,-1.9960160597420777,6.760736907592661,2.339724481908682
-1.6511220221321437,-1.8797290484558142,6.784134152411748,2.3200481577192957
-1.6699193126167018,-1.7629813958439038,6.807334633988941,2.307557083093993
-1.6875491265751408,-1.6455131966445722,6.830410204819882,2.3018390484716815
-1.7040042585415864,-1.527117323380011,6.853428595304599,2.3024851975735987
-1.7192754317753864,-1.4076369585435753,6.876453447280334,2.3090826444363532
-1.7333518013608222,-1.2869635811795888,6.899544273724698,2.3212086443407696
-1.7462214371726181,-1.1650351735883355,6.922756360168106,2.3384262539193306
-1.7578717889085014,-1.0418344384686595,6.946140622707299,2.3602814508047603
-1.768290133293188,-0.9173868397199942,6.969743437215347,2.38630170252528
-1.777464001690388,-0.7917583042811277,6.9936064542406,2.4159959786927563
-1.7853815847331993,-0.6650524501418733,7.017766414027527,2.4488561904571484
-1.792032109234618,-0.5374072387073439,7.0422549759320985,2.484360017543646
-1.7974061816216915,-0.40899098886698115,7.067098576107535,2.521975047375155
-1.8014960915103613,-0.27999773526461114,7.092318326581286,2.5611641051290412
-1.8042960688630074,-0.1506419631050019,7.117929967632577,2.6013916014626948
-1.8058024884940573,-0.021152803953353283,7.143943883647204,2.642130670513739
-1.806014016533591,0.10823217203399713,7.170365190352341,2.682870819943987
-1.804931694813251,0.2372733862925215,7.197193898551781,2.7231257729887126
-1.8025589609503259,0.36573568720084815,7.224425156281668,2.762441155239516
-1.7989016040783175,0.4933945508993404,7.252049567834063,2.800401670844882
-1.793967658569324,0.620041802080692,7.280053584542512,2.8366374269098893
-1.7877672405485172,0.745490621622429,7.30841995881161,2.870829101822286
-1.7803123343322929,0.8695796380610024,7.337128249829833,2.902711711190028
-1.7716165379516828,0.9921759454314054,7.366155366941733,2.9320767997443196
-1.7616947784973689,1.1131769468000705,7.395476134939176,2.95877297265091
-1.7505630090293682,1.2325109855612277,7.425063864665685,2.982704767704837
-1.738237899173756,1.3501367893970095,7.454890912342733,3.0038299531960146
-1.7247365312797858,1.4660418091397645,7.484929211874693,3.0221554079811774
-1.7100761131883881,1.5802395820165924,7.5151507659545045,3.0377317952956986
-1.6942737173682223,1.6927662827774657,7.545528083907461,3.0506472770896207
-1.6773460545404477,1.803676645605829,7.576034556678358,3.0610205305270757
-1.6593092880843894,1.9130394447620462,7.606644761983628,3.0689933242492646
-1.640178893636769,2.0209327143038154,7.637334695226121,3.074722892249193
-1.6199695664937308,2.127438869641453,7.668081924148613,3.0783743119746396
-1.5986951777973162,2.2326398693096055,7.698865667268359,3.0801130551967826
-1.57636877910422,2.336612527424999,7.729666797820327,3.080097839713274
-1.55300265382997,2.4394240588141485,7.760467776217459,3.078473870953695
