th1 (rad),w1 (rad/s),th2 (rad),w2 (rad/s)
5.838587124803758,0.8388317084433267,5.806839984898746,-2.7063622122673126
5.846975441888191,0.8756314221600535,5.779776362776072,-2.6979836620680135
5.855731756109792,0.9057357022719732,5.752796526155392,-2.680228539515204
5.864789113132512,0.9292079774563964,5.72599424076024,-2.6531584891155
5.874081192907076,0.946269040173104,5.699462655869085,-2.617038120292758
5.883543883308808,0.9572824690781164,5.673292274666157,-2.5723172912695125
5.893116707999589,0.9627300130197896,5.647569101753462,-2.5195998931035537
5.902744008129787,0.9631803112994914,5.622373102822427,-2.4596036276141042
5.912375811242781,0.9592549340598362,5.597777066546286,-2.393116109979698
5.92196836058338,0.9515955182518516,5.573845905446489,-2.3209523534500116
5.931484315765898,0.9408349387057888,5.550636381911989,-2.243917568590254
5.940892665152956,0.9275743080002893,5.5281972062260865,-2.1627776653943096
5.950168408232958,0.912366457807549,5.506569429572143,-2.0782383114120018
5.959292072811034,0.8957056382770499,5.485787046458023,-1.9909321708573937
5.968249129193804,0.8780225766150112,5.46587772474945,-1.9014131568788957
5.977029354959955,0.8596837533381727,5.446863593180661,-1.8101561590418467
5.985626192493337,0.8409937160360341,5.428762031590242,-1.7175606659396647
5.994036129653697,0.8221993680138203,5.411586424930846,-1.6239568688572075
6.002258123333835,0.8034953636890546,5.3953468562422735,-1.5296130991899546
6.010293076970726,0.7850299560351276,5.380050725250374,-1.434743741763039
6.018143376531077,0.7669108383293461,5.365703287832744,-1.339517031165104
6.02581248491437,0.7492106860072034,5.352308117521093,-1.24406235656007
6.033304591774442,0.7319722300681379,5.339867493955492,-1.1484768668044287
6.0406243140751235,0.7152127838818089,5.328382725287448,-1.0528312862127387
6.047776441913942,0.6989282063055667,5.317854412425321,-0.9571749303158842
6.054765723976997,0.6830963224316182,5.308282663122163,-0.8615399596996066
6.061596687201313,0.6676798452082306,5.2996672635251665,-0.7659449369366025
6.068273485653395,0.6526288517294253,5.2920078141558005,-0.6703977636578231
6.07479977417069,0.6378828710940994,5.285303836519223,-0.5748980772372058
6.081178602881631,0.6233726392673565,5.27955485574685,-0.4794391832173381
6.087412329274305,0.6090215723346286,5.274760463914677,-0.3840095931271566
6.093502544997651,0.5947470042601382,5.270920367983406,-0.2885942294859362
6.099450015040253,0.5804612296002651,5.268034425688547,-0.1931753516530274
6.105254627336255,0.5660723860977052,5.266102672172017,-0.09773324842491744
6.1109153511972325,0.5514852069861615,5.265125339687768,-0.0022467362572404365
6.116430203267094,0.5366016683141538,5.265102872325196,0.09330650413357522
6.121796219950236,0.5213215527075545,5.2660359373665315,0.18894972520378556
6.127009435477311,0.5055429477403569,5.2679254346185695,0.2847070206927113
6.132064864954715,0.4891626944540818,5.270772504825497,0.3806033243769262
6.136956491899255,0.4720767995330623,5.2745785380692665,0.4766644819061862
6.1416772598945855,0.4541808231847283,5.279345182888329,0.5729173798162799
6.146219068126433,0.4353702538821869,5.285074356686492,0.6693901166803415
6.150572770665255,0.4155408808099224,5.291768257853295,0.7661122014337529
6.154728179473354,0.3945891751440042,5.299429379867633,0.8631147631555927
6.158674071224794,0.3724126922546277,5.308060527499189,0.9604307549414716
6.16239819814734,0.34891050863192435,5.317664835048604,1.0580951318441298
6.165887303233659,0.3239837099340048,5.328245786367045,1.1561449790228013
6.169127140332999,0.29753595021097157,5.339807236157273,1.2546195610018869
6.172102499835109,0.269474107292251,5.352353431767292,1.3535602559935287
6.174797240908031,0.23970906581594575,5.365889034327227,1.4530103302037134
6.177194331566191,0.20815666776857156,5.380419137629264,1.5530144954413334
6.179275898243876,0.17473888109432134,5.395949282583677,1.6536181786108515
6.18102328705482,0.13938525038116242,5.4124854643697855,1.7548664131283063
6.182417139558631,0.10203471032000122,5.4300341285010685,1.8568022392332484
6.183437486661831,0.06263786301563806,5.448602150893401,1.959464471861777
6.1840638652919875,0.02115984461545225,5.468196795612019,2.06288466063595
6.184275463738142,-0.022416064915159753,5.488825642218378,2.167083026461497
6.18405130308899,-0.06808390340824512,5.510496472482993,2.272063113916806
6.183370464054907,-0.11580934106360166,5.533217103622161,2.377804850364711
6.1822123706442715,-0.16552259923213783,5.5569951521258085,2.484255656583955
6.18055714465195,-0.21710970439300115,5.581837708691648,2.59131921926043
6.17838604760802,-0.2704018105603748,5.607750900884252,2.6988415294409904
6.175682029502417,-0.325162368113886,5.634739316178662,2.8065938398011054
6.172430405821277,-0.38107203435352266,5.662805254576672,2.9142523380076315
6.168619685477742,-0.437711453160051,5.691947777956749,3.0213746313000414
6.164242570946141,-0.4945424321495943,5.722161524269749,3.1273736634411984
6.1592971466246444,-0.5508886756027782,5.753435260904161,3.2314905232980875
6.153788259868617,-0.6059181382662345,5.7857501661371415,3.3327688237938617
6.147729078485955,-0.6586302483366333,5.81907785437508,3.4300349357356676
6.141142776002589,-0.7078525972192873,5.8533782037324364,3.5218902097611853
6.134064250030396,-0.7522529079555812,5.888597105830049,3.606723008170352
6.12654172095084,-0.7903726118584167,5.924664335911752,3.682749135920395
6.118637994832255,-0.8206873754731001,5.961491827270955,3.7480880042301483
6.110431121077524,-0.8416965803039064,5.998972707313257,3.800877419091218
6.102014155274485,-0.8520376664707969,6.036981481504169,3.8394217040949337
6.093493778609777,-0.850613138238436,6.075375698545118,3.862356925399108
6.0849876472273925,-0.8367102272360258,6.113999267799109,3.8688064599674683
6.076620544955032,-0.8100892765723813,6.152687332398783,3.8584948808365604
6.068519652189308,-0.7710200206207641,6.191272281207149,3.831792431979237
6.060809451983101,-0.7202556496509227,6.229590205526941,3.7896769458010957
6.053606895486592,-0.6589496015918219,6.267486974984952,3.733620413864584
6.047017399470674,-0.5885335704343161,6.3048231791235985,3.6654255713520754
6.04113206376633,-0.5105820663233952,6.3414774348371195,3.5870467750382886
6.036026243103096,-0.4266873277939115,6.377347902587502,3.5004269799768366
6.031759369825157,-0.3383607101322412,6.41235217238727,3.4073719271673797
6.028375762723835,-0.24696702283325037,6.446425891658944,3.3094694798216033
6.025906092495502,-0.15369025531859082,6.47952058645716,3.208051254013524
6.024369189942316,-0.05952439368744483,6.5116010989972954,3.1041874852800997
6.023773946005441,0.034718513877247004,6.542642973850096,2.998704222733995
6.024121131144214,0.1283902707246558,6.5726300160774365,2.8922129825121936
6.02540503385146,0.22098402184472088,6.601552145902558,2.785145342565735
6.027614874069908,0.3121111054804654,6.629403599328215,2.6777874915870252
6.030735985124712,0.40147950041633496,6.656181474244086,2.570311870000213
6.034750780128876,0.4888749628696914,6.681884592944088,2.4628045774107914
6.039639529757573,0.5741452001565205,6.706512638718196,2.3552882079534476
6.045380981759139,0.6571869908530749,6.73006552079773,2.2477403377837253
6.05195285166767,0.7379359388469882,6.752542924175567,2.1401081616637363
6.059332211056139,0.8163584623112552,6.773944005792204,2.0323198685645356
6.0674957956792515,0.8924456105894968,6.794267204477849,1.9242933385460206
6.076420251785146,0.9662083340797522,6.813510137863309,1.8159426864109722
6.086082335125944,1.0376738810586073,6.831669564727419,1.7071831027303919
6.09645907393653,1.1068830477235947,6.848741395754724,1.597934366901364
6.107527904413766,1.17388805669487,6.8647207394237375,1.4881233383508186
6.119266784980715,1.2387508817708124,6.8796019728072455,1.3776856741940198
6.131654293798423,1.3015418719606082,6.893378829549186,1.2665669752037672
6.144669712518029,1.3623385558803418,6.906044499301224,1.1547235261165156
6.1582930980768325,1.4212245291253058,6.917591734562389,1.0421227698379598
6.172505343368085,1.478288342981818,6.928012962260769,0.9287436366618171
6.187288226797904,1.5336223235459823,6.937300398627387,0.814576837945467
6.202624450033364,1.5873212566034007,6.945446167006842,0.6996252277526464
6.218497662599398,1.6394808760120034,6.952442419284369,0.5839043349305627
6.234892471359518,1.6901960922574604,6.958281462633674,0.46744317124014606
6.251794432282092,1.7395588937307165,6.962955894346075,0.35028542787128786
6.2691900212194,1.7876558465881955,6.966458748624788,0.2324911822540267
6.287066579685281,1.8345651104683391,6.968783660447328,0.11413924858066235
6.3054122307899645,1.8803528779007501,6.969925052933135,-0.004669682561673924
6.324215759568972,1.9250691366381443,6.969878356107518,-0.12380895989271093
6.343466450935353,1.968742649037842,6.968640266508591,-0.24312078226260891
6.363153877425732,2.011375045147573,6.966209058685965,-0.3624097509086712
6.383267627877207,2.052933942474004,6.962584961176878,-0.48143503565623774
6.403796967301947,2.09334504436352,6.957770610820316,-0.5999010856329916
6.424730417745582,2.1324832425370563,6.951771599963986,-0.7174469215803283
6.446055250170953,2.170162872931727,6.944597130748183,-0.8336342229463455
6.46775687890027,2.2061274653102223,6.9362607885187195,-0.9479346929405528
6.489818153553372,2.240039603182845,6.926781441589314,-1.0597175718933927
6.512218549585201,2.271471881511701,6.916184265870379,-1.1682386868432704
6.5349332684003185,2.2999004072032934,6.904501879001947,-1.2726330606865381
6.557932272472351,2.3247027881640303,6.891775548395081,-1.3719137954942138
6.581179300353992,2.345163001650362,6.87805641044014,-1.4649805517956846
6.6046309303704955,2.3604857502800822,6.863406604922183,-1.550641227712486
6.6282357878732965,2.3698226627665204,6.847900192645058,-1.6276500606094775
6.651934014500962,2.372311708841361,6.8316236920389635,-1.6947639572004531
6.675657131589376,2.3671292877819217,6.814676052466959,-1.750816150392057
6.699328424467195,2.3535516774122933,6.797167890963038,-1.7948023756314895
6.722863941241318,2.331019365351931,6.779219867206724,-1.8259703264645835
6.746174134894837,2.2991951468045344,6.7609601639420775,-1.8438994892686236
6.769166086362882,2.2580059161638597,6.742521169049391,-1.84855719183839
6.791746145524521,2.2076596905988595,6.7240355971310075,-1.840319067202553
6.81382274243051,2.148633629016886,6.705632406458982,-1.8199481774123174
6.8353090787206785,2.081634585781263,6.687432924684859,-1.788535240997577
6.856125424578491,2.007539224602262,6.669547572274883,-1.7474101531425925
6.876200816824514,1.9273241329615893,6.652073470743457,-1.6980397672295133
6.89547405815413,1.8419968376879328,6.635093073071162,-1.6419274865807747
6.913894026531009,1.7525364523277407,6.6186737982053545,-1.5805270729143635
6.931419391054287,1.6598490700248238,6.602868527476211,-1.5151779005963781
6.948017881754535,1.56473930768378,6.587716748470247,-1.447063597896362
6.963665274831373,1.4678965695792594,6.573246112491283,-1.3771919783779827
6.978344240527166,1.3698929948905285,6.559474192707503,-1.3063918882761405
6.992043170476071,1.2711895655310008,6.546410273824741,-1.2353219071301942
7.0047550661313815,1.1721471231804936,6.53405705475344,-1.164486232611315
7.016476537363187,1.0730396989102462,6.522412192427327,-1.0942540172976902
7.027206934352289,0.9740683075767353,6.51146965225435,-1.02487949592688
7.036947617428057,0.8753740332506089,6.501220857295081,-0.9565212059630449
7.045701357760563,0.7770497600496343,6.491655645235451,-0.8892593606326988
7.053471855361059,0.6791502758193799,6.4827630516291235,-0.8231109688961047
7.060263358119253,0.5817007161514649,6.474531941940162,-0.7580426423011858
7.066080365280768,0.4847034553919568,6.466951515517151,-0.6939812299749584
7.070927399834687,0.388143620569446,6.460011703217401,-0.6308225242373089
7.074808836040382,0.2919934287512971,6.453703477975028,-0.568438316351932
7.077728770327894,0.1962155466865398,6.448019094811509,-0.5066820811100329
7.079690925794759,0.10076565628113918,6.442952274000409,-0.44539354823998306
7.080698582357571,0.005594388502192765,6.438498338518009,-0.3844023895572533
7.080754526242593,-0.08935123345805251,6.434654314622437,-0.32353122025095765
7.079861013908013,-0.18412672080884135,6.431419002419927,-0.26259808465669576
7.078019746699924,-0.2787893112422196,6.428793021573361,-0.20141857331364088
7.0752318535875025,-0.37339733485810694,6.426778835840224,-0.1398076999726159
7.071497880238922,-0.468009670936686,6.4253807588404985,-0.07758165485844852
7.0668177835295545,-0.5626852170127155,6.424604942291914,-0.014559543989866974
7.061190931359428,-0.6574822919746532,6.424459346852015,0.0494347762382962
7.0546161084396815,-0.7524578909394588,6.424953694614398,0.11457065462047664
7.047091529530287,-0.8476667013225809,6.426099401160603,0.18100826473517853
7.038614862517061,-0.9431597766717479,6.427909483807955,0.2488957445756711
7.029183264750344,-1.0389827473323137,6.430398441253712,0.31836568785331865
7.018793437277021,-1.1351734249011975,6.433582098132245,0.38953078786061507
7.007441703028009,-1.2317586311614768,6.437477406010851,0.46247839837959753
6.9951241167163944,-1.328750053042469,6.442102189994647,0.5372637359846353
6.98183661618597,-1.4261388958374237,6.447474827354493,0.6139014082182582
6.967575227227596,-1.5238890825369888,6.453613841436676,0.6923549199431781
6.952336336402226,-1.6219287365353805,6.460537390636108,0.772523798453019
6.936117049036872,-1.7201397024791023,6.468262628620638,0.8542280072652282
6.918915652012081,-1.8183449276006696,6.476804908693291,0.9371894203301256
6.900732202736074,-1.9162936750126043,6.486176802896592,1.0210103476061454
6.881569265985948,-2.0136448128518265,6.496386906372654,1.1051494989123614
6.8614328178574295,-2.109948867926456,6.507438401361777,1.1888964152261234
6.840333329178165,-2.204630195805582,6.519327365514038,1.2713463502466582
6.8182870272201095,-2.2969715215567983,6.532040829016505,1.3513788781494542
6.795317312004541,-2.386104200751129,6.5455546177979995,1.4276450693054243
6.77145626999703,-2.4710086685526664,6.559831068491054,1.498569670042265
6.746746183311503,-2.5505303292858716,6.574816765191477,1.5623758360994036
6.7212408800186445,-2.623416023883846,6.590440523552471,1.617139794942612
6.695006719779806,-2.6883745094932756,6.606611921501897,1.6608803676730903
6.668122974684873,-2.744160558249693,6.623220725178628,1.691682801491655
6.640681369102376,-2.789676415430733,6.6401375531935445,1.707847964871531
6.612784604948069,-2.8240776339196008,6.65721603284226,1.7080483182322723
6.584543828608873,-2.84686508319075,6.674296516024582,1.6914645504212422
6.5560751777769655,-2.8579440145324657,6.691211161528795,1.6578753547853151
6.527495737631641,-2.8576361629275664,6.707789915076648,1.6076799712586933
6.498919376002365,-2.846641152818646,6.723866714789235,1.5418477071468482
6.470452964474179,-2.8259554361773036,6.739285191860703,1.4618057091455339
6.442193410112406,-2.7967660882895444,6.753903248952159,1.369289346875645
6.4142257492295105,-2.7603399255766794,6.767596142420915,1.266184251058616
6.386622349973743,-2.7179254348638526,6.7802579849315014,1.1543850428286027
6.359443095625105,-2.670678265879255,6.791801835359787,1.0356863752190129
6.332736312966312,-2.6196136777228474,6.802158699111978,0.9117115136239214
6.306540176189084,-2.565583663251166,6.811275814248217,0.7838756078388328
6.2808843395565725,-2.5092733737145987,6.8191145703266045,0.6533763216268997
6.255791605819427,-2.451210640800363,6.8256483335428735,0.5212032121756442
6.231279499411423,-2.3917830336654804,6.83086036566463,0.38815806716049794
6.207361669074769,-2.3312581822732223,6.834741946336234,0.2548801722864005
6.184049087252037,-2.269804476959693,6.8372907480590985,0.12187239339438072
6.16135104248244,-2.2075104216026604,6.838509471993042,-0.010474409109914207
6.139275938266413,-2.1444017780072264,6.838404727901943,-0.1418599018401971
6.11783192048634,-2.080456207956933,6.836986128883541,-0.27205619370309875
6.097027358406771,-2.0156154580051235,6.8342655669465096,-0.40089311302967184
6.07687120382672,-1.9497953086582687,6.8302566358162125,-0.5282465529927265
6.057373250740137,-1.8828935820258994,6.824974170286286,-0.6540294777282071
6.0385443149198785,-1.8147965131636878,6.818433875509004,-0.7781851556618427
6.020396349788242,-1.7453837692154133,6.810652023952385,-0.9006822081807419
6.002942512096087,-1.6745323652990511,6.801645201870578,-1.0215111053528854
5.9861971884430965,-1.602119687580449,6.791430090817049,-1.1406817907355908
5.970175991567292,-1.528025797934687,6.780023272909693,-1.2582221661151787
5.954895733587945,-1.4521351638235056,6.767441051248541,-1.3741772101528997
5.9403743819497095,-1.3743379326335012,6.753699279147012,-1.488608540624707
5.926631002623375,-1.294530851970475,6.738813193740765,-1.6015942577019548
5.91368569410367,-1.2126179261784396,6.722797251163746,-1.7132289254920567
5.901559514841885,-1.1285108944876896,6.705664961908825,-1.8236235608666127
5.890274405897008,-1.0421296176774628,6.687428726300159,-1.9329055022628792
5.879853109720234,-0.953402468210478,6.66809967127753,-2.0412180260830515
5.870319085038129,-0.8622668340505647,6.6476874910167,-2.1487195634626977
5.861696416697623,-0.7686698698071056,6.6262002953820724,-2.25558234387392
5.854009717999552,-0.6725696618939376,6.603644471943333,-2.361990251968782
5.847284021380612,-0.5739370188958521,6.580024569423646,-2.4681356273251924
5.841544651191653,-0.47275815644707847,6.555343213150394,-2.5742146599244453
5.836817069627182,-0.3690386197521329,6.52960106655115,-2.6804209338090517
5.8331266834296605,-0.2628088777796842,6.50279685721306,-2.786936544879621
5.830498594651863,-0.1541321303458899,6.474927491764263,-2.893920066410568
5.828957273348404,-0.04311498728149166,6.445988291100157,-3.00149046408425
5.828526123475589,0.07007820695992578,6.4159733864593145,-3.1097058899826715
5.829226905545188,0.18520655042768785,6.384876327559488,-3.218536153119679
5.8310789710494655,0.30192842289706046,6.352690966028291,-3.32782765119529
5.834098255278436,0.4197713530542763,6.319412689516338,-3.4372597907583593
5.838295968808978,0.5380958348227947,6.285040091608755,-3.5462926384994162
5.843676927157206,0.6560541438755393,6.24957716522376,-3.654107048237454
5.850237468595962,0.7725471843867601,6.213036094741386,-3.7595411834244947
5.85796294043983,0.8861854662415587,6.1754406829071415,-3.861031553354845
5.866824795102246,0.9952644802273236,6.136830367373593,-3.956572435872391
5.876777439904519,1.0977694025574294,6.097264643014869,-4.043714073806793
5.887755133930093,1.1914275257037665,6.056827502276801,-4.119624999902836
5.899669409187131,1.2738259913252372,6.015631252277773,-4.181243018601968
5.912407669100383,1.3426033822710643,5.973818822091753,-4.225527333639134
5.925833702923094,1.3957040354155736,5.931563548755362,-4.2497975648031465
5.93979074327725,1.4316563327176672,5.88906557310733,-4.252107650564427
5.954107306604427,1.4498115451239753,5.846544496601686,-4.2315687087800145
5.968605422055666,1.450474096940166,5.804228809513885,-4.1885268805686175
5.983110163025068,1.4348781332908227,5.7623435407081995,-4.124534788148054
5.997458944357977,1.4050128898938639,5.721098192826719,-4.042120075188807
6.011509073256915,1.363347561886566,5.68067699207483,-3.9444199668123248
6.025142548875781,1.3125306360988094,5.641232792406707,-3.8347833828711684
6.038267855236769,1.2551306411870495,5.602884958577995,-3.716430682944309
6.050819161648639,1.1934560525795272,5.565720651748552,-3.5922210302729223
6.062753722174435,1.1294603412972757,5.5297984414458226,-3.4645342520624145
6.074048325587407,1.0647168495711257,5.495153098925198,-3.3352455172802036
6.084695494083118,1.0004401633035416,5.461800643752396,-3.2057607928711542
6.094699895716154,0.9375321459850806,5.429743035823684,-3.0770835164863413
6.104075217176005,0.8766365403780547,5.398972200658821,-2.949890992988978
6.112841582579786,0.8181922520599967,5.369473290728931,-2.824607552333735
