th1 (rad),w1 (rad/s),th2 (rad),w2 (rad/s),a1 (rad/s^2),a2 (rad/s^2)
2.918587806928064,1.4326751766301336,1.7203420538361651,0.0169963425306406,-0.8051255364759075,-7.485804659492164
2.9329145586943652,1.4246239212653744,1.7205120172614716,-0.05786170406428104,-0.7092225640167663,-7.54099973783669
2.947160797907019,1.4175316956252066,1.7199334002208289,-0.13327170144264794,-0.623602964320457,-7.589192376565196
2.961336114863271,1.4112956659820022,1.7186006832064025,-0.2091636252082999,-0.5482948489409147,-7.630950770858408
2.9754490715230912,1.405812717492593,1.7165090469543194,-0.285473132916884,-0.4833114066859363,-7.6668703190037775
2.9895071986980173,1.4009796034257336,1.7136543156251505,-0.36214183610692174,-0.428652524399995,-7.697575806810138
3.0035169947322746,1.3966930781817337,1.7100328972640813,-0.43911759417502316,-0.38430680778439996,-7.723723071636147
3.017483925514092,1.3928500101038896,1.705641721322331,-0.5163548248913846,-0.3502540086487116,-7.746000156896244
3.0314124256151307,1.3893474700174024,1.700478173073417,-0.5938148264603471,-0.32646785524295713,-7.765127983022604
3.045305900315305,1.386082791464973,1.6945400248088136,-0.6714661062905731,-0.31291927186570484,-7.781860575031843
3.059166728229955,1.382953598746316,1.687825363745908,-0.7492847120408915,-0.30957996319426667,-7.796984899221513
3.072996264217418,1.3798577991143732,1.680332516625499,-0.8272545610331067,-0.31642632809334087,-7.8113203712548325
3.086794842208562,1.3766935358334398,1.672059971015168,-0.9053677647456551,-0.3334436572731805,-7.825718104167737
3.100561777566896,1.3733590992607079,1.6630062933677114,-0.9836249457873324,-0.3606305591826442,-7.841059966892247
3.114295368559503,1.3697527936688814,1.653170043909838,-1.062035545456255,-0.39800354884025174,-7.858257521038957
3.127992896496192,1.3657727581804788,1.6425496884552755,-1.1406181206666444,-0.4456017246050955,-7.878250895275175
3.1416506240779967,1.3613167409344278,1.6311435072486091,-1.2194006296193962,-0.5034914475876359,-7.902007642046123
3.155263791487341,1.3562818264585514,1.618949500952415,-1.2984207060398574,-0.5717709266286548,-7.930521599948143
3.168826609751927,1.3505641171922649,1.6059652938920166,-1.3777259220393387,-0.650574597344529,-7.9648117559894995
3.1823322509238494,1.3440583712188197,1.5921880346716233,-1.4573740395992338,-0.740077165106982,-8.005921064261472
3.1957728346360375,1.3366575995677499,1.577614294275631,-1.5374332502418486,-0.8404971570567764,-8.05491512984478
3.209139410631715,1.328252627997182,1.5622399617732126,-1.6179824015402964,-0.9520997949511707,-8.112880607266833
3.2224219369116867,1.3187316300476704,1.5460601377578096,-1.6991112076129646,-1.0751989558945798,-8.180923089037128
3.2356092532121634,1.3079796404887245,1.52906902568168,-1.780920438503336,-1.2101579282620007,-8.26016416844213
3.2486890496170506,1.2958780612061045,1.5112598212966466,-1.8635220801877572,-1.3573885911275467,-8.35173724760193
3.2616478302291116,1.282304175294829,1.492624600494769,-1.9470394526637764,-1.5173485421400987,-8.456781521325752
3.27447087198206,1.267130689873428,1.4731542059681313,-2.031607267877034,-1.6905355649664193,-8.576433392754408
3.287142178880794,1.250225334223764,1.452838133289361,-2.117371601804578,-1.8774786560312346,-8.711814359893344
3.2996444322230314,1.2314505476634516,1.431664417271315,-2.2044897454035115,-2.078724613178136,-8.864014143211879
3.311958937699666,1.2106633015316703,1.40961951981728,-2.2931298868356302,-2.294818917072685,-9.034067492568628
3.324065570714983,1.1877151123609435,1.3866882209489237,-2.3834705617613166,-2.526279300366372,-9.2229227052382
3.335942721838592,1.1624523193572798,1.3628535153313106,-2.4756997888136985,-2.773559991277791,-9.431399394798927
3.347567245032165,1.1347167194445018,1.3380965174431736,-2.570013782761688,-3.037004131475162,-9.660132465077663
3.35891441222661,1.1043466781297502,1.3123963796155567,-2.6666151074124644,-3.3167813032025535,-9.909498563185887
3.3699578790079077,1.0711788650977248,1.285730228541432,-2.7657100930443232,-3.612806469363409,-10.179520523471698
3.3806696676588848,1.0350508004040906,1.2580731276109889,-2.86750529827904,-3.92463596504584,-10.469744506633438
3.3910201756629257,0.9958044407536322,1.2293980746281985,-2.9722027433453744,-4.251335545777651,-10.77908376221436
3.400978220070462,0.9532910852958557,1.1996760471947447,-3.079993580967518,-4.591315015985486,-11.105622339166832
3.4105111309234206,0.9073779351360008,1.1688761113850696,-3.1910498043591864,-4.942123830846779,-11.446371876698294
3.419584910274781,0.8579566968275331,1.1369656133414778,-3.3055135231261694,-5.300202603338872,-11.796975207246321
3.428164477243056,0.8049546707941444,1.103910478110216,-3.423483275198633,-5.660587134809943,-12.151352473966304
3.4362140239509973,0.7483487994460449,1.0696756453582297,-3.544996799938296,-6.0165651090785435,-12.50128964201933
3.443697511945458,0.6881831483552595,1.0342256773588467,-3.6700096963584894,-6.359291876125332,-12.835976802935578
3.4505793434290104,0.6245902295940062,0.9975255803952618,-3.798369464387845,-6.677381962114963,-13.141515964106151
3.4568252457249504,0.5578164099728566,0.9595418857513834,-3.9297846240289065,-6.956508355922576,-13.400436672079753
3.462403409824679,0.4882513264136309,0.9202440395110943,-4.063788990749704,-7.179063327251089,-13.5912842224264
3.4672859230888156,0.41646069314112,0.8796061496035973,-4.199701832973968,-7.323962799931548,-13.688379773888201
3.4714505300202267,0.3432210651418045,0.8376091312738576,-4.33658563071285,-7.366709514034603,-13.661892531256946
3.474882740671645,0.2695539700014585,0.7942432749667291,-4.473204556025419,-7.279863270023473,-13.478405170045203
3.4775782803716595,0.19675533730122374,0.7495112294064749,-4.607988607725871,-7.034089040599855,-13.10218217271842
3.479545833744672,0.12641444689522519,0.7034313433292161,-4.739010429453056,-6.599948559874274,-12.497345774269155
3.480809978213624,0.06041496129648244,0.6560412390346855,-4.863983887195747,-5.950545127535318,-11.631097397773475
3.481414127826589,0.0009095100211292534,0.607401400162728,-4.980294861173482,-5.065001159383674,-10.477964491393148
3.4814232229268,-0.049740501572707485,0.5575984515509932,-5.085074506087413,-3.9325313798628225,-9.024788288038796
3.480925817911073,-0.0890658153713357,0.506747706490119,-5.1753223889678015,-2.556589532525699,-7.275818943475021
3.4800351597573598,-0.1146317106965927,0.454994482600441,-5.2480805784025515,-0.9582795556291075,-5.256932139655604
3.478888842650394,-0.12421450625288377,0.4025136768164155,-5.300649899799107,0.821948868958004,-3.017770094994915
3.4776466975878653,-0.11599501756330373,0.3495071778184244,-5.330827600749056,2.725217280779506,-0.6307095821495936
3.476486747412232,-0.08874284475550867,0.29619890181093383,-5.337134696570552,4.678218455832166,1.8139216661729354
3.4755993189646768,-0.04196066019718701,0.2428275548452283,-5.318995479908823,6.60004388379333,4.216075204551475
3.475179712362705,0.024039778640746294,0.18963760004614008,-5.276834727863308,8.410769420300849,6.476365791475748
3.4754201101491127,0.10814747284375478,0.136869252767507,-5.212071069948551,10.040145412671377,8.506609332005077
3.4765015848775502,0.20854892697046856,0.08474854206802149,-5.1270049766285,11.434647830831498,10.238409553120935
3.478587074147255,0.3228954052787836,0.03347849230173648,-5.024620881097291,12.561609550041998,11.628248640632785
3.481816028200043,0.44851150077920354,-0.016767716509236426,-4.908338394690963,13.409973956743956,12.658527580514033
3.486301143207835,0.5826112403466431,-0.06585110045614606,-4.781753118885823,13.988062959818139,13.335019655526311
3.4921272556113014,0.7224918699448245,-0.11366863164500429,-4.64840292233056,14.319333470225766,13.681894035436844
3.49935217431075,0.8656852046470822,-0.1601526608683099,-4.511583981976192,14.437283617598627,13.735688107062018
3.508009026357221,1.0100580408230684,-0.20526850068807181,-4.374227100905571,14.38051571094533,13.539424078396896
3.5181096067654516,1.1538631979325218,-0.24901077169712754,-4.238832860121603,14.188622053232878,13.137662771075787
3.5296482387447767,1.2957494184648506,-0.2913991002983436,-4.107456232410845,13.899191699230657,12.572853898086915
3.542605732929425,1.4347413354571572,-0.33247366262245204,-3.981727693429976,13.545945318573095,11.882999480705896
3.556953146283997,1.5702007886428881,-0.3722909395567518,-3.862897698622917,13.157828930128153,11.100438607412807
3.572655154170426,1.7017790779441697,-0.410919916542981,-3.751893312548789,12.758825047564763,10.251474973258413
3.5896729449498674,1.8293673284198173,-0.44843884966846886,-3.6493785628162048,12.368239896717396,9.356566339932632
3.6079666182340655,1.9530497273869913,-0.4849326352966309,-3.5558128994168783,12.001264311823423,8.430838236765144
3.6274971155079356,2.073062370505226,-0.5204907642907997,-3.471504517049227,11.669658194786443,7.484743284158473
3.648227739212988,2.18975895245309,-0.5552058094612919,-3.396657084207642,11.382458638330611,6.52474457188861
3.670125328737519,2.303583538836396,-0.5891723803033684,-3.331409638488756,11.146652855365375,5.553948229854013
3.693161164125883,2.41505006739005,-0.622486476688256,-3.2758701561902157,10.967787167697995,4.572644544345078
3.7173116647997837,2.52472793906703,-0.6552451782501582,-3.230143710746765,10.850503537183425,3.578739819988405
3.742558944190454,2.6332329744388643,-0.6875466153576258,-3.194356312546881,10.799007585025599,2.5680750725874657
3.768891273934843,2.74122305028912,-0.7194901784830947,-3.168675561821006,10.817478929016941,1.5346351515925316
3.796303504437734,2.8493978395792894,-0.7511769341013048,-3.1533292103050807,10.910437772647816,0.4706553344275691
3.8247974828335267,2.9585022173057673,-0.7827102262043556,-3.148622656960805,11.083082240019545,-0.6333662620378567
3.8543825050065843,3.069333039705963,-0.8141964527739637,-3.1549563195811836,11.341609581635712,-1.7887412365716233
3.885075835403644,3.18274913552232,-0.8457460159697755,-3.1728437319469,11.693531000485047,-3.008736960860847
3.916903326758867,3.2996844455271703,-0.8774744532892444,-3.2029311015555084,12.147983494115635,-4.308778616024328
3.949900171214139,3.421164280468327,-0.9095037643047995,-3.246018887715752,12.716030447847535,-5.70667589471711
3.984111814018822,3.548324584946802,-0.941963953181957,-3.303085646662923,13.410921113625317,-7.222814627450891
4.01959505986829,3.682433796083055,-0.9749948096485863,-3.375313792937432,14.248238817423513,-8.880197969536814
4.05641939782912,3.8249161842572903,-1.0087479475779606,-3.4641157726328,15.245792541524873,-10.70411597257092
4.0946685596716925,3.977374109672539,-1.0433891053042885,-3.5711569323585093,16.422966801009284,-12.72102451705936
4.134442300768418,4.141603777682632,-1.0791006746278735,-3.6983671775291027,17.798987501190094,-14.955850032043779
4.175858338545244,4.319593652694533,-1.1160843464031645,-3.8479256778495405,19.389095915812685,-17.426277406045198
4.21905427507219,4.51348461185266,-1.15456360318166,-4.022188451909993,21.19680685572527,-20.131425370048174
4.264189121190716,4.725452680409913,-1.19478548770076,-4.223502705610475,23.199084085949703,-23.03041995594901
4.311443647994815,4.95744352126941,-1.2370205147568647,-4.453806905169965,25.319343633904012,-26.003673825530765
4.361018083207509,5.21063695760845,-1.2815585838085644,-4.713843643425273,27.381397238583936,-28.78717096116011
4.4131244527835936,5.484450929994289,-1.328697020242817,-5.001715353036874,29.03913128841745,-30.872500618387896
4.467968962083536,5.774842242878464,-1.3787141737731858,-5.310440359220753,29.692088955097386,-31.3872193980148
4.525717384512321,6.071763132429437,-1.4318185773653933,-5.624312553200902,28.447138719769328,-29.04095726065662
4.586435015836615,6.35623451962713,-1.4880617028974024,-5.914722125807468,24.28438747498141,-22.361332940358977
4.649997361032887,6.599078394376945,-1.547208924155477,-6.138335455211058,16.639480172144896,-10.520330258194942
4.715988144976657,6.765473196098394,-1.6085922787075875,-6.243538757793007,6.298721732822506,5.393855902065865
4.783642876937641,6.828460413426619,-1.6710276662855175,-6.189600198772348,-4.309821079832698,21.95427980815886
4.8519274810719075,6.785362202628292,-1.732923668273241,-5.970057400690759,-12.383256716977955,35.17488852425308
4.919781103098191,6.661529635458512,-1.7926242422801486,-5.618308515448229,-16.571400386423377,43.095671452003984
4.986396399452776,6.4958156315942785,-1.8488073274346308,-5.187351800928189,-17.338982246842185,46.3149715322411
5.051354555768719,6.322425809125857,-1.9006808454439128,-4.7242020856057785,-15.943789893290496,46.56671656801732
5.1145788138599775,6.162987910192952,-1.9479228662999706,-4.258534919925605,-13.508601125763,45.415049360736035
5.176208692961907,6.027901898935323,-1.9905082154992266,-3.8043844263182445,-10.738713230954277,43.849180060725025
5.236487711951261,5.92051476662578,-2.028552059762409,-3.3658926257109942,-7.996360424998118,42.3800498546955
5.295692859617518,5.840551162375799,-2.0622109860195192,-2.942092127164039,-5.438818754343527,41.22914033271718
5.354098371241276,5.786162974832363,-2.0916319072911596,-2.529800723836867,-3.119265291918361,40.4671228470668
5.4119600009896,5.75497032191318,-2.1169299145295284,-2.125129495366199,-1.0444150350542238,40.092986496446784
5.469509704208732,5.7445261715626375,-2.1381812094831902,-1.724199630401731,0.7960242586692203,40.07412103251814
5.526954965924358,5.752486414149329,-2.1554232057872076,-1.3234584200765496,2.4152812429874286,40.365022856866794
5.584479830065852,5.776639226579204,-2.168657789987973,-0.9198081915078816,3.8232171281371725,40.915237059671036
5.642246222331644,5.814871397860576,-2.1778558719030516,-0.5106558209111712,5.023802526400722,41.67217798979677
5.70039493631025,5.865109423124583,-2.1829624301121635,-0.09393404101320352,6.014421579545488,42.58169101266299
5.759046030541496,5.925253638920037,-2.1839017705222954,0.3318828691134264,6.786093997509312,43.58779453101237
5.818298566930697,5.99311457889513,-2.1805829418311613,0.7677608144235502,7.324218128394091,44.63233777737732
5.878229712719648,6.0663567601790715,-2.1729053336869257,1.2140841921973233,7.609677578194638,45.65496098517553
5.938893280321438,6.1424535359610175,-2.1607644917649527,1.6706338020490787,7.620252852360131,46.593559320701836
6.000317815681049,6.218656064484619,-2.144058153744462,2.136569395256097,7.3323044560160335,47.38533522114678
6.0625043763258954,6.291979109044779,-2.122692459791901,2.610422747467565,6.72267992146442,47.96843170569145
6.125424167416344,6.3592059082594234,-2.096588232317225,3.0901070645244797,5.770765971809394,48.28405680878151
6.1890162264989375,6.4169135679775176,-2.0656871616719803,3.5729476326122946,4.460574765932461,48.27893845517072
6.253185362178713,6.461519315636842,-2.0299576853458574,4.0557370171640015,2.782732946531015,47.90790055352974
6.317800555335081,6.489346645102152,-1.9894003151742174,4.534816022699299,0.7362424694340387,47.13633667254835
6.382694021786103,6.496709069796493,-1.9440521549472245,5.006179389424782,-1.670095857885384,45.9423829449426
6.4476611124840675,6.480008111217639,-1.8939903610529767,5.465603218874207,-4.416669136877397,44.31865061812373
6.512461193596244,6.435841419848865,-1.8393343288642345,5.908789725055445,-7.4724871663173476,42.27345191736105
6.576819607794732,6.3611165481856915,-1.7802464316136801,6.331524244229055,-10.795085453110676,39.83151372316288
6.640430773276589,6.2531656936545845,-1.7169311891713896,6.729839381460684,-14.330928014340868,37.034197349948535
6.702962430213135,6.109856413511176,-1.6496327953567829,7.100181354960169,-18.016379705871085,33.9392187780892
6.764060994348246,5.929692616452465,-1.578630981807181,7.439573542741061,-21.779363996884328,30.619803531380725
6.823357920512771,5.711898976483622,-1.5042352463797706,7.745771578054868,-25.541844470582376,27.16314770542401
6.880476910277607,5.456480531777798,-1.4267775305992219,8.017403055109108,-29.223233042659047,23.668037233768704
6.935041715595385,5.164248201351207,-1.3466035000481307,8.254083427446796,-32.74471497209875,20.241540995711464
6.986684197608897,4.83680105163022,-1.2640626657736627,8.45649883740391,-36.03429872228297,16.994853239077887
7.035052208125199,4.47645806440739,-1.1794976773996235,8.626447369794688,-39.032190553421586,14.038591101974415
7.079816788769273,4.086136158873174,-1.0932332037016765,8.766833280814431,-41.695927924499436,11.478090753465397
7.120678150358005,3.6691768796281794,-1.0055648708935323,8.881614188349085,-44.004652835239646,9.409410993174632
7.157369919154287,3.2291303512757827,-0.9167487290100415,8.97570829828083,-45.962008296193375,7.91678130361482
7.189661222667045,2.769510268313849,-0.8269916460272332,9.054876111316979,-47.597389231729245,7.072101566763251
7.217356325350184,2.293536375996556,-0.7364428849140634,9.125597126984612,-48.96561033107442,6.936845922949751
7.240291689110149,1.8038802726858119,-0.6451869136442173,9.19496558621411,-50.145369184932626,7.566412454816639
7.2583304918370075,1.3024265808364857,-0.5532372577820762,9.270629710762277,-51.23707640527645,9.0166557763091
7.271354757645373,0.7900558167837212,-0.4605309606744534,9.360796268525368,-52.360591025349635,11.352037079409417
7.27925531581321,0.2664499065302248,-0.36692299798919975,9.474316639319461,-53.6530038916266,14.654372409736979
7.2819198148785125,-0.2700801323860411,-0.2721798315960051,9.620860363416831,-55.265567176040676,19.030099170514475
7.279219013554652,-0.8227358041464479,-0.17597122796183678,9.811161355121977,-57.356446237710834,24.611197226737794
7.270991655513187,-1.3963002665235562,-0.07785961441061702,10.057273327389355,-60.07034861622439,31.537753204300266
7.257028652847952,-1.9970037526858002,0.022713118863276538,10.372650859432358,-63.482973441151856,39.892556763254824
7.237058615321094,-2.631833487097319,0.12643962745760012,10.771576427064907,-67.45865002289074,49.51730273070265
7.21074028045012,-3.306419987326226,0.2341553917282492,11.266749454371935,-71.31062470393073,59.55710451297662
7.177676080576858,-4.019526234365533,0.34682288627196856,11.8623204995017,-73.0800690016776,67.4730285771279
7.137480818233203,-4.750326924382309,0.46544609126698555,12.53705078527298,-68.38711368195904,67.43844604105824
7.0899775489893795,-5.434198061201899,0.5908165991197154,13.211435245683562,-50.1052008567199,49.81056271899939
7.03563556837736,-5.935250069769098,0.722930951576551,13.709540872873557,-13.489427691615854,8.039745896829237
6.976283067679669,-6.0701443466852565,0.8600263603052866,13.78993833184185,31.562982719913634,-44.673509386828044
6.915581624212817,-5.75451451948612,0.997925743623705,13.343203237973569,62.77935374370893,-78.70377882553555
6.858036479017956,-5.126720982049031,1.1313577760034408,12.556165449718213,71.88369103145415,-83.78918277636483
6.806769269197466,-4.40788407173449,1.2569194305006228,11.718273621954564,68.16252157170658,-72.96740188872407
6.762690428480122,-3.7262588560174237,1.3741021667201685,10.988599603067323,60.88882673924963,-58.54698917991841
6.725427839919948,-3.117370588624927,1.4839881627508418,10.40312971126814,53.97634347878984,-45.39513578938901
6.694254134033699,-2.577607153837029,1.588019459863523,9.949178353374249,48.409534000185864,-34.51073311309591
6.668478062495328,-2.0935118138351703,1.6875112433972657,9.60407102224329,44.19049434199186,-25.68540448081908
6.647542944356976,-1.6516068704152516,1.7835519536196986,9.347216977435098,41.087451894883905,-18.48066311170255
6.6310268756528234,-1.2407323514664124,1.8770241233940497,9.162410346318072,38.85800684968596,-12.498725462406073
6.618619552138159,-0.8521522829695528,1.9686482268572303,9.037423091694011,37.30021306939044,-7.432643751368937
6.610098029308464,-0.47915015227564844,2.0590224577741703,8.963096654180323,36.25443488767052,-3.058638685674671
6.605306527785707,-0.11660580339894322,2.1486534243159734,8.932510267323575,35.59377989362573,0.7817321862232982
6.604140469751718,0.2393319955373141,2.237978526989209,8.940327589185808,35.2137693006113,4.197382572950114
