th1 (rad),w1 (rad/s),th2 (rad),w2 (rad/s)
4.7764878319182245,-2.7047901529008196,3.038518173843295,2.76205055786836
4.749439930389216,-2.638523987098843,3.0661386794219787,2.835132537952188
4.723054690518228,-2.576668694533082,3.0944900048015005,2.903867379109311
4.697288003572897,-2.518889649558321,3.1235286785925935,2.968870435614349
4.6720991070773135,-2.464879975884102,3.153217382948737,3.0307080648194047
4.647450307318472,-2.414359365216876,3.183524463596931,3.089900161517266
4.623306713666303,-2.3670722241014075,3.2144234652121035,3.146923036327272
4.59963599142529,-2.322785300651431,3.2458926955753764,3.2022122765103616
4.576408138418775,-2.281284870850266,3.27791481834048,3.2561652997366966
4.553595289710272,-2.2423735022013678,3.310476471337847,3.309143355349378
4.5311715546882585,-2.205866357809907,3.3435679048913407,3.3614727479232194
4.509112891110159,-2.1715869541564223,3.3771826323705727,3.413445058489209
4.4873970215685945,-2.1393622396060983,3.4113170829554647,3.4653161239268133
4.466003399172534,-2.109016818476016,3.445970244194733,3.517303509984411
4.4449132309877735,-2.080366110261735,3.481143279294577,3.569582185867713
4.4241095698851565,-2.053208212432566,3.5168391011532543,3.6222780905619767
4.403577487760831,-2.027314241104172,3.553061882058874,3.6754592927144083
4.3833043453497895,-2.0024169785547437,3.589816474986018,3.729124517866506
4.363280175564242,-1.9781977929430095,3.627107720164683,3.7831889950614763
4.343498197634812,-1.954272059549987,3.664939610115298,3.837467922808506
4.323955477039312,-1.930173760644166,3.703314289343383,3.8916584499224736
4.3046537394328706,-1.9053406276056413,3.7422308738426073,3.9453219864141116
4.285600333156814,-1.8791021390826326,3.7816840937067484,3.997869939370764
4.2668093117659875,-1.8506738432351955,3.821662793100456,4.048557529817743
4.2483025733336355,-1.8191626061310315,3.8621483683986333,4.096491884374331
4.230110947272325,-1.7835880282274492,3.903113287242377,4.140661463505953
4.212275066990051,-1.7429246733235428,3.9445199018774364,4.179993070043713
4.194845820256815,-1.6961670722349114,3.9863198325778737,4.213439019737831
4.177884149534466,-1.6424142142512428,4.0284542227752524,4.240089897057502
4.161460007391954,-1.5809630291005536,4.0708551217458275,4.259298512255162
4.1456503771009485,-1.5113934462739003,4.113448106868379,4.27079133481609
4.13053644263821,-1.4336245477509213,4.15615602021654,4.27473967965492
4.1162001971607,-1.3479251914420407,4.198903417013089,4.271768459698666
4.10272094524628,-1.2548734483530537,4.241621101610075,4.262895528033588
4.090172210762749,-1.155273379312257,4.284250056890412,4.2494140612326685
4.078619476969627,-1.0500488971860484,4.326744197502738,4.232745548341342
4.068118987997766,-0.9401380377535349,4.369071652986151,4.214295397915663
4.058717607620231,-0.8264064945526528,4.4112146069653075,4.195336579650975
4.050453542674704,-0.7095902219119496,4.453167972761817,4.176933998336738
4.043357640455585,-0.5902678166582499,4.494937312745185,4.1599097604140605
4.037454962289003,-0.46885727178710723,4.536536410349325,4.144841240415901
4.032766389571131,-0.3456292515072615,4.577984822753484,4.132080741202274
4.029310097056059,-0.22072936686023426,4.619305630165506,4.121786236498972
4.027102803387456,-0.09420366388383558,4.660523492530496,4.1139552486032
4.026160766748618,0.033976428002256975,4.701663045016528,4.108456823210439
4.026500531028641,0.1638917078623401,4.742747613248633,4.105058995260198
4.0281394481072645,0.2956561699748522,4.7837982032012345,4.103450837537641
4.031096009807013,0.42940137213925733,4.824832711576611,4.103259205384852
4.0353900235284055,0.5652638658272855,4.865865303630459,4.104060810306287
4.041042662186678,0.7033751991730524,4.906905911733522,4.105390451605632
4.048076414178409,0.843853992576882,4.947959816249578,4.106746248695781
4.056514954104178,0.9867996457387989,4.989027278736536,4.107592641772791
4.066382950561565,1.1322873227189523,5.030103205154264,4.1073618217988415
4.077705823788755,1.2803639551467156,5.0711768233722525,4.105454142499907
4.090509463340222,1.431045091641173,5.1122313647972515,4.101237971090784
4.104819914256634,1.5843124992210458,5.153243744508159,4.09404935487946
4.120663039248845,1.7401124887714277,5.194184238056954,4.083191816900059
4.1380641641365585,1.8983549917980942,5.235016156225954,4.06793654200415
4.157047714054539,2.0589134604659507,5.2756955216459955,4.047523171202522
4.177636848659199,2.2216256979126685,5.316170753358021,4.021161382135251
4.199853105638326,2.3862957513703864,5.356382367179373,3.988033393230791
4.22371606315203,2.552697016714257,5.396262701111681,3.9472974847084035
4.249243033319172,2.720576709460278,5.435735675958765,3.8980925779759525
4.276448800413775,2.8896618536745473,5.474716601738524,3.8395438537860405
4.3053454189505205,3.05966692660233,5.5131120402763845,3.770769317217745
4.335942088216544,3.2303032733269132,5.550819733448562,3.6908871336852793
4.368245120949813,3.4012903732716526,5.587728604785415,3.599023465537302
4.40225802468253,3.572369000490296,5.623718839440788,3.494320435681897
4.4379817146874325,3.7433162749566864,5.658662043797607,3.3759437370407412
4.475414877436999,3.9139625558050906,5.692421481168014,3.2430893004432484
4.5145545029950505,4.084210083573161,5.724852374172447,3.094988337029055
4.555396603830782,4.254053240720522,5.755802257542737,2.9309099953373634
4.597937136237987,4.4236002703753154,5.7851113574961115,2.750160832823602
4.64217313894174,4.593096271005965,5.812612965824347,2.5520803171982287
4.6881041016518,4.762947260387592,5.83813376899633,2.33603167533351
4.735733574255676,4.933745051987169,5.861494085749665,2.101387645208082
4.785071024775547,5.106292559991528,5.882507962201745,1.8475111417606103
4.836133950375462,5.2816288464119685,5.900983073619352,1.5737316657698461
4.888950238839582,5.461052558563891,5.91672039027705,1.2793197280299853
4.9435607644252215,5.6461410344171545,5.92951358755735,0.9634641064325782
5.000022174769393,5.838759652317456,5.939148228621677,0.6252612690790433
5.058409771292568,6.041050848403982,5.945400841312467,0.2637343438504753
5.118820279776608,6.255382646332146,5.948038184750972,-0.12208666125203438
5.181374106239929,6.484219214362832,5.946817318138452,-0.5329664775020645
5.246216298383557,6.729845778890797,5.941487653363431,-0.9690480442268037
5.313514756172466,6.9938310319101165,5.931797172921163,-1.429048706303245
5.383453066491567,7.276040510021383,5.917506685858131,-1.9088039284078104
5.456213471591781,7.572949036935962,5.8984186465740525,-2.3988076338718702
5.53194296196114,7.875049893200161,5.874430570235334,-2.880483869503957
5.610693460893142,8.163631746888361,5.845625731540294,-3.321624246559762
5.6923297783620255,8.408622948313836,5.812409489074697,-3.673494042951286
5.776416007845164,8.571593641924933,5.775674548645184,-3.8755389686694097
5.862131944264413,8.618438782357407,5.73691915895849,-3.87421100980234
5.9483163320879875,8.538501965327667,5.698177048860467,-3.651226895135291
6.033701351741264,8.353938970902277,5.661664779909114,-3.237820907737009
6.117240741450287,8.1073185937204,5.629286570831744,-2.697319599211297
6.198313927387491,7.8395894478956585,5.602313374839631,-2.0930753535293904
6.276709821866447,7.5776006133066085,5.581382621304337,-1.4695755248980127
6.352485827999513,7.333983768535431,5.566686866055357,-0.8513936119539015
6.425825665684868,7.111957572017875,5.558172929935818,-0.24961282216847547
6.496945241405046,6.909764539327571,5.555676801714133,0.33194767594382535
6.566042886798322,6.723442142800172,5.558996278473572,0.892742768847933
6.633277308226324,6.54827815794211,5.567923706162051,1.4333668962597355
6.698760089805745,6.379503001923857,5.582257375124648,1.9545392877164343
6.762555119824984,6.212597172188505,5.6018027680018125,2.4566860925232996
6.824681091546869,6.043421318547229,5.626369628927046,2.939823520375781
6.8851153047323415,5.868271515484863,5.655767864130803,3.403588721538284
6.94379801988719,5.683906399137235,5.6898037513461865,3.8473413854340737
7.000637083878562,5.487564813830318,5.728277165200527,4.270296927064825
7.055512732016865,5.27697905216959,5.770980134471175,4.671670210094689
7.108282522538561,5.050382534055405,5.817696836572122,5.050817228162482
7.158786347879115,4.806508307385984,5.868205008853748,5.407366275375045
7.206851430952975,4.54457433530551,5.922278671607498,5.741332486327641
7.2522971743060305,4.264252289305492,5.979691996470774,6.053211450576122
7.294939697199085,3.965618007477254,6.040224110976536,6.344049418811296
7.334595877273858,3.6490835844905156,6.103664605164648,6.615489528291012
7.371086713118763,3.315313003849335,6.1698195004475584,6.869795349942273
7.4042398431572565,2.9651251582422726,6.238517453946981,7.109854596025775
7.433891094739679,2.599390021811741,6.309615999907239,7.339166568551735
7.459884994957797,2.2189258691068523,6.383007665592756,7.56181621154232
7.482074253648865,1.8244084157578309,6.458625827708179,7.78243442169384
7.500318337806443,1.4163079031101005,6.536450171925117,8.00613681369865
7.514481416837544,0.9948799175401383,6.6165115400621035,8.238418276580846
7.524430216012945,0.56025442266489,6.698895722827912,8.484952753925178
7.530032760239594,0.11270205429383406,6.783745250367163,8.751197232957415
7.531159780782533,-0.3467833681557564,6.871257222696737,9.041612427956329
7.527691947100975,-0.8153558631198616,6.9616733469763,9.358180014115804
7.519538388469777,-1.2863127471316655,7.0552551471174585,9.697746533583574
7.506675260998461,-1.7459160095598598,7.152232612453294,10.04773972956162
7.489216100902862,-2.169330142616709,7.252710009748911,10.380569869727248
7.467522799476695,-2.5179339940109697,7.356515708446183,10.649683512455395
7.442343459536586,-2.74373733581045,7.463012543570738,10.79499856317419
7.4149060861784815,-2.8071122076359813,7.57096252920248,10.76619908236488
7.386834964102122,-2.7018538907143634,7.678624520026129,10.555871432106152
7.359816425194978,-2.463510378188227,7.78418323434719,10.210105749006685
7.335181321413096,-2.1483951013968947,7.886284291837257,9.800191683235347
7.313697370399127,-1.8056352560429798,7.9842862086696105,9.386060870869915
7.2956410178386975,-1.4655660588574335,8.07814681737831,9.002201304092194
7.280985357250123,-1.1425168869031594,8.168168830419232,8.662419414638478
7.269560188381091,-0.8412669299684408,8.254793024565616,8.368827515084611
7.261147519081407,-0.5619314936282842,8.338481299716463,8.11831624503066
7.255528204145125,-0.3027092074622966,8.41966446216677,7.906026357183603
7.252501112070502,-0.061218673806057666,8.498724725738606,7.726930793605556
7.251888925332441,0.16491464423940397,8.575994033674661,7.576453579163955
7.253538071774835,0.3778323541335398,8.6517585694663,7.45064927244678
7.25731639531617,0.5793799879196453,8.726265062190768,7.34619967603554
7.263110195195367,0.7711125035734352,8.799727058951124,7.260344694788777
7.270821320231101,0.9543252609051286,8.872330505899011,7.190797550235791
7.280364572840152,1.1300914613587867,8.944238481401369,7.135664238811766
7.29166548745374,1.2992981964385808,9.015595123789486,7.0933738282876355
7.304658469418126,1.462678282811964,9.086528862072363,7.062620630893691
7.319285252246245,1.620837249845962,9.1571550683813,7.042317173499406
7.3354936247447045,1.774275725111085,9.227578240116294,7.031556249487122
7.353236381995815,1.9234077532209326,9.297893802611165,7.029580305776461
7.372470459528024,2.068575617125294,9.36818960566893,7.035756604595172
7.393156215699277,2.2100616624930103,9.43854717171488,7.049556837908745
7.415256832324207,2.3480975245695532,9.509042740093967,7.070540097322229
7.438737807569903,2.4828710529115017,9.57974814106719,7.098338291875377
7.463566518099018,2.614531134545662,9.650731523985945,7.1326432569799305
7.489711829444475,2.743190534126378,9.722057956555744,7.173194913373649
7.517143734785739,2.8689268010018285,9.793789905689481,7.219769921141224
7.545833002795757,2.9917812371554393,9.865987604900893,7.272170336572129
7.575750815167312,3.1117558762882847,9.938709308266613,7.3302118245670425
7.606868373930195,3.2288083931420477,10.012011426512284,7.393711011913955
7.639156457861615,3.342844845045944,10.085948536631424,7.462471592669023
7.672584906312075,3.453710147788507,10.160573252558114,7.536268822550304
7.70712200778996,3.5611762106037883,10.235935940783618,7.614832072746672
7.742733769895998,3.6649277083510605,10.312084261511085,7.697825165452153
7.779383046979508,3.7645455641090826,10.389062513165607,7.784824297884912
7.817028502620599,3.8594883672411107,10.466910756144456,7.875293497153623
7.8556233862930105,3.949072178856972,10.545663691115992,7.968557758809842
7.8951141080815805,4.032449499304775,10.62534926870409,8.063774335858312
7.935438603074628,4.1085886113648336,10.705987012062673,8.159903093882903
7.976524489188276,4.176255082837806,10.787586043001502,8.255677461215424
8.018287040016654,4.233997912411742,10.870142817613656,8.349578298418725
8.060627019140771,4.280143602043407,10.953638600597843,8.439813978573373
8.103428455161206,4.312802256346104,11.038036740383577,8.524311047243502
8.146556477724667,4.329890490226203,11.123279850856012,8.60072087575223
8.189855382626929,4.329176223838697,11.209287059613533,8.666448480624327
8.233147144865315,4.308350019341035,11.295951544419777,8.718709778938656
8.276230645058725,4.265126071617767,11.383138642209165,8.75462250841273
8.318881905774901,4.197372952362132,11.470684867293292,8.771333381733157
8.360855635298522,4.103269584112969,11.558398201110624,8.766179463331788
8.401888331139652,3.981475982503154,11.646059995743942,8.736875383247652
8.441703090964683,3.8313019717888355,11.733428749576419,8.681710653181254
8.480016110682572,3.652851926334447,11.820245856108231,8.59973462808987
8.516544629945916,3.447121571252372,11.90624320238913,8.490902728530749
8.551015845658439,3.2160256843728847,11.991152229674437,8.356158494376798
8.583176102502168,2.962343790889968,12.074713814618205,8.197432978541777
8.612799540411068,2.6895835229340097,12.156688144403622,8.017555224226427
8.639695375640407,2.401775397395941,12.236863696645887,7.820082459396692
8.663713129614367,2.103224618827683,12.315064521239854,7.609072319841103
8.684745375802644,1.7982518960852847,12.391155244438265,7.38882819314458
8.702727894763497,1.4909546768124897,12.46504352636971,7.163650577902098
8.717637441531622,1.1850134024997976,12.53668003214873,6.937622394123961
8.72948757555662,0.8835568714488449,12.60605625608997,6.714446653359428
8.738323144271108,0.5890896880580476,12.673200722623564,6.497343887284677
8.74421404115169,0.3034756612005021,12.738174161496412,6.289007021245074
8.747248797763694,0.027965278183733122,12.801064231708862,6.091604656928353
8.74752845054553,-0.23674683869187846,12.861980278278146,5.906820436615376
8.745160982158612,-0.49044801634021107,12.9210484826443,5.735915796029079
8.74025650199521,-0.7333284006609947,12.97840764060459,5.579805011873428
8.732923217988601,-0.9659048910760804,13.034205690723324,5.439134018775534
8.72326416907784,-1.1889535121370678,13.08859703091108,5.314357230167074
8.711374633956469,-1.4034531694608956,13.141740603212751,5.205809065486025
8.69734010226186,-1.6105419504387621,13.193798693867612,5.1137688408987385
8.681234682757472,-1.811485962415516,13.244936382276599,5.038519083339028
8.663119823133316,-2.007660041191334,13.29532157310999,4.980398237119021
8.643043222721403,-2.2005393651123497,13.345125555481179,4.939849239044357
8.621037829070278,-2.391700923002215,13.394524047871622,4.917465615131459
8.597120819840256,-2.5828337522945435,13.443698704022937,4.914036617802831
8.571292482317311,-2.775756705472632,13.492839070200965,4.930592397470512
8.543534915262585,-2.972441958927202,13.54214499417567,4.968449041939694
8.513810495673313,-3.1750411131108365,13.591829484595067,5.029250984107123
8.482060084542205,-3.385907754651944,13.642121994436138,5.115003702527207
8.448201006995685,-3.6076042867824123,13.69327203146141,5.228080769128585
8.41212496412786,-3.84286896876319,13.745552839152696,5.371172318009006
8.37369627444023,-4.0944966229101665,13.799264562332786,5.547110131040162
8.332751308211128,-4.365045565784083,13.854735663643186,5.75844673513862
8.289100852553286,-4.656214002867095,13.912320130994573,6.006568000383453
8.242538712524615,-4.967628362581096,13.972385810998407,6.289976171911785
8.192862428898804,-5.294695334545442,14.035285572717525,6.60125086831785
8.13991547555335,-5.625282811675864,14.101298081400703,6.922351491597245
8.083662647436592,-5.935850291373115,14.170521596316675,7.219121743564886
8.02430414452286,-6.190038287605386,14.242712813752323,7.439211981829721
7.962403761646806,-6.345873321955598,14.31710493357062,7.522068372087606
7.89894502842725,-6.375269331956552,14.392325617291496,7.426196498148962
7.835192335107685,-6.284286940966792,14.466587582272986,7.157585343316646
7.772349465698017,-6.111705490753656,14.538163435706153,6.767877024377721
7.711232410790481,-5.905426266806561,14.60584220594993,6.321575077867193
7.652178148122415,-5.701664459041855,14.669057956728603,5.867107035130188
7.595161503531997,-5.520161888542771,14.727729027079905,5.4301568017425685
7.539959884646569,-5.368729400502923,14.78203059509733,5.019934834866906
7.48627259064154,-5.248746422242855,14.832229943445999,4.6367595990390535
7.433785126419111,-5.158777934274502,14.87859753943639,4.277028352350886
7.382197347076366,-5.096459532333363,14.9213678229599,3.9357985188949858
7.331232751753033,-5.059351538069394,14.96072580814885,3.607955041361835
7.280639236372339,-5.045272546062984,14.996805358562467,3.2886711015551207
7.230186510911709,-5.052391892809661,15.029692069578019,2.973549186246998
7.179662591983613,-5.079217432431501,15.059427561440488,2.6586319657547475
7.128870417659297,-5.12454098743672,15.086013881098035,2.3403707867222785
7.07762500778493,-5.187368364990575,15.109417588965258,2.0155910179666674
7.025751324135024,-5.266844578094373,15.129573499144925,1.6814710907307036
6.973082878354081,-5.362177882365464,15.146388210052232,1.3355418308455433
6.919461099530426,-5.472563633152122,15.159743628360687,0.9757077678222845
6.864735463198905,-5.597108559778755,15.16950070603891,0.6002892696331485
6.808764377601117,-5.734756812418661,15.175503598735242,0.20808206023439663
6.75141680947693,-5.884220534129864,15.177584419337586,-0.2015717249102167
6.692574604135631,-6.043919371990354,15.175568702088484,-0.6287094292737113
6.632135410415727,-6.211934871804032,15.169281607795746,-1.0726817994811542
6.570016061697687,-6.385986619093279,15.158554789800935,-1.5321079904473036
6.506156195506754,-6.563436762222692,15.143233709896462,-2.004865175958554
6.440521827884527,-6.741327731559304,15.123185058136876,-2.4881244379655927
6.373108550568934,-6.916454392389022,15.09830381375722,-2.9784399086528572
6.303944006645043,-7.085466875884348,15.068519414670691,-3.471890769156425
6.2330893378862,-7.244994838204164,15.033800506979127,-3.964266770043178
6.160639389504158,-7.391779249672486,14.994157839278694,-4.451279359222183
6.086721597007433,-7.522795392569734,14.949645045686472,-4.928774527296119
6.011493643081735,-7.635351440653665,14.90035730041351,-5.392921890068388
5.935140128675198,-7.727150821289471,14.846428081512826,-5.840357931992074
5.857868620462304,-7.796312609973062,14.788024502192906,-6.268268896152924
5.779905494362573,-7.84135097892145,14.725341813231378,-6.6744085667323505
5.701491984573359,-7.861120693998366,14.658597727564054,-7.0570558228808276
5.622880777633375,-7.854739784119364,14.588027169335245,-7.414924461413738
5.544333379792182,-7.821502456989015,14.513877924721108,-7.7470424351639835
5.466118355222291,-7.760795381486888,14.436407500369468,-8.052619349832737
5.388510401407422,-7.6720291960841625,14.35588130687114,-8.33092047044276
5.31179010944658,-7.55459512106312,14.272572102166713,-8.581163470400643
5.236244158235949,-7.4078541976509475,14.186760467462706,-8.802451385293343
5.16216561625944,-7.231163978952287,14.098735953609772,-8.993751992291573
5.089853976469917,-7.0239442317542355,14.008798433686856,-9.153930010310132
