th1 (rad),w1 (rad/s),th2 (rad),w2 (rad/s),a1 (rad/s^2),a2 (rad/s^2)
3.140430822304881,-0.11460532283639563,0.20019091472833017,-0.6356202531932601,-1.9331001139624242,-3.840211827520772
3.139284769076517,-0.13393632397601987,0.19383471219639756,-0.6740223714684678,-1.9093370718207177,-3.756938035931717
3.137945405836757,-0.15302969469422706,0.18709448848171287,-0.711591751827785,-1.8851562157719488,-3.6693748254916767
3.1364151088898145,-0.17188125685194655,0.179978570963435,-0.7482855000827018,-1.8604588076393378,-3.5775032669402504
3.134696296321295,-0.19048584492833992,0.172495715962608,-0.7840605327521043,-1.8351544498822325,-3.4813174512806735
3.1327914378720116,-0.20883738942716223,0.16465511063508695,-0.818873707264911,-1.8091624593077986,-3.380826059993694
3.13070306397774,-0.2269290140202402,0.15646637356243784,-0.852681967864848,-1.7824132233032106,-3.2760539002028666
3.1284337738375374,-0.24475314625327232,0.14793955388378935,-0.8854425068668766,-1.7548495172217504,-3.1670433786790153
3.1259862423750047,-0.26230164142548984,0.13908512881512058,-0.9171129406536668,-1.7264277601596696,-3.0538558870859465
3.1233632259607496,-0.27956591902708655,0.12991399940858392,-0.9476514995245262,-1.6971191853595933,-2.936573069877436
3.120567566770479,-0.29653711088068246,0.12043748441333865,-0.9770172302233006,-1.6669109009583847,-2.815297945857574
3.117602195661672,-0.3132062198902663,0.11066731211110564,-1.0051702096818762,-1.6358068168446123,-2.6901558547050106
3.114470133462769,-0.3295642880587124,0.10061561001428689,-1.0320717682289262,-1.6038284140720722,-2.5612952008127783
3.111174490582182,-0.34560257219943313,0.09029489233199763,-1.057684720237054,-1.5710153346458033,-2.428887968667105
3.107718464860188,-0.36131272554589117,0.07971804512962709,-1.0819735999237252,-1.5374257715869857,-2.2931299867110053
3.104105337604729,-0.37668698326176103,0.06889830913038983,-1.1049048997908353,-1.5031366420006689,-2.154240920212718
3.1003384677721115,-0.3917183496817677,0.05784926013248148,-1.1264473089929625,-1.4682435293934293,-2.012463978051565
3.096421284275294,-0.40640078497570203,0.04658478704255185,-1.1465719487734782,-1.432860385663556,-1.8680653234739026
3.092357276425537,-0.42072938883233757,0.03511906755481707,-1.1652526020082172,-1.3971189879297892,-1.7213331846528226
3.0881499825372134,-0.4347005787116355,0.0234665415347349,-1.1824659338547454,-1.361168150559736,-1.5725766671634849
3.083802976750097,-0.44831226021723286,0.011641882196187444,-1.1981917005263802,-1.325172698262169,-1.4221242770868756
3.0793198541479248,-0.46156398719985453,-0.0003400348090763592,-1.212412943297249,-1.2893122117509437,-1.2703221701768617
3.074704214275926,-0.47445710931736396,-0.01246416424204885,-1.2251161649990177,-1.2537795630870054,-1.1175321491483214
3.0699596431827523,-0.486994904948234,-0.024715325892039026,-1.2362914864905008,-1.2187792631657035,-0.9641294374395619
3.06508969413327,-0.49918269757989103,-0.037078240756944034,-1.2459327808648963,-1.184525648743931,-0.8105002635414057
3.060097867157471,-0.5110279540673304,-0.04953756856559299,-1.2540377835003105,-1.151240940710612,-0.6570392949535118
3.0549875876167976,-0.5225403634744364,-0.0620779464005961,-1.2606081764498456,-1.119153208827585,-0.5041469648333685
3.049762183982053,-0.5337318955627123,-0.07468402816509456,-1.2656496460981792,-1.0884942807660967,-0.35222673728618625
3.044424865026426,-0.5446168383703732,-0.08734052462607636,-1.269171913471041,-1.0594976348320395,-0.20168235888792918
3.038978696642722,-0.5552118147186936,-0.10003224376078677,-1.2711887370599204,-1.0323963162460517,-0.05291514437018022
3.033426578495535,-0.5655357778811542,-0.11274413113138598,-1.2717178885036222,-1.00742091620191,0.09367865659241673
3.0277712207167236,-0.5756099870431732,-0.12546131001642222,-1.270781101937698,-0.9847976511928744,0.2377103668277304
3.0220151208462918,-0.5854579635551019,-0.1381691210357992,-1.2684039982694206,-0.9647465773378678,0.3788012221592591
3.016160541210741,-0.5951054293284807,-0.15085316101849341,-1.264615986047828,-0.9474799707654079,0.5165845083106877
3.010209486917456,-0.6045802290361347,-0.1634993208789717,-1.2594501409647212,-0.9332009006632412,0.650707463036024
3.0041636846270943,-0.6139122380427672,-0.17609382228861892,-1.252943066334361,-0.9221020165415378,0.7808329184424293
2.9980245622466666,-0.6231332582081825,-0.18862325295196253,-1.2451347371499368,-0.9143645657708199,0.9066406651112084
2.9917932296645846,-0.6322769038658907,-0.2010746003234619,-1.2360683304988247,-0.9101576517315522,1.0278285265233837
2.9854704606259257,-0.6413784803832062,-0.21343528362845013,-1.2257900452335908,-0.9096377371389515,1.1441131392395163
2.9790566758220938,-0.6504748577545957,-0.22569318408078604,-1.2143489138411956,-0.9129483914607993,1.2552304410633524
2.972551927244548,-0.6596043416692037,-0.237836673219198,-1.201796609430562,-0.9202202759858275,1.3609358758528736
2.965955883827856,-0.668806544429062,-0.2498546393135036,-1.1881872506720335,-0.93157135516001,1.4610043295765065
2.9592678183835655,-0.6781222579806621,-0.26173651182022395,-1.1735772073762685,-0.9471073183922567,1.5552298175282655
2.9524865958037587,-0.6875933311645847,-0.27347228389398665,-1.1580249092009858,-0.9669221927137481,1.6434249472312805
2.945610662492113,-0.6972625530917221,-0.2850525329859965,-1.141590659728673,-0.9910991234977209,1.7254201854310842
2.938638036961196,-0.7071735443266993,-0.2964684395832832,-1.124336457874362,-1.0197112979207754,1.8010629606996176
2.931566301517929,-0.7173706573059071,-0.30771180416202687,-1.1063258282673658,-1.0528229839542969,1.870216635564976
2.92439259494487,-0.72789888714545,-0.31877506244470055,-1.087623661911716,-1.0904906563743988,1.9327593838040555
2.9171136060734155,-0.738803793709194,-0.32965129906381774,-1.0682960680736755,-1.1327641805076816,1.988583009664904
2.9097255681363237,-0.7501314355142709,-0.3403342597445545,-1.0484102379770264,-1.179688024110547,2.0375917464190407
2.902224253781181,-0.7619283157553763,-0.35081836212432477,-1.028034320512836,-1.2313024678235223,2.0797010718904105
2.894604970623627,-0.7742413404336116,-0.36109870532945315,-1.0072373097939318,-1.2876447849552057,2.114836578582215
2.886862557219291,-0.7871177882831637,-0.37117107842739244,-0.9860889440081096,-1.3487503618385963,2.1429329358417957
2.878991379336459,-0.8006052919015496,-0.38103196786747356,-0.9646596146496917,-1.4146537305745077,2.1639329812790287
2.870985326417444,-0.8147518292072947,-0.3906785640139705,-0.9430202848369015,-1.485389486548708,2.177786978488369
2.862837808125371,-0.8296057240727818,-0.40010876686233954,-0.9212424150520178,-1.5609930636080802,2.184452078108578
2.854541750884643,-0.8452156547088626,-0.40932119101285974,-0.899397894270932,-1.6415013401456207,2.1838920194616964
2.8460895943375544,-0.8616306681103189,-0.41831516995556906,-0.877558974076315,-1.7269530495304848,2.1760771104969363
2.8374732876564512,-0.8789001986056237,-0.4270907596963322,-0.8557982029713457,-1.817388968299549,2.1609845245574855
2.828684285670395,-0.8970740882886192,-0.4356487417260457,-0.8341883577257708,-1.9128518552938036,2.138598953593527
2.8197135447875086,-0.9162026068415573,-0.44399062530330335,-0.8128023681898355,-2.013386114489015,2.1089136588391986
2.810551518719093,-0.9363364679864474,-0.4521186489852017,-0.7917132316014436,-2.119037153672312,2.071931961598157
2.8011881540392283,-0.9575268395231705,-0.46003578130121614,-0.770993911985462,-2.229850410414862,2.027669218549304
2.7916128856439966,-0.9798253436273191,-0.46774572042107077,-0.750717219799969,-2.3458700160743406,1.976155327757374
2.7818146322077233,-1.0032840437880626,-0.47525289261907044,-0.7309556665223952,-2.467137067945794,1.9174378131742
2.771781791769843,-1.0279554144675205,-0.48256244928429437,-0.7117812883906531,-2.593687479315029,1.851585536615559
2.7615022376251677,-1.0538922892606708,-0.4896802621682009,-0.6932654330244975,-2.7255493772369612,1.7786930867108979
2.750963314732561,-1.0811477830330405,-0.49661291649844586,-0.6754785021573885,-2.8627400185815373,1.6988858938016838
2.7401518369022306,-1.1097751832188558,-0.5033677015200198,-0.6584896432193716,-3.005262196518635,1.6123261177956527
2.729054085070042,-1.1398278051840423,-0.5099525979522135,-0.6423663820414152,-3.1531001124462756,1.5192193520857293
2.7176558070182018,-1.171358806308505,-0.5163762617726276,-0.6271741885205578,-3.3062146927380307,1.41982218025841
2.7059422189551166,-1.2044209532358854,-0.5226480036578333,-0.6129759667179737,-3.4645383359659547,1.314450612820661
2.6938980094227576,-1.239066336595545,-0.528777763325013,-0.5998314605897671,-3.6279690848472383,1.2034894178744013
2.681507346056802,-1.2753460274440174,-0.5347760779309108,-0.5877965664110231,-3.7963642284917283,1.0874023418155057
2.668753885782362,-1.3133096697289346,-0.540654043595021,-0.576922542992868,-3.9695333550320338,0.9667431929437343
2.6556207890850727,-1.3530050032792549,-0.5464232690249496,-0.5672551110634307,-4.1472308928322725,0.8421677315423999
2.6420907390522803,-1.3944773122075775,-0.552095820135584,-0.5588334337480068,-4.329148200605595,0.7144462737466472
2.6281459659302047,-1.4377687942136335,-0.5576841544730641,-0.5516889710105403,-4.514905293282569,0.5844768726632458
2.6137682779880684,-1.4829178471464592,-0.5632010441831695,-0.5458442022839078,-4.70404232164031,0.4532988881570511
2.598939099516604,-1.5299582703628622,-0.5686594862060086,-0.5413112134023373,-4.8960109596843315,0.3221066961100125
2.5836395168129753,-1.5789183799597055,-0.574072598340032,-0.5380901464412372,-5.09016589457391,0.19226321870402274
2.567850333013378,-1.6298200389054447,-0.5794534998044444,-0.536167514254197,-5.285756659299889,0.0653128796839574
2.5515521326243236,-1.6826776054984436,-0.5848151749469863,-0.5355143854573574,-5.4819200979195815,-0.057006496576714985
2.5347253565693393,-1.7374968064776395,-0.5901703188015599,-0.5360844504231246,-5.677673806196806,-0.17275341463926897
2.5173503885045627,-1.7942735445396076,-0.5955311633057911,-0.5378119845695173,-5.871910945922623,-0.27977473383232354
2.4994076530591665,-1.852992653998834,-0.6009092831514863,-0.5406097319078406,-6.063396887558971,-0.3757007541097404
2.480877726519178,-1.9136266228744236,-0.6063153804705647,-0.544366739448938,-6.2507681912772775,-0.45794421863673485
2.4617414602904337,-1.9761343047871964,-0.6117590478650541,-0.5489461816353053,-6.432534488587717,-0.5237041743312464
2.441980117242562,-2.040459649673074,-0.6172485096814071,-0.5541832233786177,-6.607083872632752,-0.5699757010932817
2.421575520745831,-2.106530488399401,-0.6227903419151932,-0.5598829803895505,-6.772692441238613,-0.5935665668392213
2.400510215861837,-2.1742574128117873,-0.6283891717190887,-0.5658186460579427,-6.9275386585590795,-0.5911218789358306
2.378767641733719,-2.243532799397378,-0.6340473581796682,-0.571729864847301,-7.0697232032115185,-0.5591577715822905
2.356332313739745,-2.3142300314294935,-0.6397646568281412,-0.5773214425631239,-7.197294946631854,-0.49410507956115746
2.33319001342545,-2.386202980895812,-0.6455378712537725,-0.5822624933587355,-7.308283647056412,-0.39236378609983064
2.309327983616492,-2.4592858173663763,-0.6513604961873598,-0.5861861312197337,-7.400739842715478,-0.25036877921538786
2.284735125442828,-2.533293215793531,-0.6572223574995572,-0.5886898190118877,-7.472782271763175,-0.06466708871006564
2.2594021932848927,-2.6080210385111626,-0.663109255689676,-0.5893364898989883,-7.52265292446296,0.16799371295793142
2.2333219828997812,-2.6832475677557923,-0.6690026205886659,-0.587656552769409,-7.548779533437366,0.45056689390246724
2.2064895072222233,-2.758735363090166,-0.67487918611636,-0.5831508838303843,-7.549844920216157,0.7855994614531385
2.1789021535913218,-2.834233812292328,-0.6807106949546639,-0.5752948892158529,-7.5248621348911415,1.1751192427354165
2.1505598154683985,-2.909482433641239,-0.6864636438468223,-0.5635436967884988,-7.473253752181121,1.6205198844996012
2.1214649911319863,-2.98421497116305,-0.6920990808147074,-0.5473384979435028,-7.3949330356512935,2.122448676912136
2.0916228414203557,-3.058164301519563,-0.6975724657941424,-0.5261140111743814,-7.2903839834824185,2.6807033016064223
2.06104119840516,-3.1310681413543873,-0.7028336059058863,-0.49930697815831715,-7.1607365771786835,3.2941447249539784
2.0297305169916164,-3.202675507126174,-0.7078266756874695,-0.46636553090877736,-7.007832946891276,3.9606343639700157
1.9977037619203546,-3.272753836595087,-0.7124903309965572,-0.4267591872690772,-6.83427974591241,4.677004173931072
1.9649762235544037,-3.3410966340542108,-0.716757922869248,-0.3799891455297665,-6.6434819132139165,5.439068255782546
1.9315652572138615,-3.40753145318635,-0.7205578143245457,-0.325598462971941,-6.43965332341821,6.241683777507688
1.897489942681998,-3.471927986420532,-0.7238137989542651,-0.2631816251968641,-6.227800690948831,7.078867309880837
1.8627706628177927,-3.53420599333002,-0.7264456152062337,-0.19239295209805574,-6.013678581910813,7.9439700429095685
1.8274286028844924,-3.594342779149128,-0.7283695447272143,-0.11295325166896004,-5.803715498024382,8.82991185394603
1.7914851750930012,-3.652379934129372,-0.7294990772439038,-0.024654133129499753,-5.604913644510357,9.729470083348732
1.7549613757517075,-3.7084290705744754,-0.7297456185751988,0.07264056770398757,-5.424727988215002,10.635614551632102
1.7178770850459628,-3.7626763504566254,-0.729019212898159,0.17899671322030858,-5.270933269849037,11.541876382544801
1.6802503215413966,-3.8153856831551156,-0.7272292457659558,0.2944154770457566,-5.151490411947974,12.442735220859426
1.6420964647098455,-3.8669005872745954,-0.7242850909954982,0.41884282925435085,-5.074425917542404,13.334008077410369
1.6034274588370996,-3.9176448464500195,-0.7200966627029547,0.5521829100284545,-5.047739110726728,14.2132237928106
1.5642510103725993,-3.968122237557287,-0.7145748336026702,0.6943151479565606,-5.079352301050228,15.07997024820373
1.5245697879970264,-4.018915760567789,-0.7076316821231046,0.8451148504385979,-5.177118229436639,15.93620693451145
1.4843806303913485,-4.070686942862156,-0.6991805336187186,1.0044769197837125,-5.348897763205074,16.786542996682943
1.443673760962727,-4.124175920494206,-0.6891357644208814,1.1723423497505419,-5.6027192366928755,17.63848985352314
1.402432001757785,-4.180203112861135,-0.677412340923376,1.3487272482857733,-5.94702970111232,18.50270732590206
1.3606299706291736,-4.239673409872259,-0.6639250684405182,1.533754321544794,-6.391048317069023,19.393272320384135
1.318233236530451,-4.303583893042949,-0.6485875252250703,1.7276870447486354,-6.945233802805602,20.32800913384414
1.2751973976000215,-4.373036231071005,-0.631310654777584,1.9309671360870768,-7.621881674982645,21.328930209037544
1.2314670352893113,-4.449255047820832,-0.6120009834167132,2.144256438177452,-8.43587308623451,22.422845593703677
1.186974484811103,-4.5336137786831765,-0.5905584190349387,2.3684848941144887,-9.405604828046398,23.642207941245445
1.1416383470242712,-4.627669826963641,-0.5668735700937938,2.6049069735269432,-10.554137626043564,25.02626560766119
1.095361648754635,-4.7332112032240765,-0.5408245003585244,2.855169629603555,-11.910602282825925,26.622593164538763
1.0480295367223942,-4.852317226052336,-0.5122728040624888,3.121395561248943,-13.511888692523861,28.489040715133108
0.9995063644618708,-4.987436112977575,-0.48105884844999935,3.406285968400274,-15.40458355833392,30.696052665167652
0.9496320033320951,-5.141481948560914,-0.4469959887659966,3.713246495051951,-17.64695451852902,33.329063555010556
0.898217183846486,-5.317951493746204,-0.4098635238154771,4.046537130602056,-20.310352727718474,36.490075406859226
0.845037668909024,-5.521055021023389,-0.3693981525094565,4.411437884670648,-23.47838001699432,40.29607791386386
0.7898271186987901,-5.755838821193332,-0.32528377366275,4.814398663809286,-27.23975613070702,44.868590812457064
0.7322687304868567,-6.028236382500402,-0.27713978702465714,5.263084571933857,-31.66527373751164,50.300830792071324
0.6719863666618526,-6.344889119875518,-0.22450894130531857,5.76609287985457,-36.746883694801504,56.57170033590183
0.6085374754630974,-6.712357956823533,-0.16684801250677286,6.331809883213588,-42.25153909990422,63.340162194053335
0.5414138958948621,-7.134873347822575,-0.10352991367463699,6.965211505154121,-47.40037051881764,69.49458087292884
0.4700651624166364,-7.608877053010751,-0.03387779862309577,7.66015731388341,-50.2637534367274,72.30363605258626
0.3939763918865289,-8.111514587378025,0.04272377451573833,8.383193674409272,-47.00357874114804,66.35402710001134
0.3128612460127486,-8.581550374789506,0.12655571125983106,9.046733945409386,-32.274304702337275,44.11973566600695
0.22704574226485355,-8.904293421812879,0.21702305071392491,9.487931302069455,-3.9983421490416173,2.682621627595986
0.13800280804672477,-8.944276843303294,0.31190236373461944,9.514757518345416,28.703576775231625,-45.119946847601824
0.04856003961369182,-8.657241075550978,0.4070499389180736,9.063558049869398,49.97655945927103,-76.97550905849059
-0.03801237114181796,-8.157475480958267,0.4976855194167676,8.293802959284491,54.80812266654085,-85.77566054588328
-0.11958712595140063,-7.609394254292859,0.5806235490096125,7.436046353825659,49.89474267685527,-80.84196578215408
-0.1956810684943292,-7.1104468275243065,0.6549840125478692,6.627626696004118,42.062693246842194,-71.71504137287492
-0.2667855367695723,-6.6898198950558845,0.7212602795079104,5.9104762822753685,34.44635577336702,-62.79504623309593
-0.3336837357201311,-6.345356337322214,0.7803650423306641,5.282525819944409,27.93812980166939,-55.352471781597785
-0.39713729909335327,-6.0659750393055205,0.8331903005301081,4.729001102128431,22.591848109081592,-49.480757915317916
-0.4577970494864085,-5.840056558214704,0.8804803115513924,4.234193522975252,18.232742137299923,-44.94602797752865
-0.5161976150685555,-5.657729136841705,0.9228222467811449,3.784733243199965,14.661706600037926,-41.47247596968649
-0.5727749064369726,-5.5111120708413255,0.9606695792131446,3.3700084835031,11.710622950912382,-38.82032213333354
-0.6278860271453859,-5.394005841332202,0.9943696640481755,2.9818052621697646,9.250193302140644,-36.797458048243705
-0.6818260855587079,-5.301503908310796,1.0241877166698732,2.6138306816873276,7.184802213459398,-35.25290472365677
-0.734841124641816,-5.229655886176202,1.0503260234867464,2.26130163445076,5.445209937767262,-34.06724981488766
-0.7871376835035779,-5.175203786798529,1.072939039831254,1.9206291363018833,3.9820441662584583,-33.1443239079261
-0.8388897213715633,-5.135383345135945,1.0921453311942728,1.5891858972226223,2.760605281227494,-32.404944524934464
-0.8902435548229227,-5.10777729232367,1.108037190166499,1.2651364519732775,1.7568176293062907,-31.78257542720474
-0.9413213277461594,-5.090209116030607,1.1206885546862317,0.9473106977012301,0.9540388800586584,-31.220536870884207
-0.9922234189064655,-5.08066872723002,1.130161661663244,0.635105328992388,0.3404835557001965,-30.670405837107783
-1.0430301061787657,-5.077263891673018,1.1365127149531677,0.3284012706213102,-0.09290287064047092,-30.09128851369593
-1.093802745095496,-5.078192920379423,1.1397967276593808,0.027488385484350897,-0.3542064074808122,-29.449682785605894
-1.1445846742992902,-5.081734984454231,1.1400716115142242,-0.26700844237170807,-0.45197057619250275,-28.719671673114515
-1.1954020241438326,-5.086254690216156,1.1374015270905071,-0.5542051591028532,-0.3962742743557508,-27.88320871797034
-1.246264571045994,-5.090217432959713,1.1318594754994786,-0.8330372462825566,-0.19943399624827582,-26.930284682923627
-1.2971667453755913,-5.092211772922196,1.123529103036653,-1.1023400931117928,0.12369026626220542,-25.858809670357346
-1.3480888631048134,-5.090974870259574,1.1125057021055351,-1.3609281898153662,0.5557808326334914,-24.674107513701397
-1.3989986118074091,-5.085417061933239,1.0988964202073814,-1.6076692649523803,1.0774990628837637,-23.38799434734029
-1.4498527824267415,-5.074642071304401,1.0828197275578577,-1.8415492084257832,1.6681951080072677,-22.017489111941778
