th1 (rad),w1 (rad/s),th2 (rad),w2 (rad/s)
5.835006038378769,-2.8980536526322562,5.871200514161005,2.037546351994016
5.806025501852447,-2.847864394653815,5.8915759776809455,2.023592784213452
5.777546857905908,-2.785171446922059,5.91181190552308,1.991603438750635
5.749695143436687,-2.7112047169863507,5.931727939910586,1.9434822577213602
5.722583096266824,-2.6275288148691596,5.9511627624878,1.8816201986623018
5.696307808118132,-2.5358755413031187,5.969978964474423,1.8086506990802382
5.670949052705101,-2.4379851039473093,5.988065471465226,1.727218056373931
5.646569201665628,-2.3354808781514316,6.005337652028965,1.6397942348533092
5.623214392884114,-2.229788457257341,6.021735594377498,1.5485595180135836
5.60091650831154,-2.122097350674073,6.037221189557634,1.4553447285088583
5.5796955348048,-2.0133562673068086,6.0517746368427225,1.3616221103989277
5.559561972131732,-1.9042905739631264,6.065390857946712,1.2685285686195638
5.5405190663921005,-1.7954315986262448,6.078076143632908,1.1769064578964747
5.522564750405838,-1.6871500580747056,6.089845208211872,1.0873508084486645
5.505693249825091,-1.579688671044165,6.100718716296359,1.0002558346256876
5.489896363114649,-1.4731912934290472,6.110721274642616,0.9158568234181592
5.475164450180359,-1.3677274964282562,6.119879842876798,0.8342657736696192
5.461487175216076,-1.2633124756744145,6.128222500613494,0.7555005536282894
5.448854050459333,-1.159922690730755,6.135777506149776,0.6795080909573361
5.437254823552025,-1.0575078492796541,6.14257258705935,0.6061824308588732
5.426679745059229,-0.9559998925097986,6.148634411367938,0.5353785701878797
5.417119746134131,-0.8553195914596362,6.153988197069817,0.4669229179058913
5.408566550219534,-0.7553812798617031,6.158657426248876,0.4006211187376766
5.401012737420917,-0.6560961561922709,6.1626636374362525,0.3362638490796248
5.394451775858994,-0.5573745006414801,6.166026275927049,0.27363107321082797
5.388878030852579,-0.45912707764056804,6.168762586659157,0.21249514274578274
5.384286760076174,-0.3612659329172591,6.170887538086615,0.15262303552270046
5.380674100747001,-0.26370474507545294,6.172413768441841,0.09377796096855506
5.3780370532962465,-0.1663588537869612,6.173351548051527,0.03572050528937415
5.376373464758377,-0.06914505801685006,6.173708753104421,-0.021790550871463366
5.375682014178208,0.028018743404120777,6.173490847595707,-0.0789976396983002
5.375962201612249,0.1252140114971862,6.172700871198724,-0.13614395708725166
5.377214341727221,0.22252207964879397,6.171339431627851,-0.19347308991742038
5.379439562523709,0.3200246769616004,6.169404700728677,-0.25122866036994257
5.382639809293325,0.41780442213569124,6.166892414124978,-0.30965393029257215
5.386817853514682,0.5159452454904269,6.163795874822052,-0.36899130560713606
5.391977305969586,0.6145326907951496,6.16010596176598,-0.42948167224088757
5.398122632877538,0.7136540383622046,6.155811145043572,-0.4913634804520406
5.40525917326116,0.8133981756600396,6.1508975102390515,-0.554871472721448
5.4133931550177605,0.9138551205096646,6.145348795511837,-0.6202349201715239
5.422531706222857,1.0151150734033438,6.1391464463101215,-0.6876751918920173
5.432682856956891,1.117266838016634,6.132269694391201,-0.7574024283584349
5.4438555253370575,1.220395400788025,6.124695670107617,-0.8296110218610506
5.456059479344938,1.3245783998225922,6.116399559889007,-0.9044735212262994
5.469305263343164,1.4298811392920905,6.107354824676744,-0.9821324737778686
5.483604074736085,1.5363497186057906,6.097533499938965,-1.062689595590446
5.498967571922143,1.6440017501340574,6.086906603983061,-1.1461915279111856
5.515407589423483,1.752814046119316,6.075444688703949,-1.2326113090596484
5.532935729884676,1.862706587268867,6.063118575613353,-1.3218245997879219
5.551562795757365,1.9735220841649252,6.049900329615474,-1.413579705803645
5.571298016599015,2.0850005787324486,6.035764532557438,-1.507460644792118
5.59214802238634,2.1967489168138163,6.020689926109516,-1.6028430637391986
5.614115511554478,2.3082057104635108,6.004661495472124,-1.6988439473512371
5.637197568659113,2.4186037913897236,5.987673055998612,-1.794268041434297
5.66138360657301,2.526934312079487,5.969730375584269,-1.8875569966035592
5.686652949693805,2.6319196183558633,5.950854805618233,-1.9767514724664232
5.712972145877363,2.7320054736928907,5.931087290893569,-2.0594813700788075
5.7402922006142925,2.8253861677002736,5.910492477192781,-2.1330035677420285
5.768546062291295,2.91007658489353,5.889162441515361,-2.194307316670062
5.7976468281402305,2.984040829784894,5.86721936834866,-2.2403010910459225
5.827487236438079,3.0453753101290877,5.8448163574382015,-2.2680780600657027
5.857940989539371,3.092525729337942,5.822135576837544,-2.2752310819892263
5.88886624683275,3.1244975929392464,5.799383266017652,-2.2601597866269554
5.920111222762142,3.1410086079089585,5.776781668151383,-2.222296107243966
5.951521308841232,3.1425384677196537,5.754558707078943,-2.162184377342234
5.982946693518429,3.1302585327548518,5.732936863305521,-2.081390161444399
6.014249278845977,3.1058601977487177,5.712122961691077,-1.982263411289477
6.045307880823464,3.071328907985142,5.692300327578182,-1.8676217699166693
6.076021169903315,3.0287184759736925,5.673624109879015,-1.7404312748247466
6.106308354663052,2.9799678614140435,5.656219797130768,-1.6035445645330915
6.136108033277193,2.92678024526395,5.640184351485437,-1.459525421857582
6.165375835729832,2.870563691348736,5.625589097266861,-1.3105594984797737
6.19408147264332,2.812420337271842,5.612483502282063,-1.1584334554825846
6.2222056760160385,2.753167235795352,5.6008991677272375,-1.004559118253093
6.249737348373992,2.693373755894759,5.590853576544706,-0.8500215414554846
6.27667108593294,2.633404562411104,5.582353361130151,-0.6956355137971193
6.303005131557051,2.5734614034391528,5.57539700599218,-0.5420008749797226
6.3287397455914425,2.5136202364904667,5.5699769972423825,-0.38955163245731
6.353875947956348,2.4538624202869332,5.566081480917809,-0.23859695652377552
6.378414572159217,2.394099969517351,5.563695511352571,-0.0893539381608916
6.4023555718543905,2.33419549481391,5.562801971970962,0.05802710137912717
6.42569752680253,2.2739776783684107,5.563382242984753,0.20344361289366256
6.448437303586214,2.213253146692912,5.56541667911369,0.34682695698768407
6.470569835053143,2.151815510501677,5.568884948683566,0.48813260814755344
6.4920879901581605,2.08945221363582,5.573766274765042,0.6273335181094799
6.512982512294519,2.025949702912403,5.5800396099461365,0.7644158996453796
6.533242009323643,1.9610973145241373,5.587683768942591,0.8993768436450852
6.552852982468884,1.8946901755985162,5.596677537379041,1.0322233098233167
6.571799884224869,1.826531342025881,5.606999770477275,1.1629721339322814
6.590065197645128,1.7564333337021525,5.6186294918165975,1.291650774661734
6.607629530982149,1.6842191832021531,5.6315459995632144,1.4182985851539716
6.624471722814171,1.6097230809354428,5.645728985414754,1.542968440917843
6.640568953623525,1.5327906767285273,5.661158669823933,1.665728591052285
6.65589686039081,1.4532790826823478,5.677815955734456,1.78666462556728
6.670429651217634,1.3710566137091038,5.6956826019901285,1.9058814699916862
6.684140217354725,1.286002299456829,5.714741416690045,2.0235053304665316
6.6970002403492925,1.1980052039318425,5.73497646999471,2.139685518549653
6.708980292388611,1.1069635970364897,5.756373325180207,2.2545960847279787
6.720049928358976,1.0127840359687839,5.778919286027487,2.368437182126055
6.730177768718664,0.9153804351007379,5.802603657848747,2.481436065221892
6.739331573069672,0.8146732324361404,5.827418018500967,2.5938475995686385
6.747478305394033,0.7105888018891544,5.853356494496653,2.7059541132368254
6.754584193412924,0.6030593175213784,5.880416035629022,2.818064352827629
6.760614786588138,0.4920233542288664,5.908596679157298,2.9305112080798144
6.765535020130427,0.3774276168508961,5.937901791238096,3.0436477280987084
6.769309296298936,0.2592303361753951,5.968338268519083,3.157840754615085
6.771901599660691,0.13740706784372775,5.999916676065234,3.273461225764924
6.773275670339128,0.0119598917216448,6.032651288322883,3.3908698381176947
6.773395269256344,-0.11706865431550692,6.0665599867040605,3.5103962778648703
6.772224582713189,-0.24957516006158292,6.10166394948271,3.6323096394974166
6.769728831112573,-0.3853662386098219,6.137987045877684,3.7567769711507317
6.765875168726475,-0.5241180879877048,6.175554815589191,3.883806224516962
6.760633987846598,-0.6653218578916893,6.214392877834361,4.0131694966682225
6.753980769267681,-0.8082123411947134,6.254524572801043,4.144302848970112
6.745898645855734,-0.9516791694722382,6.295967601290744,4.276181112519244
6.736381854161011,-1.0941637058702318,6.338729412415937,4.4071714340897055
6.725440217102308,-1.233552600785643,6.382801126756834,4.5348798521050115
6.713104691094452,-1.3670916958874448,6.428149925277884,4.656022632424893
6.699433774135578,-1.4913610905522137,6.474710151602133,4.766377810284649
6.684520163230055,-1.602368644458414,6.522373929704979,4.860895510211321
6.668496476785471,-1.6958223101248264,6.570982884807092,4.93405076129679
6.6515382536842225,-1.7676121669794667,6.62032339242006,4.980483008473808
6.6338621320144275,-1.814457007667301,6.670128222504798,4.995862974823801
6.615717561937754,-1.8345638005225338,6.7200868522530355,4.9777816428857795
6.597371923932529,-1.8280732734264964,6.769864668681893,4.926352988644996
6.5790911911982635,-1.7970987433893642,6.819128198568343,4.844268260215581
6.56112020376437,-1.7453231180906303,6.867570881170499,4.736255274220203
6.5436669725834635,-1.6773092970175525,6.914933433912701,4.608155337305671
6.526893879613288,-1.5977739378394804,6.961014987285758,4.465957526873166
6.510916140234894,-1.5110284013257016,7.005674562554489,4.315064555459797
6.4958058562216365,-1.420667647015639,7.048825208109087,4.159895552496396
6.4815991797514805,-1.3294799054218867,7.090424163634051,4.003784898512536
6.468304380697262,-1.2395008796070268,7.1304620126191764,3.849071453116643
6.455909371901192,-1.15213694625229,7.168952727150343,3.697275425832702
6.444388002438669,-1.0683046844988755,7.20592548140867,3.5492923925101527
6.43370495559368,-0.9885583572413048,7.241418405333771,3.405567370721602
6.423819372021267,-0.9131942966605086,7.275474079040987,3.2662352996563104
6.414687429054662,-0.8423308976403949,7.30813643203755,3.131227201448718
6.406264120078258,-0.7759672880374257,7.339448704052037,3.0003468943775333
6.398504447197883,-0.7140250381794339,7.369452172995812,2.873324610544892
6.391364196816089,-0.6563771072643871,7.398185419101261,2.749853451578942
6.384800425743445,-0.6028675202123215,7.4256839536170505,2.629613533094567
6.378771750541322,-0.5533244731741371,7.451980088947996,2.5122875127792983
6.373238505809581,-0.5075688621807369,7.477102964075789,2.3975701996708483
6.368162817187773,-0.46541966910835403,7.501078666072498,2.2851741610613137
6.36350862049669,-0.4266972176475018,7.523930407683111,2.1748326635221185
6.359241648320215,-0.3912250054131335,7.545678734318332,2.06630086773474
6.3553293982660835,-0.35883060001640804,7.56634174299568,1.959355903414701
6.351741092265919,-0.32934593351477337,7.585935302029827,1.8537962469308376
6.348447632930771,-0.302607222804985,7.604473264499135,1.7494406841698258
6.345421560702722,-0.2784546695306683,7.621967671340833,1.6461270455763979
6.342637014007415,-0.25673204205009925,7.638428941796597,1.5437108353867917
6.340069693586914,-0.23728620694121197,7.653866050150465,1.4420638332328894
6.337696831517501,-0.21996665350070663,7.668286688482794,1.3410727168434764
6.3354971649824945,-0.20462503830955173,7.681697415651229,1.2406377349043003
6.333450914599399,-0.1911147658246297,7.694103793000272,1.1406714461056342
6.331539766941153,-0.17929061348199057,7.705510507461328,1.0410975318497948
6.329746860806333,-0.16900840483212437,7.715921482779827,0.941849684542889
6.328056776758012,-0.16012473099092342,7.7253399796252555,0.8428705698561584
6.326455529448102,-0.15249671864046915,7.733768685323817,0.7441108591351302
6.324930562261698,-0.14598184157551097,7.741209793915168,0.6455283268011841
6.3234707438459425,-0.1404377721024532,7.747665077183179,0.5470870068216592
6.322066366124918,-0.13572226827441924,7.753135947251396,0.44875640191491184
6.3207091434421745,-0.1316930928595355,7.757623511270545,0.35051073896892954
6.319392212513579,-0.1282079599987856,7.761128618660234,0.25232826409655085
6.318110132913591,-0.12512450564981073,7.7636519013012,0.15419057076921588
6.316858887857093,-0.12230027808755631,7.765193807008893,0.05608195452803913
6.315635885076217,-0.11959274490848268,7.765754626554173,-0.04201121215645626
6.314439957627132,-0.11685931313836868,7.765334514432609,-0.14010109122949627
6.3132713644957485,-0.11395735915762502,7.763933503520314,-0.2381989828853242
6.312131790904172,-0.11074426522078029,7.761551513691461,-0.33631592811007344
6.311024348251965,-0.10707745935076263,7.75818835441036,-0.43446331610452
6.309953573658457,-0.10281445532953244,7.753843721249315,-0.5326535027172058
6.3089254291051615,-0.0978128893833278,7.748517186222143,-0.6309004459905903
6.307947300211328,-0.09193054997502417,7.742208181762237,-0.7292203649073308
6.307027994711578,-0.0850253968727718,7.734915978113164,-0.8276324274205137
6.30617774074285,-0.07695556537160514,7.726639653838959,-0.9261594738598415
6.305408185089134,-0.06757935121587204,7.71737805910036,-1.0248287818229165
6.304732391576976,-0.05675517142332333,7.707129771282131,-1.1236728786810888
6.304164839862742,-0.044341495871926026,7.69589304249532,-1.222730407841656
6.3037214249040225,-0.030196744212988375,7.683665738416903,-1.322047054892405
6.303419457461892,-0.014179142467391787,7.670445267867979,-1.4216765396766833
6.303277666037219,0.0038534663874274268,7.656228502471213,-1.5216816801524367
6.303316200701093,0.02404386333044979,7.641011685669688,-1.6221355334904806
6.303556639334397,0.04653575061779148,7.6247903303347835,-1.7231226191325302
6.304021996840575,0.07147410927098746,7.6075591041434585,-1.8247402272562478
6.304736737933285,0.09900561851908259,7.589311701870896,-1.9270998139800577
6.305726794118476,0.12927913581038752,7.570040703731095,-2.03032848123467
6.30701958547658,0.16244623111131268,7.549737418918749,-2.1345705338660865
6.308644047787693,0.19866176182017842,7.528391713580088,-2.2399890982376123
6.310630665405895,0.23808446364446298,7.5059918225977125,-2.3467677739303006
6.313011510042339,0.2808775166352035,7.482524144858409,-2.4551122710009987
6.315820285208692,0.3272090219530931,7.4579730221483995,-2.565251956575889
6.319092375428223,0.3772522905534934,7.43232050258264,-2.67744119186451
6.322864898333758,0.4311857950639397,7.405546090663995,-2.791960277483523
6.3271767562843975,0.4891925638642177,7.3776264878891595,-2.9091157319036505
6.332068681923039,0.5514586920533383,7.348535330570123,-3.0292394914352863
6.337583268843573,0.6181704939442981,7.31824293565577,-3.152686421412173
6.343764973783015,0.6895096071439009,7.286716071441648,-3.2798292406702836
6.350660069854454,0.7656450540346065,7.253917779034945,-3.411049549420114
6.3583165203948,0.8467208408809515,7.219807283540744,-3.5467230686173483
6.36678372880361,0.9328370918765959,7.18434005285457,-3.6871963941210537
6.376112099722376,1.0240219437758926,7.147468088913359,-3.832751492476678
6.386352319160135,1.120190462331046,7.109140573988593,-3.9835528028503373
6.3975542237834455,1.2210857597478124,7.069305045960089,-4.139570251826387
6.4097650813809235,1.326196551946393,7.027909343441825,-4.300470072957974
6.423027046900388,1.4346452307523416,6.984904642712245,-4.465464902965216
6.4373734992079115,1.5450424563439547,6.940249993682594,-4.633116992645608
6.452823923771351,1.6553106720505855,6.893918823756137,-4.801096781399673
6.469377030491858,1.7624933841995352,6.845907855942141,-4.965918495787662
6.487001964333853,1.8625933753862194,6.796248670984264,-5.122710238244809
6.505627898087715,1.9505215904825093,6.745021568601816,-5.265128931114523
6.52513311399254,2.0202778244205115,6.692370279290671,-5.385585010163911
6.5453358922367455,2.0654908729449,6.638514429189032,-5.475951763030438
6.565990800966195,2.080365687268918,6.583754911558727,-5.528825629348832
6.586794457838884,2.060886091408536,6.528466655265238,-5.539132186850502
6.6074033187529695,2.0058747572698143,6.473075333396733,-5.505535747735182
6.627462066325668,1.9174193007371407,6.418019975919381,-5.430986233140926
6.6466362593330395,1.8004078058804591,6.363710113587972,-5.3220616188210474
6.664640337391844,1.6613730396174384,6.310489497399762,-5.187388311003257
6.681254067788018,1.5071663084555293,6.258615614289729,-5.035854854302379
6.696325730872573,1.343939045776117,6.2082570657467055,-4.875265209792325
6.709765121330334,1.1766236714289537,6.159504413648782,-4.71167993564979
6.721531358044624,1.0088424172598527,6.112387614292284,-4.549335935883563
6.731619782217223,0.8430672175857405,6.066894254933448,-4.390897155587819
6.740050454393081,0.6808728482305331,6.02298528337757,-4.2378202893169865
6.746859182875386,0.5231878241096,5.9806070804844,-4.090707724304583
6.752091061116482,0.3705019528257434,5.939700003241354,-3.9495949286462153
6.755796080644739,0.22302190447174192,5.900204053954892,-3.8141633201344933
6.7580262996894565,0.08078075335653714,5.8620624207535466,-3.6838887303200005
6.758834107223022,-0.0562882580938453,5.825223533450346,-3.5581406737249384
6.758271224642083,-0.18830385712653244,5.789642126713097,-3.436246562158405
6.756388186070818,-0.31540683470364994,5.755279661091513,-3.31753200671476
6.753234117723781,-0.4377422354578322,5.722104341024365,-3.201345287961851
6.748856695369202,-0.5554495258530923,5.690090888144747,-3.087071575902562
6.743302200110671,-0.6686579295762616,5.659220172385721,-2.974140635594589
6.736615620814908,-0.7774850445329926,5.629478766029775,-2.862030462932841
6.728840770369579,-0.882037489717044,5.600858461400447,-2.75026842044579
6.7200203954724085,-0.9824127558840366,5.57335577719599,-2.63843086294176
6.7101962679135685,-1.0787017164223545,5.546971468566572,-2.5261418640632205
6.699409250749345,-1.170991441067031,5.52171004992594,-2.413071410706889
6.6876993363386745,-1.2593680776896592,5.497579335818871,-2.298933277213454
6.675105655561778,-1.343919648292836,5.474590003046737,-2.1834826946231645
6.661666459078849,-1.424738659142803,5.4527551761005055,-2.066513871863446
6.647419072487421,-1.5019244612799925,5.4320900373818715,-1.9478573921364288
6.632399827874621,-1.5755853226908834,5.412611463460507,-1.8273774902345108
6.616643974647712,-1.6458401912147353,5.394337688558163,-1.704969209254863
6.6001855727355645,-1.7128201403302175,5.377287996465614,-1.5805554343945472
6.583057371332262,-1.7766694998802763,5.361482442121669,-1.454083804661298
6.5652906763334595,-1.837546681464442,5.346941604075056,-1.3255235087640849
6.546915209518815,-1.8956247141423443,5.333686368987415,-1.1948619780719556
6.527958962377392,-1.951091510446292,5.3217377492066955,-1.0621014966887559
6.508448047272929,-2.0041498854863575,5.311116734239808,-0.9272557560475172
6.488406548418066,-2.055017352985768,5.3018441766793325,-0.790346388918791
6.467856374888208,-2.103925721110411,5.293940712790144,-0.6513995255516014
6.446817117677104,-2.1511205075177338,5.287426717534628,-0.5104424233032022
6.425305912601926,-2.196860186543804,5.282322293301596,-0.3675002313685426
6.403337310736489,-2.241415271047587,5.2786472909879105,-0.22259296529712744
6.380923158026013,-2.2850672160070986,5.276421361334939,-0.07573278360205177
6.358072485865942,-2.3281071089542267,5.275664033498918,0.07307831668676842
6.3347914147764,-2.3708340815923683,5.2763948166657855,0.22385023391946612
6.311083073960476,-2.413553334504789,5.27863331900498,0.376605724163665
6.2869475406154285,-2.4565736086994687,5.282399376246617,0.5313803209587526
6.262381804528434,-2.500203858442421,5.287713179456205,0.6882208429658094
6.237379765944009,-2.5447487723473627,5.294595387885863,0.8471819828571415
6.2119322782205355,-2.5905026451808078,5.3030672077144345,1.0083202824277353
