th1 (rad),w1 (rad/s),th2 (rad),w2 (rad/s),a1 (rad/s^2),a2 (rad/s^2)
5.163417098463395,0.13868481472819127,0.09584369476289173,2.055116825710434,11.671941823448813,-5.014936626761427
5.164803946610677,0.25540423296267944,0.11639486301999608,2.00496745944282,11.536533944797164,-5.003648001799713
5.167357988940304,0.3707695724106511,0.13644453761442427,1.9549309794248229,11.40634391527535,-5.035640930695766
5.17106568466441,0.48483301156340464,0.1559938474086725,1.9045745701178651,11.2798011417122,-5.109231911897848
5.175914014780044,0.5976310229805266,0.17503959310985115,1.8534822509988866,11.155586557172228,-5.222816086227011
5.181890325009849,0.7091868885522489,0.19357441561984,1.8012540901366165,11.0326327604031,-5.37484386555044
5.188982193895372,0.8195132161562799,0.21158695652120618,1.747505651481112,10.910124880576967,-5.563800518662116
5.197177326056935,0.9286144649620496,0.2290620130360173,1.6918676462944908,10.787502283174053,-5.788189563902267
5.206463470706556,1.03648948779379,0.2459806894989622,1.6339857506554682,10.66446104994039,-6.046520580226276
5.216828365584494,1.143134098293194,0.2623205470055169,1.5735205448532055,10.540957061172426,-6.337301899474908
5.2282597065674254,1.248543668904918,0.27805575245404895,1.5101475258584565,10.417209458243953,-6.659038545533349
5.240745143256475,1.3527157634873577,0.29315722771263353,1.4435571404031229,10.29370425303716,-7.010235716415243
5.254272300891349,1.4556528060177292,0.30759279911666476,1.3734547832389705,10.171197868878101,-7.389408046724254
5.268828828951526,1.5573647847065102,0.32132734694905446,1.299560702771728,10.050720437942497,-7.795094829320245
5.284402476798591,1.6578719890859352,0.33432295397677175,1.2216097544785256,9.933578737618653,-8.22588130847346
5.300981196689451,1.757207776462122,0.346539051521557,1.139350941393791,9.821358717918262,-8.680426076133918
5.3185532744540716,1.8554213636413046,0.3579325609354949,1.0525466806324517,9.715927647654224,-9.157494502258045
5.337107488090485,1.952580640117847,0.3684580277418194,0.9609717356098713,9.61943598045055,-9.655998002189845
5.3566332944916635,2.0487749999223523,0.37806774509791813,0.8644117555879728,9.534319100588856,-10.175038778230803
5.377121044490887,2.144118190928241,0.38671186265379787,0.7626613678056647,9.463299135139362,-10.713959451584746
5.39856222640017,2.2387511822796347,0.39433847633185454,0.6555217732898173,9.409386985555454,-11.272396696464119
5.4209497382229666,2.3328450521351893,0.4008936940647527,0.5427978063251762,9.375884597771488,-11.85033755351583
5.444278188744319,2.426603898112904,0.40632167212800446,0.42429443079001783,9.366387192230718,-12.448176458472151
5.468544227725448,2.520267770035211,0.41056461643590464,0.29981266620529634,9.384784618336809,-13.0667700506475
5.4937469054258,2.6141156162185792,0.4135627430979576,0.16914496569882134,9.435260033834918,-13.707485327066623
5.519888061587985,2.7084682165569283,0.4152541927549458,0.032070112428155106,9.522282509530616,-14.37223436781172
5.546972743753555,2.8036910416522343,0.41557489387922736,-0.1116522312499621,9.650587566936714,-15.063485181007495
5.575009654170078,2.9001969173216016,0.4144583715667277,-0.26228708306003706,9.825135514782437,-15.784232423298704
5.604011623343294,2.998448272469426,0.41183550073612735,-0.4201294072930241,10.051030894178346,-16.537902629013296
5.633996106067989,3.0989585814112095,0.4076342066631971,-0.5855084335831571,10.333376032956204,-17.328154250676118
5.664985691882101,3.2022923417407716,0.4017791223273655,-0.7587899760899183,10.677015605219985,-18.158510416278958
5.6970086152995085,3.3090624977929712,0.3941912225664663,-0.9403750802527079,11.0861041541442,-19.031727603725294
5.730099240277438,3.4199235393344134,0.38478747176393924,-1.130692356289961,11.563390444351933,-19.948750413723726
5.764298475670782,3.535557443777933,0.37348054820103965,-1.3301798604271982,12.109055638665964,-20.907023514259418
5.799654050108561,3.6566480001645925,0.36017874959676766,-1.5392500955697923,12.718860674350934,-21.897818495573734
5.836220530110207,3.783836606908102,0.3447862486410697,-1.7582282805255296,13.38124932161377,-22.902082720838788
5.874058896179288,3.9176491001242395,0.3272039658358144,-1.9872491077339174,14.072928983686774,-23.884146578661486
5.9132353871805305,4.058378389961107,0.3073314747584752,-2.226090573520532,14.752363887192953,-24.78251001022188
5.953819171080141,4.205902028833036,0.2850705690232699,-2.4739156736227508,15.350715409105351,-25.497082387699987
5.9958781913684716,4.3594091829240895,0.2603314122870424,-2.728886497499751,15.760403818587104,-25.87316927053945
6.039472283197712,4.517013221109961,0.23304254731204488,-2.9876181902051453,15.823327588390825,-25.68514798366362
6.084642415408812,4.67524649699387,0.20316636540999342,-3.2444696700417817,15.324847293041469,-24.628537410308173
6.131394880378751,4.828494969924284,0.1707216687095756,-3.4907550441448634,14.006408989204454,-22.33871711132858
6.179679830077993,4.968559059816329,0.13581411826812698,-3.7141422152581494,11.61637547598799,-18.4639410661752
6.229365420676157,5.0847228145762084,0.09867269611554548,-3.8987816259199013,8.014412399499335,-12.814176040056054
6.2802126488219185,5.164866938571202,0.05968487985634647,-4.026923386320462,3.311167799906057,-5.559584436768592
6.331861318207631,5.197978616570262,0.01941564599314185,-4.082519230688148,-2.039493464281919,2.6388315343490083
6.383841104373333,5.177583681927443,-0.021409546313739633,-4.056130915344658,-7.312448832874057,10.731967570598249
6.435616941192608,5.104459193598702,-0.06197085546718622,-3.9488112396386756,-11.770674863484134,17.651759376080516
6.486661533128595,4.9867524449638605,-0.10145896786357297,-3.7722936458778706,-14.95355476939378,22.722349878080035
6.5365290575782335,4.837216897269923,-0.13918190432235167,-3.5450701470970705,-16.789275022895257,25.822497879749157
6.584901226550933,4.66932414704097,-0.17463260579332238,-3.2868451682995787,-17.496761391501156,27.248950812760597
6.631594468021342,4.494356533125958,-0.20750105747631817,-3.0143556601719728,-17.407968991146543,27.465110128139067
6.676538033352602,4.320276843214493,-0.23764461407803789,-2.739704558890582,-16.835057910839012,26.9116497879359
6.719740801784747,4.151926264106103,-0.2650416596669437,-2.470588061011223,-16.014624166609362,25.92565683572809
6.761260064425808,3.9917800224400093,-0.28974754027705596,-2.211331492653942,-15.10388449610581,24.73356735426157
6.801177864650208,3.840741177478951,-0.31186085520359536,-1.9639958191113263,-14.197685650863068,23.47412842373554
6.839585276424998,3.6987643209703203,-0.3315008133947086,-1.729254534873971,-13.348258487982536,22.225750898632235
6.876572919634701,3.565281736090495,-0.3487933587434483,-1.5069970258876486,-12.581037298104803,21.028642966554813
6.912225736995606,3.4394713631094467,-0.36386332900232476,-1.2967105962221004,-11.905563915943038,19.900190949134906
6.946620450626701,3.3204157239500165,-0.37683043496454577,-1.0977086867307513,-11.322428160443696,18.84483249362569
6.979824607866201,3.2071914423455796,-0.3878075218318533,-0.9092603617944943,-10.827473344514017,17.860100106155336
7.011896522289656,3.0989167089004392,-0.39690012544979825,-0.730659360732941,-10.414254879423014,16.940200049312978
7.042885689378661,2.9947741601062092,-0.4042067190571277,-0.5612573602398112,-10.075431339082561,16.07807144497474
7.072833430979723,2.8940198467153837,-0.40981929265952577,-0.4004766457900638,-9.803521779481462,15.2665321249529
7.101773629446877,2.795984628920569,-0.4138240591174264,-0.2478113245405348,-9.591295411126442,14.498885305837218
7.129733475736083,2.7000716748093048,-0.4163021723628318,-0.10282247148216261,-9.43195299497893,13.769212579369537
7.156734192484176,2.6057521448595153,-0.4173303970776534,0.034869654311532744,-9.319193861381992,13.072487256431563
7.1827917139327715,2.5125602062456953,-0.4169817005345381,0.16559452687584839,-9.247223095785651,12.404586980804252
7.207917315995228,2.4200879752878386,-0.4153257552657796,0.2896403966838909,-9.210730054578562,11.762251711919987
7.232118195748106,2.327980674742053,-0.41242935129894065,0.40726291380309076,-9.204855591478793,11.14301379583657
7.255398002495527,2.235932118827265,-0.40835672216090974,0.5186930517614565,-9.225157305330498,10.545115473626966
7.277757323683799,2.14368054577396,-0.4031697916432952,0.6241442064977262,-9.267577437172992,9.967422550673758
7.299194129141538,2.05100477140223,-0.3969283495783179,0.7238184320044637,-9.328415365936538,9.409339120552275
7.31970417685556,1.9577206177428645,-0.38969016525827327,0.8179118232099865,-9.404305159592642,8.870726045600257
7.339281383032989,1.863677566146938,-0.3815110470261734,0.9066190836659891,-9.492197847329132,8.351824656763398
7.357918158694458,1.7687555876736467,-0.3724448561895135,0.990137330233623,-9.589347700603296,7.853186442393901
7.375605714571194,1.6728621106676138,-0.3625434828871773,1.0686691946575622,-9.6933016752315,7.375609110995551
7.39233433567787,1.5759290939152988,-0.3518567909406017,1.1424252857675177,-9.801891170165128,6.920079197705939
7.408093626617023,1.4779101822136476,-0.3404325380829265,1.211626077744577,-9.913225339194868,6.487721259198709
7.42287272843916,1.3787779288216988,-0.32831627730548074,1.276503290336564,-10.025685311769266,6.079753622547392
7.436660507727376,1.2785210757040062,-0.3155512444021151,1.337300826562038,-10.137918815339667,5.6974505970301434
7.449445718484417,1.1771418875506094,-0.30217823613649475,1.3942753325323396,-10.248834830057168,5.342111012457724
7.461217137359923,1.0746535392500378,-0.28823548281117134,1.4476964426569168,-10.357598038735933,5.015032908639409
7.471963672752423,0.9710775588626784,-0.2737585183846022,1.4978467717433108,-10.463622955784823,4.717494166818964
7.48167444834105,0.8664413293048302,-0.2587800506671691,1.5450217134115005,-10.566567725589378,4.450738845668188
7.490338861634099,0.7607756520489364,-0.24332983353305407,1.5895291018681823,-10.666327672352017,4.215968962563853
7.497946618154588,0.6541123753254162,-0.22743454251437226,1.6316887914938207,-10.76302875932777,4.014341446086074
7.504487741907842,0.5464820877321385,-0.21111765459943405,1.6718322059546815,-10.857021175879444,3.8469699781225053
7.5099525627851635,0.437911875973344,-0.19439933253988723,1.7103019057359066,-10.948873316124645,3.714931442998069
7.514331681544897,0.32842314281209756,-0.17729631348252817,1.7474512201658872,-11.03936644327919,3.619276704972077
7.517615912973018,0.21802947837930564,-0.15982180128086929,1.783643987215608,-11.129490348677187,3.561045441150664
7.519796207756811,0.10673457489253377,-0.1419853614087132,1.8192544416271146,-11.220440312379665,3.5412847593346304
7.520863553505737,-0.00546982823126288,-0.12379281699244206,1.854667289220461,-11.313615650058688,3.561071321818377
7.520808855223424,-0.11860598473184976,-0.10524614410023744,1.8902780024386447,-11.41062008253887,3.621536664937422
7.5196227953761055,-0.23271218555723844,-0.086343364075851,1.926493369088019,-11.513264079883472,3.723895332526544
7.517295673520533,-0.34784482635607317,-0.0670784303849708,1.9637323224132845,-11.62356919470119,3.8694753026712565
7.513817225256973,-0.46408051830308505,-0.04744110716083795,2.0024270754399973,-11.743774183077498,4.059749940754672
7.509176420073942,-0.58151826013386,-0.027416836406437977,2.043024574847544,-11.876342374842109,4.29637029637323
7.503361237472603,-0.7002816838822811,-0.006986590657962536,2.0859882778112766,-12.02396923344074,4.581195883638442
7.49635842063378,-0.8205213762166885,0.013873292120150229,2.131800236647661,-12.189588240015743,4.916321000881034
7.488153206871613,-0.942417258616846,0.03519129448662684,2.1809634466564716,-12.37637199326597,5.304091938698976
7.478729034285444,-1.0661809785495058,0.05700092895319156,2.2340043660434614,-12.587723501372508,5.747107761696002
7.468067224499949,-1.192058213563231,0.07934097261362617,2.2914754436604214,-12.82724969626739,6.248193222404603
7.456146642364317,-1.3203307105259048,0.1022557270502304,2.3539573758844674,-13.09870468061891,6.81032600914323
7.4429433352590575,-1.451317757332094,0.12579530080907508,2.4220606359758996,-13.405883310546235,7.436490795554659
7.428430157685736,-1.5853765904375563,0.1500159071688341,2.496425543931446,-13.752435226535072,8.129417762517075
7.412576391781361,-1.722900942702907,0.17498016260814855,2.5777197215566168,-14.141553668917194,8.89114100284478
7.395347382354331,-1.864316479392079,0.20075735982371473,2.6666311315850644,-14.575470061341942,9.72227926418986
7.376704217560411,-2.0100711800054984,0.22742367113956538,2.763853924226963,-15.054651655305886,10.620893939049996
7.356603505760356,-2.1606176965585573,0.255062210381835,2.870062863617463,-15.576552992552692,11.58071352288611
7.3349973287947705,-2.316383226484084,0.28376283901800964,2.9858699988463244,-16.133712543954548,12.588429878033853
7.31183349652993,-2.4777203519236295,0.3136215390064729,3.111754297626663,-16.710921787299487,13.61968100732124
7.287056293010694,-2.644829569796624,0.3447390819827395,3.2479511076998753,-17.281154302912224,14.63327858036465
7.260607997312728,-2.8176411128257466,0.37721859305973826,3.3942838935035216,-17.8000027115009,15.563322454179403
7.23243158618447,-2.9956411399407554,0.4111614319947735,3.5499171180453155,-18.1986963063704,16.30930112621388
7.202475174785063,-3.1776281030044595,0.44666060317522666,3.713010129307454,-18.376666548170792,16.72553586216961
7.170698893755018,-3.3613947684861674,0.4837907044683012,3.8802654879291505,-18.196525467505907,16.614000616331452
7.137084946070156,-3.5433600231612266,0.5225933593475927,4.046405494092465,-17.487506798312538,15.729043348548068
7.101651345838544,-3.718235091144352,0.5630574142885173,4.203695927577946,-16.067068803128397,13.807696779254034
7.0644689949271005,-3.878905779175636,0.6050943735642967,4.341772895370486,-13.79072850762747,10.63983661528371
7.025679937135344,-4.01681306425191,0.6485121025180016,4.448171261523323,-10.629704031400925,6.177738558343426
6.985511806492824,-4.12311010456592,0.6929938151332349,4.509948647106757,-6.74899676623251,0.6466922429458574
6.944280705447165,-4.1906000722282455,0.7380933016043024,4.516415569536216,-2.5285253503283487,-5.424011532139616
6.902374704724882,-4.215885325731529,0.7832574572996646,4.46217545421482,1.522144794504324,-11.31952971178447
6.860215851467567,-4.200663877786486,0.8278792118418128,4.348980157096975,4.9331490706594385,-16.37653038977494
6.818209212689702,-4.151332387079892,0.8713690134127825,4.185214853199225,7.426656331158422,-20.19733858864315
6.776695888818903,-4.077065823768307,0.9132211619447748,3.983241467312794,8.961386229888875,-22.713661829687254
6.73592523058122,-3.9874519614694184,0.9530535766179027,3.7561048490159212,9.670725568363084,-24.101380580392888
6.696050710966525,-3.8907447057857873,0.9906146251080619,3.515091043211992,9.763317653655449,-24.642438181881953
6.657143263908667,-3.793111529249233,1.0257655355401818,3.2686666613931727,9.445976450885507,-24.617461281164278
6.619212148616175,-3.698651764740378,1.0584522021541136,3.02249204858153,8.886322038161172,-24.253531163958534
6.582225630968771,-3.6097885443587665,1.088677122639929,2.7799567369419447,8.204990205724464,-23.713079542888526
6.546127745525183,-3.527738642301522,1.1164766900093483,2.542825941513059,7.4821259672604725,-23.10267522799081
6.510850359102168,-3.4529173826289172,1.1419049494244788,2.311799189233151,6.7678075906800625,-22.487317441522997
6.476321185275879,-3.3852393067221165,1.1650229413168103,2.086926014817921,6.091612951071811,-21.90358257771906
6.442468792208658,-3.3243231772113986,1.1858922014649895,1.8678901890407307,5.469904070773472,-21.36964320067844
6.409225560436544,-3.269624136503664,1.2045711033553967,1.6541937570339462,4.9108790499223485,-20.892223269934778
6.376529319071507,-3.2205153460044404,1.2211130409257362,1.4452715243345984,4.417887832499717,-20.471174288970232
6.344324165611463,-3.176336467679443,1.2355657561690823,1.240559781444896,3.9915291101663977,-20.102386355922544
6.312560800934668,-3.1364211765777794,1.2479713539835313,1.0395359178856707,3.6309370805373744,-19.779597986726483
6.28119658916889,-3.1001118057724057,1.2583667131623881,0.8417399380184059,3.3345466396588006,-19.495502449059373
6.250195471111166,-3.0667663393758176,1.2667841125425723,0.6467849135278121,3.100529445890382,-19.242415354285605
6.219527807717408,-3.0357610449169137,1.2732519616778504,0.45436075998495606,2.927025204342369,-19.012673973074747
6.189170197268239,-3.00649079287349,1.2777955692776999,0.2642340202542086,2.8122471392587065,-18.798875748842168
6.159105289339504,-2.978368321480903,1.280437909480242,0.07624526276578694,2.7545113781259487,-18.594022704905417
6.1293216061246945,-2.9508232076996435,1.2812003621079,-0.10969496428326722,2.7522215014011477,-18.39161248579399
6.099813374047698,-2.923300992685632,1.2801034124650674,-0.29361108914120715,2.8038279917304783,-18.185700393076683
6.070580364120842,-2.8952627127683273,1.2771673015736553,-0.475468093071974,2.907775188022317,-17.97094647979069
6.041627736993158,-2.8661849608881043,1.2724126206429356,-0.655177557869881,3.0624439566817734,-17.74265531183657
6.0129658873842775,-2.8355605213212867,1.2658608450642368,-0.8326041109882467,3.2660955818060793,-17.496811976727145
5.984610282171064,-2.802899565503226,1.2575348039543544,-1.0075722307555182,3.5168206857065285,-17.230115439588012
5.956581286516032,-2.7677313586461607,1.2474590816467992,-1.1798733851513983,3.8124959071956406,-16.94000886691382
5.928903972929571,-2.7296063995742044,1.2356603477952852,-1.3492734738205365,4.1507503319277,-16.624705719847526
5.901607908933829,-2.6880988962549273,1.2221676130570798,-1.5155205310190119,4.528943131050255,-16.283210045660613
5.8747269199712795,-2.642809464944425,1.2070124077468896,-1.678352631475618,4.944153429342123,-15.915329329360237
5.8482988253218355,-2.5933679306510036,1.1902288814321333,-1.8375059247692205,5.393183039810889,-15.521678413267894
5.822365146015326,-2.5394361002528947,1.1718538221844412,-1.9927227089018995,5.87257234129624,-15.10367328533584
5.796970785012797,-2.4807103768399323,1.1519265950954223,-2.143759441755258,6.378629226961691,-14.663513929202953
5.772163681244398,-2.4169240845703155,1.1304890006778696,-2.2903945810472877,6.907470711380995,-14.204155885261088
5.747994440398695,-2.3478493774565057,1.1075850548673967,-2.4324361398998984,7.455076453850662,-13.729270666188688
5.7245159466241295,-2.273298612917999,1.0832606934683977,-2.569728846561785,8.01735314008786,-13.243195683276136
5.70178296049495,-2.1931250815171204,1.0575634050027798,-2.7021608033945466,8.590208370294736,-12.750874856969071
5.679851709679779,-2.107222997814173,1.0305417969688344,-2.8296695519642374,9.169632437667698,-12.257791594533847
5.6587794797016375,-2.0155266734374964,1.002245101449192,-2.952247467909576,9.751786159414719,-11.769896308109045
5.638624212967263,-1.9180088118433491,0.9727226267700962,-3.069946430990666,10.33309275650259,-11.293531104572557
5.619444124848829,-1.8146778842783233,0.9420231624601896,-3.1828817420363915,10.910331684943843,-10.835354688669007
5.601297346006046,-1.705574567428885,0.9101943450398257,-3.2912352889230814,11.480732316907108,-10.402270863496566
5.584241600331757,-1.5907672442598138,0.8772819921505949,-3.3952579975580472,12.042065468028515,-10.001364265791176
5.568333927889159,-1.4703465895795287,0.8433294121750144,-3.495271640215959,12.59273097502833,-9.639847113792229
5.553630461993364,-1.3444192798292454,0.8083766957728549,-3.5916701113538814,13.131839840489441,-9.325020748046741
5.540186269195071,-1.213100881424351,0.772459994659316,-3.6849203188343487,13.65928985747117,-9.06425558327944
5.528055260380827,-1.0765079828496391,0.7356107914709725,-3.775562874667143,14.175834059308148,-8.864992728252338
5.517290180552331,-0.9347496422565577,0.697855162724301,-3.8642128019496664,14.683141729846335,-8.734769917653862
5.507942684129766,-0.7879182249580943,0.6592130347048044,-3.951560501126205,15.18385192950987,-8.681273442420165
