th1 (rad),w1 (rad/s),th2 (rad),w2 (rad/s)
4.0718098510174405,2.948779335948161,2.788560761150168,0.4007210913770123
4.101297644376922,3.022527537028808,2.7925679720639383,0.4293059957693208
4.13152291974721,3.0973230651619663,2.7968610320216314,0.4646514968088275
4.16249615039883,3.173241528342189,2.8015075469897197,0.5070440361073559
4.194228565682252,3.2503578659742627,2.8065779873507934,0.5567797599370159
4.2267321443419945,3.328743931472239,2.8121457849501637,0.6141644342826702
4.2600195836567165,3.408465709718448,2.8182874292929903,0.6795129499447525
4.294104240753901,3.4895801285969053,2.8250825587924377,0.7531483220316753
4.32900004203987,3.5721314199228758,2.8326140420127546,0.8354000816417516
4.364721356239099,3.6561469826164448,2.840968042829172,0.9266019520859085
4.401282826065263,3.7416327006388808,2.850234062350031,1.0270886983686727
4.438699153071652,3.82856767086839,2.8605049493337176,1.1371920378035039
4.476984829780336,3.916898302690731,2.8718768697117527,1.2572355028321234
4.516153812807243,4.006531762668716,2.884449224740074,1.3875281558435242
4.55621913043393,4.097328755338201,2.8983245062985095,1.52835707175844
4.597192417987312,4.1890956560551444,2.913608077016094,1.679978529204416
4.639083374547863,4.2815760448853295,2.930407862308138,1.8426078871053644
4.6818991349967165,4.374441732553536,2.9488339411791915,2.0164081721211935
4.725643552322252,4.4672834208347085,2.9689980229004034,2.2014774648626076
4.770316386530599,4.559601200295912,2.9910127975490295,2.3978352497594035
4.815912398533558,4.650795157061381,3.0149911500466233,2.605407984502872
4.862420350104172,4.740156435447515,3.041045229891652,2.8240142485266357
4.909821914458647,4.8268591820587865,3.0692853723769185,3.0533499430644935
4.958090506279235,4.909953875350635,3.0998188718075634,3.2929741335398472
5.007190045032742,4.988362617834542,3.132748613142962,3.5422962427331854
5.057073671211087,5.060877030188895,3.1681715755702937,3.8005654137172353
5.107682441512976,5.126159430907086,3.206177229707466,4.066862957797949
5.158944035822047,5.182748004356468,3.246845859285446,4.340098877413668
5.210771515865611,5.229066645942683,3.290246848059583,4.619013500016182
5.263062182325037,5.263440115941073,3.3364369830597447,4.902185269229127
5.315696583484448,5.2841150221877395,3.385458835752036,5.188045706142941
5.368537733706326,5.289286972752664,3.437339292813465,5.474902466667639
5.421430603433852,5.277133977439601,3.4920883174801416,5.760971267617947
5.474201943208248,5.245855815357195,3.5496980301563212,6.044417218545845
5.52666050136182,5.1937186116643845,3.6101422023417795,6.323405760577714
5.578597687478464,5.119103275675815,3.6733762599475566,6.596162963257364
5.629788720235222,5.020555757983531,3.7393378895801304,6.861044363139119
5.679994277815058,4.896836325890958,3.8079483332115216,7.1166108646877495
5.728962641073967,4.746964307605976,3.879114441858399,7.3617095217657
5.776432284150027,4.570254123551934,3.952731537076056,7.5955563774506825
5.822134825385546,4.366338038356309,4.028687100850563,7.817818104563036
5.865798205769109,4.135171059411557,4.1068652818961935,8.028689129375131
5.907149916363225,3.8770138713759352,4.187152173189944,8.228961402192176
5.945920055076984,3.592390650753124,4.269441787211866,8.420085119001026
5.981843961584516,3.282019970535371,4.353642638401876,8.604220524284234
6.014664161289869,2.946718603676603,4.439684843644718,8.784283335335985
6.044131347326635,2.587279638296364,4.527527676998078,8.9639890727822
6.070004143709599,2.20432776040961,4.6171675677259,9.147904234497963
6.092047421313695,1.7981559334561126,4.70864661007088,9.341514117822335
6.110028980648256,1.3685497089824645,4.802061751249103,9.551316922687246
6.123714477738081,0.9146100366194903,4.897574920475975,9.784948933725458
6.1328605781042755,0.43459748178263446,4.995424409813229,10.051330102542968
6.137206552922102,-0.07414887185456454,5.095937710838659,10.360779195772608
6.1364650642035565,-0.615091213879611,5.1995455027963855,10.724950033436029
6.13031415206476,-1.1918741191908455,5.306795003130746,11.1562107120023
6.118395410872852,-1.8065292387844405,5.418357110250769,11.66556896255487
6.100330118485007,-2.455049821574808,5.535012799876317,12.257170584198851
6.075779620269259,-3.117637849143966,5.657584505718305,12.91562883115008
6.0446032417778195,-3.7405107811327767,5.786740794029806,13.581684677346292
6.007198133966492,-4.2134728409889215,5.922557640803269,14.121367072886832
5.965063405556602,-4.376889725479564,6.063771311532138,14.333787973273523
5.9212945083018065,-4.118063805781222,6.207109191264873,14.07867344501132
5.880113870243994,-3.5002272679669897,6.347895925714987,13.445536883656002
5.845111597564324,-2.713230485194015,6.482351294551547,12.681506130350158
5.817979292712384,-1.9076327555532657,6.609166355855049,11.970824507216815
5.798902965156851,-1.1456925834036982,6.728874600927217,11.377915414574918
5.787446039322814,-0.4391579065328226,6.842653755072966,10.902741143318817
5.783054460257486,0.2176082411294099,6.951681166506154,10.52523455741784
5.7852305426687805,0.8334613524121469,7.056933512080333,10.22300316313752
5.793565156192902,1.4159736876182694,7.159163543711708,9.976240952895157
5.807724893069085,1.9704287554687767,7.258925953240659,9.768354800272599
5.827429180623772,2.499893294685348,7.356609501243385,9.585480131808275
5.8524281135706255,3.005564650930859,7.452464302561468,9.415875366770162
5.882483760079934,3.4871567550311915,7.54662305622917,9.249453504462654
5.917355327630245,3.9432685140568235,7.639117591273797,9.077485950241776
5.956788012770813,4.371729319240543,7.729892450776214,8.892451870738729
6.000505305963219,4.769925175731852,7.818816969483602,8.687992907788738
6.0482045577205374,5.135105337381689,7.905696898561489,8.458933151368267
6.099555611094354,5.464663646330267,7.990286230075172,8.201328180244355
6.154202247557657,5.756384827029562,8.072299511877615,7.912512611367392
6.211766095827953,6.008645020474729,8.151424637991289,7.59112262251925
6.2718525460327,6.220557820581644,8.227335864216482,7.237077926633146
6.334058124238516,6.392061142028579,8.299706643482812,6.851515841591963
6.397978735658802,6.523945164788011,8.368221801898732,6.436677378340274
6.463218187306682,6.617826160980443,8.432588575682136,5.995750841146462
6.529396448916486,6.6760744038506505,8.4925460840936,5.532681991775606
6.596157192954993,6.701706321283143,8.547872904011356,5.051961617625968
6.663174256167824,6.698251782217103,8.598392520187616,4.55840193054665
6.730156773989996,6.6696073053997535,8.643976539493083,4.056913167330376
6.7968528470439935,6.619885425343056,8.684545671166386,3.5522913570091257
6.863051701297424,6.553269614110103,8.720068584736477,3.049027426254236
6.9285843974385255,6.473883018969222,8.75055885899902,2.5511463988941134
6.993323227628218,6.385677734647646,8.77607032298796,2.062083212019315
7.057180004974694,6.292349346811684,8.796691155108153,1.5845986544024522
7.120103498442811,6.1972791709810995,8.812537141652177,1.1207354610094225
7.182076290152622,6.103504220472002,8.823744496262272,0.6718112031676047
7.243111332357342,6.013712778478437,8.830462608293947,0.23844185946281427
7.303248460142127,5.930261781832419,8.832847026888576,-0.17941174176770197
7.362551077960451,5.855211168933241,8.831052909470898,-0.5823828626347033
7.421103189649783,5.790369850003153,8.82522908084455,-0.9716306561694886
7.479006888149815,5.7373478057966425,8.815512774282857,-1.348770445854763
7.536380366207782,5.697608647516488,8.802025069824309,-1.7158052619110935
7.593356452682946,5.672516267236091,8.784867017205197,-2.075057475900153
7.650081615355307,5.663367267811299,8.764116442446197,-2.4290938300723894
7.70671528803342,5.671396652457054,8.739825504145474,-2.7806288664360843
7.763429254557991,5.697736227736297,8.712019215481114,-3.132378703469151
7.820406616835354,5.7432911101624,8.680695428446422,-3.4868162141907395
7.8778395279369775,5.808477050601469,8.645827266304513,-3.8457463016820337
7.935924298442992,5.892729214569964,8.607369803287693,-4.2095750304296695
7.994851590588691,5.99366019321982,8.565274052983396,-4.576100982845167
8.05478819252089,6.105750051157362,8.519513043154944,-4.9386657928594015
8.115845693032464,6.218604230513119,8.47012638522635,-5.28371806435891
8.178031735337594,6.315332027865267,8.417289204582762,-5.5885736738449046
8.241185055616247,6.3726504425222545,8.361403467844312,-5.821633944374732
8.30491156004147,6.3652982829589595,8.303187128400564,-5.948690863125137
8.36856454287106,6.2758588864234515,8.243700219769313,-5.946830566830523
8.431323131735294,6.10512190471732,8.184231914101007,-5.81902254130462
8.492374350782466,5.87342638172751,8.12604168868796,-5.595905467903659
8.551108614599741,5.6103767654351655,8.070082634008925,-5.32113879393931
8.607212382254092,5.342246633654197,8.016871246069531,-5.033519000274881
8.660634848590634,5.085994674710935,7.966536056066782,-4.758476129369895
8.711494795337744,4.849833735576745,7.918951294773083,-4.508863948980141
8.759993132693511,4.636209956543498,7.873862655283282,-4.28918362205048
8.806355232258946,4.444494909295546,7.830970819062777,-4.0994184457670375
8.850800181351902,4.272707338300698,7.789976634605107,-3.9375024886113144
8.89352725473491,4.118440976702778,7.750601609718994,-3.8006652513660057
8.934711664501938,3.979307230306952,7.712594957205334,-3.6860857134608227
8.974504736805008,3.8531185346282966,7.675734100070725,-3.591174388678967
9.01303592215129,3.7379442336107336,7.639822356183935,-3.5136703199472725
9.050415364487398,3.6321085551617482,7.604685652984463,-3.4516522121511852
9.086736450039016,3.5341653041836527,7.570169130862951,-3.4035134237080364
9.122078103080852,3.4428657022041995,7.53613399662587,-3.367924626309188
9.156506760102895,3.3571267331945647,7.502454750362778,-3.343794895447812
9.19007802743484,3.276002987274497,7.4690168014083005,-3.330235593946633
9.222838057307586,3.1986629833582585,7.435714445468834,-3.326528343550239
9.254824687141168,3.124370104330417,7.4024491620333315,-3.3320969470304385
9.286068388184471,3.052467999011169,7.369128192563027,-3.346482469401376
9.316593068174583,2.982370302022553,7.335663367869013,-3.3693203843572985
9.346416771194809,2.9135546544419606,7.30197016402544,-3.4003185294083775
9.375552317739228,2.8455612064562095,7.267966978731357,-3.4392344889901754
9.40400792980379,2.777996011775201,7.233574633841455,-3.4858508974194002
9.43178788992154,2.7105399543786186,7.198716124867261,-3.539947020316095
9.458893289465326,2.642964044778858,7.1633166546641,-3.601264866802345
9.485322929913115,2.5751520246961466,7.127304005996076,-3.6694680815790837
9.511074450160077,2.5071311241313015,7.090609325180285,-3.7440921013886603
9.53614576140139,2.439111363856147,7.0531684041663985,-3.8244847483756383
9.56053687503995,2.371532762866192,7.014923556682642,-3.909737876959904
9.584252202668612,2.3051179162008224,6.975826177913043,-3.9986132631978557
9.60730338183062,2.2409243953888565,6.935840045281065,-4.089469971888636
9.629712625784508,2.1803872248496954,6.894945345562179,-4.180206047579435
9.651516498033006,2.1253367353031645,6.853143285086384,-4.2682339775030655
9.672769865386037,2.0779727324412196,6.810460945311354,-4.3505151822249895
9.693549592710449,2.0407747096591384,6.766955793489104,-4.42368039435891
9.71395733980704,2.0163333077714856,6.722718989545515,-4.484255496420572
9.734120672884755,2.0071034473280664,6.67787643458131,-4.52899214374408
9.754191707358036,2.015104336832015,6.6325865131438695,-4.555269581546738
9.774342750726356,2.0416194945471484,6.587033817328402,-4.5614970092235705
9.794758945671829,2.0869682710497734,6.541418847236167,-4.547421574241227
9.815628628382326,2.1504155196263897,6.495944631493755,-4.514253587978968
9.83713278357859,2.2302532998842586,6.450802095613965,-4.464564008903634
9.859435316577432,2.3240386404687086,6.406156455524929,-4.401975210978686
9.88267570298212,2.428926699225341,6.362136703415143,-4.330725111486988
9.906964969974373,2.5420190519166823,6.318829452300273,-4.255210702480127
9.93238516049354,2.660657440416331,6.276277345275472,-4.17960327835559
9.958991734897703,2.7826235489793767,6.234481312491916,-4.107588124098141
9.986817970387497,2.9062385058533975,6.193405431250934,-4.042238080546866
10.015880355446031,3.030379418563027,6.1529830504454655,-3.9859994585563405
10.046184149631662,3.154440511472993,6.113123055859902,-3.9407552542625766
10.077728554746392,3.278266044712918,6.073715503317277,-3.9079310415990345
10.11051121519352,3.402076174301005,6.034636192901286,-3.8886167916735888
10.14453197693653,3.5263995370714705,5.99575002498455,-3.883687661118194
10.179795972307245,3.652020060411608,5.956913148373368,-3.893915329946009
10.21631617291136,3.7799411667272764,5.917973995073908,-3.9200676391586073
10.254115584578633,3.9113680937607227,5.878773318682321,-3.962998179258618
10.29322926551624,4.047708042865327,5.839143336889735,-4.023729696518156
10.333706345944893,4.190587813911861,5.798906039924553,-4.103536345185659
10.375612224084012,4.341889085649448,5.757870676472696,-4.204030399751094
10.419031114940507,4.50380222899892,5.715830372475185,-4.327259297461869
10.464069137230496,4.678900155005786,5.672557779500567,-4.475818740089524
10.510858138780554,4.870233635832585,5.627799592099671,-4.652986465447211
10.55956047513888,5.081447593810396,5.581269727445199,-4.862877596453819
10.610374951076984,5.316911272474878,5.532640951480661,-5.11061232064728
10.663544063801734,5.5818376130296254,5.481534828274189,-5.402461057362085
10.71936243993203,5.8823239716839435,5.427510217700568,-5.745870675145998
10.77818567964887,6.225144882827498,5.370051510949108,-6.149131780359176
10.840437128477145,6.616898795897715,5.308560193145516,-6.620124407591716
10.906606116436123,7.061628491079365,5.242358949069599,-7.162900281251727
10.977222401346916,7.555169190174207,5.170729946257082,-7.769641459018671
11.052774093248658,8.073602507499855,5.0930335316668955,-8.404303581721647
11.133510118323656,8.555281061464525,5.008990495849679,-8.977193865322274
11.219062928938301,8.890044189511492,4.919218557196457,-9.329676428230636
11.307963370833416,8.957589394896514,4.8259217929141505,-9.288135414010895
11.397539264782381,8.731660411227047,4.733040438774042,-8.81078010701965
11.484855868894652,8.325152600061362,4.644932637703845,-8.051763398428285
11.568107394895266,7.884639228322925,4.564415003719562,-7.213759845621101
11.646953787178495,7.49471832666507,4.4922774052633505,-6.4136563035880165
11.721900970445146,7.181163858237737,4.42814084222747,-5.686320772777836
11.793712609027523,6.9427533588276695,4.371277634499692,-5.028706864703439
11.8631401426158,6.770351735197158,4.320990565852657,-4.426415031417123
11.93084365996777,6.6541980685051465,4.276726415538486,-3.8639193220435346
11.997385640652823,6.585963971124173,4.238087222318051,-3.32755723276435
12.063245280364065,6.558995356648106,4.204811649990408,-2.8060192063550664
12.128835233930547,6.56802764389443,4.176751457926857,-2.290134442796646
12.194515510369492,6.608800896291076,4.1538501134988906,-1.772550776117984
12.260603519332403,6.677698595750543,4.13612460573771,-1.2474824964008617
12.327380505289907,6.771436731944419,4.123649780773702,-0.7105590448124378
12.395094872609352,6.886803718155647,4.116544190325578,-0.15876233515669502
12.463962909790908,7.020448873470011,4.114956566974011,0.40957426498628735
12.534167398525607,7.168721244319755,4.119052309623874,0.9947380327648857
12.605854610968805,7.3275651065896055,4.128999689951523,1.595615487369133
12.6791302620347,7.4924806505368196,4.144955844825215,2.2097125913049633
12.754055068540069,7.65855642489773,4.167052970738264,2.8332465521734695
12.830640632789047,7.820573493496816,4.195385436259999,3.461327728998406
12.908846367724015,7.973170811815199,4.229998713549983,4.088232464610845
12.988578075842167,8.111049657069778,4.270881038196091,4.707746693737135
13.069688572412865,8.229185857855576,4.317958505133462,5.313541238784973
13.15198043099142,8.32301575173259,4.3710939175213115,5.8995288067055665
13.235210588508746,8.388567130344269,4.430089205588367,6.46015394174864
13.31909625981219,8.422518939780803,4.494690745005854,6.990580716725552
13.403321449209997,8.42218966260876,4.564596552173109,7.486764716009072
13.487543345836086,8.385469563995635,4.6394641993332,7.945419424730871
13.571398041476042,8.31072260734357,4.718918393580509,8.363906344298998
13.654505267549478,8.19668807082807,4.802557457023499,8.740089259306059
13.736472148257759,8.042409928937323,4.88995834961656,9.072195291077552
13.816896247547133,7.84721525953787,4.980680302527335,9.358720016569896
13.895368400142512,7.610752875259814,5.074267502693034,9.598403125612482
13.97147592889511,7.333091364611195,5.170251533949158,9.790286776726553
14.044806842541222,7.01486289839155,5.268154401716424,9.93385256066795
14.114955471525137,6.657426945581535,5.367492927323103,10.029216423727146
14.181529740980952,6.263018595981138,5.4677850915603745,10.077346328827185
14.244159926940764,5.834842271592869,5.5685585548486465,10.080257961677683
14.302508349656692,5.3770757859182785,5.669361134465423,10.041142725362617
14.356279107515876,4.894762957801121,5.76977256171905,9.964391675314804
14.405226737093887,4.393593458815017,5.869416478472198,9.855498200353285
14.449162671682037,3.879591409200836,5.967971460475731,9.720846965916692
14.487958585774045,3.358752938964704,6.065179930134898,9.567420235878584
14.521546115163693,2.836681895194844,6.160854132493683,9.402468496532954
14.54991293411564,2.3182697822903346,6.254878817459013,9.233196353616014
14.573095631938545,1.8074527033800456,6.347210780995173,9.066507193614914
14.591170158972345,1.3070594304188032,6.437875852931322,8.90883499920964
14.604240753276533,0.818746434574833,6.526964202923418,8.76607450688635
14.612428217622282,0.34300202230187377,6.614624947992281,8.643606416737189
14.615858237845302,-0.12080552878340794,6.701061012159653,8.5464052830809
14.614650182557467,-0.574362114054323,6.786525064990462,8.479214294077073
14.608906561416925,-1.0203470700540955,6.871317207931233,8.446771772487299
14.598703090716384,-1.4623936254117642,6.955784925656106,8.454075967978483
14.584079154462266,-1.9050761628630353,7.04032568533589,8.506673168816071
14.565028392833636,-2.3539122306016242,7.1253924170240515,8.6109417753871
14.54148927052762,-2.815332011858789,7.2115018347779225,8.774306342567435
14.513335950409033,-3.2964910058550836,7.299244898203597,9.005216893974632
14.480371040350482,-3.804630237072045,7.389297067143343,9.3124965598598
14.442324737979762,-4.345319030535002,7.482422032741941,9.70314940146911
14.398871547674412,-4.918201227589162,7.579453526756632,10.176719176659663
14.34968953539852,-5.507873672666055,7.681220718523229,10.712875033964405
14.29461079867186,-6.067873091569345,7.788349468862873,11.24929265954038
14.233932067756166,-6.504127617078787,7.900842395458277,11.658403503383129
14.168890791585378,-6.689855400630302,8.017426430492108,11.76711026263976
14.101992237579076,-6.552144652949466,8.135097533118506,11.475118253604313
14.036470791049581,-6.1599947245163715,8.249848715654549,10.874734721441955
13.974870843804418,-5.6654135198740985,8.358596062868969,10.168690548287184
13.918216708605677,-5.181124877190031,8.46028296835184,9.503842832110873
13.866405459833777,-4.752030404115037,8.55532139667295,8.934996258667038
13.818885155792627,-4.384726150391325,8.64467135925962,8.466584747757603
13.775037894288714,-4.072208862925952,8.729337206737195,8.086286273407326
13.734315805659454,-3.8046816581365546,8.810200069471268,7.779265018405386
13.696268989078089,-3.573086596788771,8.887992719655323,7.532563991405861
13.6605381231102,-3.3699066565621663,8.963318359569381,7.335913601955742
13.62683905654458,-3.1891083799412367,9.03667749558894,7.181471381467449
13.594947972745167,-3.0258792191502994,9.108492209403614,7.063341237915574
13.564689180553664,-2.876365898313779,9.17912562178277,6.977120304430733
13.535925521570526,-2.7374693766394707,9.248896824827078,6.919523500819819
