th1 (rad),w1 (rad/s),th2 (rad),w2 (rad/s),a1 (rad/s^2),a2 (rad/s^2)
3.893165205710884,-3.027448092422803,2.666664349325755,2.4205391539568164,3.429344571040261,2.9887432582892175
3.862890724786656,-2.9931546467124,2.690869740865323,2.4504265865397086,3.169693454622896,2.756227699473101
3.8329591783195323,-2.961457712166171,2.71537400673072,2.4779888635344394,2.929770563670405,2.55040440111932
3.8033446011978707,-2.9321600065294673,2.7401538953660647,2.5034929075456325,2.707988356154599,2.3679050035416456
3.774023001132576,-2.9050801229679215,2.765188824441521,2.5271719575810487,2.5030180326315588,2.205595598339621
3.7449721999028966,-2.8800499426416057,2.7904605440173316,2.549227913564445,2.31378391480592,2.060524558090539
3.7161717004764805,-2.8569121034935465,2.8159528231529762,2.5698331591453507,2.139458386763533,1.9298735052726461
3.687602579441545,-2.835517519625911,2.84165115474443,2.589131894198077,1.979456189901603,1.8109136219754418
3.659247404245286,-2.815722957726895,2.867542473686411,2.6072410304178315,1.8334259431654283,1.7009704508509642
3.631090174668017,-2.797388698295241,2.893614883990589,2.624250734926341,1.7012356762991405,1.597401637211581
3.6031162876850646,-2.7803763415322496,2.9198573913398524,2.6402247512984567,1.5829479726318505,1.4975935968894423
3.575312524269742,-2.7645468618059312,2.946259638852837,2.6552006872673513,1.478779199904519,1.3989845848101718
3.547667055651683,-2.749759069806886,2.9728116457255105,2.669190533115453,1.3890366300334087,1.2991225494947864
3.520169464953614,-2.735868703506552,2.999503551056665,2.682181758610401,1.314027617506103,1.1957656221300743
3.492810777918548,-2.722728427331491,3.026325368642769,2.6941394148317017,1.2539372556419115,1.0870299210635377
3.465583493645233,-2.710189054775072,3.053266762791086,2.7050097140423373,1.2086759666581037,0.971582270874418
3.4384816030974825,-2.698102295108491,3.0803168599315094,2.7147255367510814,1.177706887208055,0.8488636170624673
3.411500580146398,-2.6863252262364106,3.1074641152990203,2.723214172921706,1.1598742716708181,0.7193129464193612
3.384637327884034,-2.674726483519702,3.1346962570282373,2.7304073023858995,1.1532662521909347,0.5845444996977857
3.3578900630488366,-2.663193820997793,3.1620003300520962,2.7362527473828773,1.1551537563148444,0.4474192052959753
3.331258124838859,-2.6516422834346445,3.189362857525925,2.740726939435837,1.1620462548654558,0.3119529328896267
3.3047417020045122,-2.64002182088599,3.2167701269202835,2.7438464687647333,1.1698892267791063,0.1830264959175596
3.278341483795652,-2.6283229286181986,3.244208591607931,2.7456767337239087,1.1743972743697166,0.06590601808798677
3.2520582545094703,-2.6165789558745014,3.27166535894517,2.7463357939047888,1.1714777373631953,-0.034362623336227145
3.2258924649507255,-2.6048641785008693,3.299128716884218,2.7459921676714263,1.1576663881469074,-0.11357474199765803
3.199843823165717,-2.5932875146194,3.3265886385609322,2.7448564202514496,1.1304844951966584,-0.168875445155421
3.173910948019523,-2.5819826696674335,3.354037202763447,2.7431676657998953,1.0886431130254195,-0.19905169402613948
3.1480911213228486,-2.571096238537179,3.381468879421446,2.741177148859634,1.0320609513178172,-0.20456084379815737
3.1223801589374767,-2.560775629024001,3.408880650910042,2.7391315404216523,0.9617106861933171,-0.18731712347520418
3.0967724026472365,-2.551158522162068,3.436271966314259,2.7372583691869004,0.8793467710123049,-0.15031130626502548
3.0712608174256157,-2.542365054451945,3.4636445500061277,2.73575525612425,0.7871842202532306,-0.09716182795216174
3.045837166881096,-2.5344932122494126,3.49100210256737,2.7347836378447283,0.6875919624520335,-0.03168715836336419
3.020492234758602,-2.527617292624892,3.5183499389458173,2.734466766261095,0.5828441023597851,0.042439468966836084
2.995216061832353,-2.5217888516012943,3.545694606608428,2.734891160950763,0.47494825975465343,0.12192603054217924
2.9699981733163403,-2.5170393690037476,3.573043518217936,2.736110421256185,0.36555006939711465,0.20398979076388027
2.9448277796263027,-2.5133838683097762,3.6004046224304975,2.738150319163824,0.2559005172428058,0.2863963562015075
2.919693940943205,-2.510824863137348,3.6277861256221358,2.741014282725839,0.14686788605865206,0.3674354371737635
2.894585692311831,-2.5093561842767618,3.655196268449394,2.7446886370975765,0.038976551143500786,0.4458583256799564
2.8694921304690637,-2.508966418765327,3.6826431548203695,2.749147220354376,-0.06754180583512716,0.5207973470374938
2.8444024662814105,-2.509641836823678,3.7101346270239133,2.754355193824751,-0.17269479227778534,0.5916815616837913
2.8193060479131735,-2.511368784746456,3.737678178962161,2.760272009441589,-0.2766800537966822,0.6581574745864379
2.794192360065709,-2.5141355852844227,3.765280899056577,2.7668535841874533,-0.37984348818289043,0.7200191950851079
2.769051004212865,-2.5179340201662517,3.7929494348984516,2.774053776138304,-0.4826461429277229,0.7771495056948822
2.7438716640112024,-2.5227604815955287,3.8206899726598347,2.781825271195253,-0.5856397333181349,0.8294714582745049
2.718644059195247,-2.5286168789287102,3.8485082253717873,2.790119985777998,-0.6894500422270259,0.8769091295475321
2.6933578904059603,-2.5355113793509805,3.8764094252295673,2.7988890770734733,-0.7947671934385998,0.9193557540495061
2.6680027766124503,-2.5434590512853665,3.904398316000302,2.8080826346139682,-0.9023417673548194,0.9566473862992074
2.642568186099597,-2.5524824689589147,3.9324791423464416,2.81764910847696,-1.012985835969622,0.9885403660502129
2.617043361410008,-2.562612327318611,3.960655633431211,2.827534512137462,-1.1275781566454517,1.0146910690133113
2.5914172381368217,-2.5738881088850656,3.9889309785525855,2.8376814228275955,-1.2470729336646464,1.0346366627945092
2.565678357047971,-2.586358838221712,4.017307792780861,2.8480277894555406,-1.3725117034878893,1.0477758280908163
2.539814768665754,-2.6000839552565913,4.045788070675417,2.8585055477364487,-1.5050380049737546,1.0533486450624157
2.513813929113188,-2.6151343353063288,4.074373126152781,2.869039034187073,-1.6459145437391085,1.0504150977623128
2.4876625857601247,-2.63159348074372,4.103063516494652,2.879543185164696,-1.7965425325609305,1.0378319436811851
2.4613466509526876,-2.649558906069329,4.131858948346299,2.889921504601508,-1.9584827625408985,1.0142280743577248
2.4348510618919943,-2.6691437336947383,4.160758163392313,2.9000637853450852,-2.1334776962528403,0.9779790189324198
2.4081596245550467,-2.690478510657267,4.189758801245764,2.9098435755344094,-2.3234734207993735,0.9271820025301452
2.381254839448474,-2.7137132448652608,4.218857237001108,2.919115395559711,-2.5306395790901965,0.8596340852587355
2.3541177069998214,-2.7390196406561627,4.248048390956705,2.927711736412298,-2.757384305754651,0.7728175373365537
2.3267275105932597,-2.7665934837137094,4.277325508320828,2.9354399117856635,-3.0063595890979173,0.663898963984909
2.2990615757561224,-2.7966570796046883,4.306679907438685,2.9420789014255124,-3.280450185578622,0.5297520463656004
2.2710950049600753,-2.8294615814604747,4.33610069645294,2.9473764218891683,-3.5827360255388507,0.36701841912582817
2.2428003891454704,-2.865288941715863,4.365574460671832,2.9510466060804266,-3.9164137734107776,0.1722274624331181
2.2141474997283117,-2.9044530794499708,4.395084926732636,2.952768880704758,-4.284657736048405,-0.05799617122874958
2.185102968933812,-2.947299656810455,4.424612615539684,2.95218891899247,-4.690393795202623,-0.32659881872165575
2.1556299723657073,-2.994203594762481,4.454134504729608,2.948922930805254,-5.135953171122754,-0.6355890625898937
2.1256879364180823,-3.045563126473709,4.483623734037661,2.942567040179355,-5.62256734324396,-0.9852966619288182
2.095232305153345,-3.1017887999061484,4.513049404439454,2.9327140735600667,-6.149664862791255,-1.373340105990049
2.0642144171542833,-3.163285448534061,4.542376545175054,2.918980672500166,-6.713941224905906,-1.7932576537347604
2.0325815626689425,-3.23042486078312,4.5715663519000564,2.9010480959628184,-7.308203846699137,-2.2328000076461256
2.0002773140611114,-3.3035068992501113,4.6005768328596846,2.878720095886357,-7.920057750472517,-2.67197344702761
1.9672422450686102,-3.3827074767548364,4.629364033818548,2.852000361416081,-8.530605439716807,-3.0810779176834364
1.9334151703010618,-3.4680135311520046,4.657884037432709,2.8211895822392465,-9.113489089293902,-3.419209977665274
1.8987350349895418,-3.5591484220449434,4.686095933255101,2.786997482462594,-9.634782098769156,-3.6339647780907067
1.8631435507690923,-3.655496243032635,4.713965908079727,2.750657834681687,-10.054373531799172,-3.6632790890125855
1.826588588338766,-3.756039978350627,4.741472486426543,2.714025043791561,-10.329462404333013,-3.440333453106061
1.7890281885552597,-3.8593346023939574,4.768612736864459,2.6796217092605,-10.420441889038269,-2.9019574169188913
1.75043484253132,-3.96353902128434,4.795408953957065,2.650602135091311,-10.29872212324578,-1.9999246642582442
1.7107994523184766,-4.066526242516797,4.821914975307978,2.630602888448729,-9.955032108522834,-0.713041646747939
1.6701341898933086,-4.166076563602026,4.848221004192466,2.6234724719812497,-9.405866195400874,0.9433879892351767
1.6284734242572885,-4.260135225556034,4.874455728912278,2.6329063518736016,-8.695590401838414,2.914428154474907
1.585872072001728,-4.347091129574419,4.900784792431014,2.6620506334183505,-7.892702797831567,5.11103743218919
1.542401160705984,-4.426018157552734,4.927405298765198,2.713161007740242,-7.080654258196106,7.4238031672040865
1.4981409791304567,-4.496824700134695,4.9545369088426,2.787399039412283,-6.345628036890607,9.741450230544007
1.4531727321291097,-4.5602809805036015,4.982410899236723,2.884813541717723,-5.764725971574989,11.96905543071669
1.4075699223240736,-4.617928240219351,5.0112590346539,3.00450409602489,-5.397616246714586,14.04139963353727
1.36139063992188,-4.671904402686497,5.041304075614149,3.1449180923602627,-5.283196183438286,15.929091631945544
1.314671595895015,-4.72473636452088,5.0727532565377516,3.304209008679718,-5.44107105824502,17.6377445711487
1.2674242322498062,-4.779147075103331,5.105795346624549,3.480586454391205,-5.876428868374497,19.2023885109749
1.2196327614987728,-4.837911363787076,5.140601211168462,3.6726103395009537,-6.586513549008406,20.67995865620659
1.171253647860902,-4.90377649927716,5.177327314563471,3.8794099260630195,-7.567213232810488,22.142314361185495
1.1222158828681303,-4.979448631605265,5.216121413824101,4.1008330696748745,-8.818921889334666,23.67136746854015
1.0724213965520777,-5.0676378504986115,5.25712974452085,4.337546744360276,-10.35147713014572,25.357036386614404
1.0217450180470915,-5.1711526218000685,5.300505211964453,4.59111710822642,-12.18845326012154,27.298172744514993
0.9700334918290908,-5.293037154401284,5.3464163830467175,4.86409883567157,-14.371368489710294,29.606384858174888
0.917103120285078,-5.436750839298386,5.395057371403433,5.1601626842533195,-16.96449202951848,32.412723363122446
0.8627356118920941,-5.606395759593571,5.446658998245966,5.484289917884544,-20.060945322493446,35.87734324584869
0.8066716542961584,-5.807005212818505,5.501501897424811,5.843063350343031,-23.7906160274132,40.202256441224264
0.7486016021679733,-6.044911373092638,5.559932530928242,6.245085914755274,-28.329699999362067,45.646566025432854
0.6881524884370469,-6.328208373086258,5.622383390075794,6.701551575009602,-33.90935594343674,52.540559735942175
0.6248704047061844,-6.667301932520625,5.6893989058258905,7.226957172369024,-40.81376131576119,61.285224897196535
0.5581973853809781,-7.075439545678237,5.761668477549581,7.839809421340989,-49.33646863327712,72.29412094822028
0.4874429899241957,-7.568804232011009,5.84006657176299,8.562750630823192,-59.60245706147468,85.74883906910796
0.4117549476040856,-8.164828802625756,5.925694078071222,9.420239021514272,-70.99799617675319,100.80809629982058
0.33010665957782803,-8.874808764393288,6.019896468286365,10.428319984512477,-80.59185911204959,113.40714998834206
0.24135857193389515,-9.680727355513785,6.12417966813149,11.562391484395897,-79.74368421094198,111.51553235417965
0.1445512983787573,-10.478164197623205,6.2398035829754495,12.677546807937695,-51.61742935312503,71.64586721062103
0.03976965640252525,-10.994338491154455,6.366579051054827,13.394005480043905,13.101385739376312,-19.176643216778775
-0.0701737285090193,-10.863324633760692,6.500519105855266,13.202239047876118,78.59592932805623,-110.94677471159233
-0.17880697484662622,-10.07736534048013,6.632541496334027,12.092771300760194,99.11134394177184,-140.13787137374644
-0.2795806282514275,-9.086251901062411,6.753469209341629,10.69139258702273,87.2232410973675,-124.53698836421779
-0.37044314726205163,-8.214019490088736,6.8603831352118565,9.446022703380551,69.08928834666924,-100.45667828478484
-0.452583342162939,-7.523126606622044,6.954843362245662,8.441455920532704,53.77490270512533,-80.36916936195509
-0.5278146082291595,-6.98537757957079,7.039257921450989,7.637764226913153,42.1732541537459,-65.4589421374303
-0.5976683840248674,-6.563645038033331,7.1156355637201205,6.98317480553885,33.4838716703402,-54.5986667851088
-0.6633048344052007,-6.228806321329929,7.1854673117755095,6.4371881376877615,26.873965899709123,-46.62798586751944
-0.7255928976185,-5.960066662332838,7.249839193152387,5.970908279012567,21.732615705138524,-40.6930803664988
-0.7851935642418284,-5.742740505281453,7.309548275942513,5.5639774753475795,17.644455815901146,-36.203816629130486
-0.8426209692946429,-5.566295947122441,7.365188050695989,5.201939309056274,14.33267727770053,-32.75060130620721
-0.8982839287658674,-5.422969174345436,7.417207443786551,4.874433295994202,11.61495719895751,-30.039743884508262
-0.9525136205093218,-5.306819602355861,7.465951776746493,4.57403585714912,9.37430180693375,-27.84973756518803
-1.0055818165328803,-5.213076584286524,7.511692135317984,4.29553848149724,7.540373097303824,-26.00276029491124
-1.0577125823757454,-5.137672853313486,7.554647520132956,4.035510878548127,6.077127348651857,-24.346711602873413
-1.1090893109088802,-5.076901579826967,7.595002628918437,3.792043762519393,4.9736097693615235,-22.74513458243373
-1.1598583267071498,-5.027165482133352,7.632923066543631,3.5645924166950556,4.235548458098715,-21.073914537943487
-1.2101299815284834,-4.9848099975523645,7.668568990710582,3.3538532713156206,3.876063127745922,-19.224416813215772
-1.2599780815040071,-4.946049366274905,7.702107523423738,3.161609103183463,3.9046468439388113,-17.112566518319614
-1.309438575166756,-4.9070028978355165,7.733723614455573,2.990483438000267,4.3148274039493355,-14.692178137853878
-1.3585086041451113,-4.863854623796023,7.763628448835576,2.8435616566217283,5.072517696741825,-11.968846557042538
-1.4071471503830715,-4.813129446828604,7.792064065401793,2.723873191051303,6.108488154744223,-9.008803074888329
-1.4552784448513576,-4.752044565281162,7.819302797312306,2.63378516030242,7.318686954454884,-5.936810463186585
-1.5027988905041691,-4.678857695736613,7.845640648915331,2.574417055670554,8.574473040944042,-2.9197138891770535
-1.5495874674615353,-4.5931129653271725,7.871384819472036,2.5452199167787835,9.741373184313758,-0.1375002435589689
-1.595518597114807,-4.495699233484035,7.896837018639824,2.5438449143431936,10.701267339422268,2.250633283503465
-1.6404755894496472,-4.388686560089813,7.922275467783256,2.566351247178228,11.371111161304276,4.134911235859445
-1.6843624550505454,-4.27497544847677,7.947938980255038,2.6077003595368224,11.712641486427191,5.46997669960348
-1.727112209535313,-4.157849033612498,7.974015983850406,2.6624001265328574,11.73124904528888,6.273539151085997
-1.768690699871438,-4.040536543159609,8.000639985115734,2.7251355180437176,11.466206886906518,6.612007629905268
-1.8090960653030341,-3.925874474290544,8.027891340296172,2.79125559434277,10.976750054937977,6.579917700915638
-1.8483548100459395,-3.816106973741164,8.055803896239599,2.8570547713519265,10.328504660957947,6.279932978631551
-1.8865158797833512,-3.7128219271315848,8.084374443953118,2.919854101138242,9.583187195082687,5.807786824906961
-1.923644099054667,-3.616990055180758,8.1135729849645,2.9779319693873116,8.79254326463765,5.2435712705059725
-1.9598139996064747,-3.529064622534382,8.143352304658373,3.0303676820923715,7.996047777201452,4.648609503446617
-1.9951046458318185,-3.449104144762367,8.173655981479296,3.076853777126838,7.221221603395001,4.066168640321815
-2.0295956872794423,-3.376891928728417,8.204424519250564,3.117515463530056,6.48537409915267,3.524225363443995
-2.0633646065667266,-3.3120381877368903,8.235599673885865,3.152757717164496,5.797855624598185,3.038925768647002
-2.0964849884440957,-3.2540596314909083,8.26712725105751,3.183146974850966,5.162252864342411,2.6179101515678505
-2.1290255847590047,-3.202437102847484,8.298958720806018,3.2093260763666445,4.578250221911102,2.263108011491196
-2.1610499557874796,-3.156654600628373,8.331051981569685,3.2319571564815566,4.043073488998791,1.9728931751620575
-2.1926165017937636,-3.116223865738385,8.3633715531345,3.251686088233177,3.552537746975275,1.743642132811021
-2.2237787404511473,-3.0806984882686326,8.395888414016833,3.2691225095612872,3.10176664516681,1.570801847991969
-2.2545857253338335,-3.0496808218169646,8.428579639112446,3.284830528041207,2.685660138488192,1.4495848690358737
-2.285082533552003,-3.0228242204320828,8.461427944392858,3.2993263767315657,2.299180609928995,1.3753966259102657
-2.315310775756324,-2.999832414332793,8.494421208160173,3.3130803429906686,1.9375140083912294,1.3440784288590426
-2.345309099899652,-2.980457274248881,8.52755201159008,3.326521127279259,1.5961488925147376,1.352028064328501
-2.375113672642141,-2.9644957853237335,8.560817222862873,3.340041407922544,1.270904539266785,1.3962413661764483
-2.4047586304953783,-2.9517867399310656,8.594217636942098,3.3540038215843087,0.9579302658811679,1.4743035234821413
-2.434276497894689,-2.9422074372722538,8.627757675157941,3.36874685681913,0.6536917386554173,1.5843477917235183
-2.4636985722674116,-2.9356705198856994,8.661445143726132,3.3845903347363655,0.35495593566662714,1.7249908945598287
-2.4930552774662686,-2.932120960529033,8.695291047073496,3.401840243681964,0.05878420318170233,1.8952478582373615
-2.522376487071559,-2.931533118497216,8.729309449510316,3.4207927222643377,-0.2374578068714232,2.0944234953182748
-2.5516918182565314,-2.9339076965659303,8.76351737673296,3.4417369572175205,-0.5360637987196006,2.3219725400776072
-2.5810308952221908,-2.9392683345531263,8.797934746305135,3.4649566826182965,-0.8389125499231705,2.577314940853203
-2.610423578567722,-2.947657460052358,8.832584313131317,3.4907298320268283,-1.1473408752202785,2.8595865892071717
-2.6399001531682456,-2.9591308688045608,8.867491611451586,3.5193256979189,-1.461944648383893,3.1672986247978954
-2.6694914618562913,-2.9737503152883997,8.902684868430775,3.5509986841668786,-1.782283619369885,3.49787073639397
-2.6992289650091754,-2.9915731514820987,8.938194855272444,3.585977391530818,-2.1064611262321673,3.8469969917798443
-2.7291446965239965,-3.0126377627444203,8.974054629187753,3.624447361448617,-2.430548169543648,4.207800149995412
-2.7592710741514406,-3.0369432444398567,9.01029910280224,3.666525362948571,-2.7478278848519877,4.569739331456397
-2.789640506595839,-3.0644215232883765,9.046964356431726,3.712222756263135,-3.047860696820926,4.917269583708067
-2.8202847218287226,-3.094900130256586,9.084086583994358,3.7613954521002158,-3.3154278278737186,5.228331952421408
-2.8512337231312883,-3.128054408535323,9.121700538515361,3.81367877162443,-3.529522775380563,5.472909235492184
-2.8825142672166417,-3.1633496362891287,9.159837326231605,3.868407863979352,-3.66274800710172,5.612145482860109
-2.914147763579533,-3.199977116360146,9.198521404871398,3.924529318807953,-3.6817374626128623,5.598896815861052
-2.9461475347431345,-3.2367944909862745,9.237766698059477,3.9805182869665634,-3.54949781590289,5.380964141311206
-2.978515479652997,-3.2722894691453033,9.277571880929143,4.034327928379676,-3.2306425224518134,4.908374109928544
