th1 (rad),w1 (rad/s),th2 (rad),w2 (rad/s),a1 (rad/s^2),a2 (rad/s^2)
2.937086096353237,-1.3644278232441667,5.716668441927877,2.659460568517352,2.5115309932527468,6.949057228471892
2.923441818120795,-1.3393125133116393,5.74326304761305,2.728951140802071,2.1403290820186847,6.501087977225468
2.9100486929876785,-1.3179092224914524,5.770552559021071,2.7939620205743254,1.6924927205283573,5.950892077108171
2.896869600762764,-1.3009842952861688,5.798492179226814,2.853470941345407,1.165141569546014,5.2956589320270675
2.8838597578099026,-1.2893328795907086,5.827026888640268,2.906427530665678,0.5586068570083201,4.536873092996514
2.8709664290139956,-1.2837468110206254,5.856091163946925,2.9517962615956432,-0.12284749429044801,3.6812757309023545
2.858128960903789,-1.28497528596353,5.885609126562881,2.9886090189046666,-0.8705328834389129,2.741529576662689
2.845279208044154,-1.2936806147979192,5.9154952167519275,3.0160243146712933,-1.6712126851829892,1.7364039784934
2.8323424018961747,-1.3103927416497492,5.94565545989864,3.0333883544562275,-2.5074593889090604,0.6903317762587327
2.8192384744796772,-1.3354673355388398,5.975989343443203,3.0402916722188147,-3.358540143296935,-0.3677278542264919
2.805883801124289,-1.369052736971809,6.006392260165391,3.0366143936765497,-4.2017858317761,-1.406065952922154
2.7921932737545707,-1.4110705952895701,6.036758404102157,3.022553734147328,-5.014297428515874,-2.3924527246404916
2.778082567801675,-1.4612135695747288,6.06698394144363,2.9986292069009233,-5.774761952879648,-3.296524610107892
2.763470432105928,-1.5189611891035253,6.096970233512639,2.9656639607998443,-6.465115549044162,-4.091987807718968
2.7482808202148927,-1.583612344593967,6.126626873120638,2.9247440827226545,-7.071816617781814,-4.758326998548416
2.732444696768953,-1.6543305107717852,6.155874313947865,2.8771608127371704,-7.586571304030616,-5.28180871714306
2.715901391661235,-1.7301962238120914,6.184645922075236,2.8243427255657396,-8.006463079426421,-5.655709276915498
2.698599429423114,-1.8102608546063557,6.212889349330894,2.767785632796585,-8.333545911441892,-5.879836621309765
2.6804968208770505,-1.8935963137207745,6.240567205658859,2.7089872665834873,-8.574039419932753,-5.959518802594109
2.661560857739843,-1.979336707920102,6.267657078324694,2.6493920785575464,-8.737300657927204,-5.904280807111323
2.6417674906606416,-2.0667097144993742,6.294150999110269,2.590349270486433,-8.834741997139664,-5.726427298787507
2.621100393515648,-2.1550571344707707,6.320054491815133,2.533084997498558,-8.878830125514307,-5.439706600976458
2.5995498221709403,-2.243845435725914,6.345385341790119,2.4786879314887935,-8.882253352418406,-5.058171099720855
2.577111367813681,-2.332667969250098,6.370172221105007,2.428106220491585,-8.857297229981295,-4.595289056132766
2.5537846881211803,-2.4212409415499105,6.3944532833099235,2.3821533299302575,-8.815430786978586,-4.063314001125034
2.529572278705681,-2.5093952494196965,6.418274816609226,2.3415201899190072,-8.767080862139494,-3.472885041232934
2.5044783262114843,-2.5970660580410914,6.441690018508416,2.306791339506678,-8.7215595093348,-2.8328139724776147
2.4785076656310734,-2.6842816531344393,6.464757931903482,2.2784631997819016,-8.687106464132418,-2.150009724733469
2.451664849099729,-2.7711527177757636,6.487542563901301,2.256963102534567,-8.671011864092074,-1.429493172968999
2.4239533219219713,-2.8578628364166843,6.510112194926647,2.242668170804877,-8.679790847569365,-0.6744620088902341
2.3953746935578044,-2.944660744892378,6.532538876634695,2.2359235507159747,-8.719389160374652,0.11362661974396918
2.3659280861088807,-3.0318546364961243,6.554898112141855,2.2370598169134146,-8.79540614992414,0.9349803945916754
2.3356095397439196,-3.119808697995366,6.577268710310989,2.2464096208593314,-8.913327869970935,1.791421478447487
2.304411452763966,-3.2089419766950753,6.599732806519582,2.2643238356438062,-9.078768265642266,2.6863754267163817
2.2723220329970153,-3.299729659351498,6.62237604487602,2.29118758991097,-9.297720637469935,3.624910404906875
2.2393247364035003,-3.3927068657261974,6.64528792077513,2.327436693960039,-9.576824991534462,4.61383641244206
2.2053976677462384,-3.488475115641542,6.66856228771473,2.3735750580844592,-9.92365967214198,5.661874051354085
2.170512916589823,-3.5877117123629616,6.692298038295575,2.430193798598,-10.34706794994317,6.779902959858725
2.1346357994661935,-3.691182391862393,6.716599976281555,2.4979928281965873,-10.857531890519285,7.9813006766689005
2.0977239755475696,-3.799757710767586,6.741579904563521,2.5778058349632764,-11.467606318678483,9.282382215991278
2.059726398439894,-3.914433773954371,6.767357962913153,2.670629657123189,-12.192423655046369,10.702946720674325
2.02058206070035,-4.036358010504835,6.794064259484385,2.7776591243299324,-13.050272826696169,12.266925660497513
1.9802184805953018,-4.166860738771796,6.821840850727684,2.9003283809349076,-14.063236053964623,14.003097983222274
1.9385498732075839,-4.307493099311443,6.850844134537033,3.0403593607671304,-15.257823196718896,15.945772913287
1.8954749422144694,-4.460071331278631,6.881247728144704,3.1998170899000002,-16.665448278654594,18.135203412384612
1.850874228901683,-4.6267258140651775,6.913245899043703,3.381169124023846,-18.32239372695143,20.61720750689004
1.8046069707610313,-4.809949751334692,6.947057590283942,3.5873411990927466,-20.268498230461162,23.44089033226108
1.7565074732476844,-5.012634733639303,6.982931002274869,3.8217501024153573,-22.542973878229784,26.652180966768682
1.7063811259112913,-5.238064472421601,7.021148503299022,4.088271912083044,-25.174109884141426,30.278566179517433
1.6540004811870752,-5.489805571263015,7.0620312224198525,4.391057573878219,-28.156470739385323,34.29596047469669
1.599102425474445,-5.771370278656868,7.105941798158635,4.7340171786251855,-31.40365482109624,38.5608556081436
1.5413887226878764,-6.085406826867831,7.153281969944887,5.119625734706622,-34.65676996807665,42.679810665963394
1.4805346544191982,-6.431974526548597,7.204478227291953,5.546423841366256,-37.32464088771359,45.78269779269186
1.4162149091537122,-6.805220935425733,7.259942465705616,6.0042508192931745,-38.260175780662614,46.2066330332642
1.348162699799455,-7.187822693232359,7.319984973898547,6.466317149625817,-35.61971654337023,41.29920938849892
1.2762844728671312,-7.544019858666061,7.384648145394806,6.879309243510806,-27.30237545415814,28.044782743886994
1.2008442742804706,-7.817043613207643,7.453441237829914,7.159757070949676,-12.67773470482397,5.516315207115494
1.122673838148394,-7.9438209602558825,7.525038808539411,7.214920223020831,5.110755242384788,-21.85202608743509
1.0432356285458353,-7.8927134078320345,7.597188010769619,6.99639996214648,19.92061869837945,-45.33554588589486
0.964308494467515,-7.69350722084824,7.667152010391084,6.543044503287532,27.57867891934546,-58.931978955008006
0.8873734222590326,-7.417720431654785,7.73258245542396,5.953724713737452,28.609595440403364,-63.2582109820734
0.8131962179424848,-7.131624477250751,7.792119702561334,5.321142603916718,25.828459102942464,-62.20555636054705
0.7418799731699772,-6.873339886221327,7.845331128600501,4.699087040311247,21.60037815978032,-59.081614481162966
0.6731465743077639,-6.657336104623524,7.892321999003613,4.108270895499618,17.193286728171554,-55.674757892991096
0.6065732132615287,-6.485403237341808,7.933404707958609,3.551523316569707,13.12563406612701,-52.72275843210651
0.5417191808881106,-6.354146896680538,7.968919941124306,3.0242957322486417,9.550087712405613,-50.442176022568354
0.4781777119213052,-6.2586460195564815,7.999162898446793,2.519873972022958,6.4717816577370675,-48.831266696882366
0.4155912517257404,-6.1939282029791105,8.024361638167022,2.0315613050541343,3.8484695783145146,-47.80946530034638
0.3536519696959493,-6.155443507195965,8.044677251217564,1.5534666520506706,1.6314682815509323,-47.274558468765
0.2920975346239897,-6.139128824380456,8.060211917738071,1.0807210673630205,-0.21949588734040787,-47.12355611799901
0.2307062463801851,-6.14132378325386,8.0710191284117,0.6094855061830304,-1.7322252008301902,-47.2587467189286
0.1692930085476465,-6.158646035262162,8.07711398347353,0.13689803899374442,-2.922242672759208,-47.58826718240785
0.10770654819502488,-6.187868461989754,8.078482963863468,-0.3389846328303341,-3.794590035790355,-48.02511021205728
0.045827863575127345,-6.225814362347657,8.075093117535165,-0.819235734950907,-4.346213676272248,-48.48617488922333
-0.016430280048349233,-6.26927649911038,8.066900760185655,-1.3040974838431403,-4.568570588590897,-48.89197362787331
-0.07912304503945304,-6.314962204996289,8.053859785347225,-1.7930172201218735,-4.450316616876015,-49.16716297973621
-0.14227266708941594,-6.359465371165049,8.035929613146006,-2.2846888499192355,-3.9799927848305616,-49.24184037029043
-0.20586732080106643,-6.399265299013354,8.013082724646814,-2.7771072536221397,-3.148611780783363,-49.05341561687207
-0.26985997379119997,-6.430751416821188,7.985311652110593,-3.2676414097908606,-1.9520195321671197,-48.54878424542984
-0.33416748795941187,-6.450271612142859,7.952635238012685,-3.753129252245159,-0.39289493347735116,-47.68649464362484
-0.3986702040808405,-6.4542005614776325,7.915103945490233,-4.229994198681407,1.5177327123210227,-46.43861797467158
-0.46321220969561683,-6.439023234354423,7.872804003503419,-4.694380378428122,3.7595245365327816,-44.79209747178526
-0.5276024420391611,-6.401427988989095,7.825860199719138,-5.142301353145975,6.3024473530097005,-42.7494574560184
-0.591616721929052,-6.338403515458998,7.7744371861876775,-5.569795927706159,9.106924377313534,-40.32886417433073
-0.655000757083642,-6.247334271685863,7.718739226910616,-5.973084569449466,12.12445249101974,-37.56361721395371
-0.7174740998005007,-6.126089746775666,7.659008381216121,-6.348720741589004,15.298623511359974,-34.5011859611335
-0.7787349972682573,-5.973103511662066,7.595521173800231,-6.693732601200339,18.56652565759332,-31.201883068046243
-0.838466032384878,-5.7874382550861325,7.528583847788227,-7.005751431880801,21.860552442685748,-27.73720236555251
-0.8963404149357393,-5.568832730659275,7.458526333469419,-7.283123455536327,25.110679719481368,-24.187777404934195
-0.9520287422423321,-5.3177259334644615,7.385695098914056,-7.525001229585668,28.247259364014084,-20.64088056081882
-1.0052060015769768,-5.035253339824321,7.310445086618199,-7.731410035193856,31.204306250285676,-17.187412929451625
-1.0555585349752201,-4.7232102773214635,7.233130986266261,-7.9032841644883725,33.92313334295176,-13.91843910473036
-1.1027906377484347,-4.383978943891946,7.154098144621377,-8.042468555535676,36.35605176228839,-10.921474677307035
-1.1466304271873542,-4.020418426269062,7.07367345906602,-8.151683302308745,38.469747313999946,-8.276889610659627
-1.1868346114500448,-3.635720953129063,6.992156626042933,-8.234452198415342,40.24791836673312,-6.054891417335619
-1.2231918209813355,-3.2332417694617317,6.909812104058779,-8.295001112588698,41.69283650826983,-4.313556543595437
-1.2555242386759529,-2.8163134043790334,6.826862092932892,-8.338136678024652,42.82566172536457,-3.0982767016389157
-1.283687372719743,-2.3880567871253877,6.7434807261526455,-8.369119445041042,43.68556607620596,-2.44280553113794
-1.307567940590997,-1.951201126363328,6.659789531702235,-8.39354750035242,44.32793419656382,-2.3718813503143883
-1.3270799518546303,-1.5079217843976898,6.575854056698711,-8.417266313855565,44.822058206768574,-2.905217718550234
-1.3421591696986073,-1.059701202330004,6.491681393560156,-8.446318491041067,45.248788940996135,-4.062526463095144
-1.3527561817219074,-0.6072133129200428,6.407218208649745,-8.48694375567202,45.69852296715604,-5.869155639262352
-1.3588283148511078,-0.15022808324848236,6.322348771093025,-8.545635312064643,46.26967097150709,-8.361811780921359
-1.3603305956835925,0.3124686264665886,6.236892417972379,-8.629253429873858,47.067293288278016,-11.593514748308214
-1.3572059094189266,0.7831415593493687,6.15059988367364,-8.74518857735694,48.20068756054863,-15.636031482513264
-1.3493744938254328,1.265148434954855,6.06314799790007,-8.901548892182072,49.77683528895974,-20.575752030770143
-1.3367230094758842,1.7629167878444523,5.974132508978249,-9.107306412489773,51.88253522450132,-26.49357113714693
-1.3190938415974396,2.2817421400894653,5.883059444853351,-9.372242123861243,54.53920300962596,-33.40719695402245
-1.2962764201965449,2.827134170185725,5.789337023614738,-9.706314093401467,57.59612901380684,-41.128900564196236
-1.2680050784946877,3.4030954603237937,5.692273882680723,-10.117603099043428,60.49634247279723,-48.94679167258636
-1.2339741238914497,4.008058885051766,5.591097851690289,-10.607071015769293,61.82182318968592,-54.996561743207685
-1.193893535040932,4.626277116948625,5.485027141532597,-11.15703663320137,58.63400538462307,-55.33523532907202
-1.1476307638714458,5.212617170794855,5.373456775200583,-11.71038898649209,46.321341847361744,-43.68450186034355
-1.0955045921634972,5.675830589268473,5.256352885335662,-12.147234005095525,21.291836521884953,-15.066683892506845
-1.0387462862708123,5.888748954487323,5.134880545284707,-12.297900844020594,-12.153913947566181,24.81093561901836
-0.9798587967259391,5.767209815011661,5.011901536844501,-12.04979148783041,-40.2418683913774,57.46517608007354
-0.9221866985758225,5.364791131097887,4.891403621966197,-11.475139727029674,-53.2728853751097,70.17369429517106
-0.8685387872648436,4.83206227734679,4.7766522246959005,-10.773402784077964,-54.027134476034114,67.08555437336445
-0.8202181644913756,4.291790932586449,4.668918196855121,-10.10254724034432,-49.40037173896414,57.55530840624371
-0.7773002551655112,3.7977872151968075,4.567892724451678,-9.526994156281884,-43.66429761501741,47.15175143396235
-0.7393223830135431,3.3611442390466335,4.472622782888859,-9.05547664194226,-38.454792039150234,37.857594621723244
-0.7057109406230768,2.976596318655131,4.382068016469437,-8.676900695725028,-34.174279386075476,30.042843309128436
-0.6759449774365255,2.634853524794376,4.295299009512187,-8.376472262633744,-30.79724272013984,23.55430809765087
-0.6495964421885817,2.3268810975929775,4.211534286885849,-8.140929181657235,-28.187025560784626,18.128027192099402
-0.6263276312126519,2.045010841985131,4.130124995069276,-7.959648909736241,-26.200471716971737,13.517278722032652
-0.6058775227928006,1.7830061248154134,4.050528505971914,-7.8244761225159145,-24.715923936213095,9.521914333685956
-0.5880474615446465,1.5358468854532825,3.972283744746755,-7.729256979179055,-23.636130651016494,5.9876813441819445
-0.5726889926901136,1.2994855789431177,3.8949911749549644,-7.669380165737235,-22.88394981563434,2.7985624722404268
-0.5596941369006825,1.0706460807867741,3.8182973732975922,-7.64139454101483,-22.396640741301585,-0.13076329480101825
-0.5489876760928147,0.8466796733737583,3.7418834278874438,-7.6427021739628405,-22.120370055216256,-2.8604933036228446
-0.5405208793590771,0.6254759728215957,3.665456406147815,-7.671307106999069,-22.00518562553775,-5.4290817789248855
-0.5342661196308611,0.40542411656621824,3.5887433350778246,-7.7255979247883175,-22.00031438063148,-7.8546333367243575
-0.5302118784651989,0.18542097275990344,3.5114873558299413,-7.804144258155561,-22.049593951659425,-10.134603533512745
-0.5283576687375998,-0.035074966756690806,3.4334459132483857,-7.905490293490688,-22.08695840535673,-12.244154628114776
-0.5287084184051667,-0.25594455081025813,3.3543910103134786,-8.027931839771837,-22.03212621933563,-14.133665153200583
-0.5312678639132693,-0.4762658130036145,3.2741116919157602,-8.169268491303843,-21.78700185511553,-15.72621440912107
-0.5360305220433055,-0.6941358315547698,3.1924190070027216,-8.326530635395054,-21.233822031843633,-16.916398615228488
-0.5429718803588531,-0.9064740518732061,3.109153700648771,-8.495694621547338,-20.23672073265079,-17.572550480427942
-0.5520366208775852,-1.108841259199714,3.0241967544332975,-8.671420126351618,-18.648979244380406,-17.545126399841003
-0.5631250334695823,-1.2953310516435181,2.9374825531697812,-8.846871390350028,-16.32835376195486,-16.684204519617847
-0.5760783439860175,-1.4586145892630666,2.849013839266281,-9.013713435546206,-13.161845639447634,-14.867882314800138
-0.5906644898786482,-1.590233045657543,2.758876704910819,-9.162392258694208,-9.09836592243277,-12.039993060251804
-0.6065668203352236,-1.6812167048818707,2.6672527823238767,-9.282792189296726,-4.182856296661527,-8.249855844555425
-0.6233789873840423,-1.723045267848486,2.5744248604309097,-9.36529074774228,1.4198744075875749,-3.6805768976420272
-0.6406094400625272,-1.7088465237726103,2.480771952953487,-9.4020965167187,7.42544632535475,1.3500167963767957
-0.6576979053002533,-1.6345920605190627,2.3867509877863,-9.388596348754932,13.463140884199257,6.425817256754763
-0.6740438259054439,-1.49996065167707,2.2928650242987505,-9.324338176187384,19.13827133011587,11.101681625688062
-0.6890434324222146,-1.3085779383759113,2.1996216425368766,-9.213321359930504,24.10566036538528,14.98476369815463
-0.7021292118059737,-1.0675213347220585,2.1074884289375717,-9.063473722948958,28.129684694946064,17.800243656172995
-0.7128044251531942,-0.7862244877725978,2.016853691708082,-8.885471286387228,31.112561536098923,19.421317710050868
-0.7206666700309202,-0.47509887241160853,1.9279989788442098,-8.69125810928672,33.08729084146664,19.860078492093745
-0.7254176587550363,-0.14422596399694215,1.8410863977513425,-8.492657324365782,34.18532646502401,19.230905514360057
-0.7268599183950057,0.19762730065329798,1.7561598245076846,-8.300348269222182,34.59475808234587,17.703810234185823
-0.7248836453884727,0.5435748814767567,1.6731563418154627,-8.123310166880323,34.522400491247275,15.462134582163232
-0.7194478965737051,0.8887988863892294,1.5919232401466594,-7.968688821058691,34.16694029934403,12.671984279450696
-0.7105599077098128,1.2304682893826697,1.5122363519360724,-7.841968978264184,33.70443521507712,9.464407589812765
-0.6982552248159861,1.5675126415334408,1.4338166621534305,-7.747324902366056,33.283999566256696,5.9276342430958735
-0.6825800984006517,1.9003526371960078,1.35634341312977,-7.688048559935098,33.030411075362565,2.1055168636586212
-0.6635765720286916,2.2306567479496335,1.279462927530419,-7.6669933912985115,33.05073438631059,-2.0013522274345616
-0.6412700045491952,2.5611640918127394,1.202792993617434,-7.687006913572858,33.44298034901915,-6.434495156530425
-0.6156583636310679,2.8955938953029308,1.1259229244817055,-7.751351865138162,34.30573942769266,-11.278138200957569
-0.5867024246780386,3.2386512895798574,1.048409405830324,-7.864133247147738,35.748357270034056,-16.662568108253478
-0.55431591178224,3.596134862280198,0.9697680733588465,-8.030758928230272,37.90135264595576,-22.770491269697743
-0.5183545631594381,3.975148388739756,0.8894604840765438,-8.258463840927249,40.925966032154214,-29.845047844119527
-0.4786030792720405,4.384408049061298,0.8068758456672713,-8.556914319368444,45.01866164284621,-38.19380580048012
-0.4347589987814275,4.83459466548976,0.7213067024735869,-8.938852377373244,50.3973591216032,-48.17070640720362
-0.3864130521265299,5.338568256705792,0.6319181786998544,-9.420559441445281,57.23096376917464,-60.0832926150644
-0.33302736955947193,5.910877894397538,0.5377125842854016,-10.021392367595926,65.40652295431065,-73.87930420711294
-0.27391859061549656,6.564943123940645,0.4374986606094423,-10.760185409667056,73.86674636459715,-88.24078167680294
-0.2082691593760901,7.303610587586617,0.32989680651277176,-11.642593226435086,78.98274337977831,-98.33467024961992
-0.13523305350022397,8.093438021384399,0.2134708742484209,-12.625939928931285,71.72337625135326,-91.86428237219712
-0.05429867328637997,8.81067178389793,0.08721147495910805,-13.544582752653255,37.868870699744235,-49.292442555771416
0.03380804455259934,9.189360490895373,-0.048234352567424504,-14.03750717821097,-24.01756330992229,31.329538630249925
0.12570164946155307,8.94918485779615,-0.1886094243495342,-13.72421179190847,-78.48215998585599,101.23480788081498
0.21519349803951457,8.16436325793759,-0.3258515422686189,-12.71186371310032,-94.46783695575365,118.44261848424219
