th1 (rad),w1 (rad/s),th2 (rad),w2 (rad/s),a1 (rad/s^2),a2 (rad/s^2)
0.5749239892423958,2.342091878053388,5.442322211762769,-1.8202219542163773,-8.043691517910505,13.964629882880363
0.5983449080229297,2.261654962874283,5.424119992220605,-1.6805756553875737,-7.679678315708372,13.372019361491663
0.6209614576516725,2.184858179717199,5.407314235666729,-1.546855461772657,-7.369057932381521,12.832495897942373
0.6428100394488445,2.111167600393384,5.391845681049003,-1.4185305027932333,-7.106041225018032,12.337949950571936
0.6639217154527783,2.0401071881432036,5.377660376021071,-1.295151003287514,-6.8855858753374495,11.881469916383113
0.6843227873342104,1.971251329389829,5.364708865988196,-1.176336304123683,-6.70328332942265,11.45719557084011
0.7040353006281087,1.9042184960956026,5.352945502946959,-1.0617643484152819,-6.555256937960078,11.060184712791937
0.7230774855890647,1.8386659267160017,5.342327859462806,-0.9511625012873626,-6.4380734162801465,10.686295414637131
0.7414641448562247,1.7742851925532002,5.332816234449933,-0.8442995471409913,-6.3486676966480795,10.332083602431187
0.7592069967817567,1.7107985155867194,5.324373238978523,-0.7409787111166795,-6.284280274894443,9.994714498683999
0.7763149819376239,1.6479557128377749,5.316963451867356,-0.6410315661298395,-6.242405753177466,9.671886052033
0.7927945390660017,1.5855316553060002,5.310553136206058,-0.5443127056095095,-6.220751173446772,9.36176246781498
0.8086498556190618,1.5233241435715323,5.305110009149963,-0.4506950809313597,-6.217202772249377,9.062916131192038
0.8238830970547771,1.4611521158490386,5.300603058340649,-0.3600659196194393,-6.229799887510903,8.774276465933069
0.8384946182132675,1.3988541169739295,5.297002399144455,-0.2723231549601086,-6.256714871197107,8.495084536787525
0.8524831593830068,1.3362869682619585,5.294279167594854,-0.18737230959223336,-6.296237988679535,8.224852450885127
0.8658460290656264,1.2733245883751632,5.2924054444989315,-0.10512378508338209,-6.34676640764741,7.963326829495979
0.8785792749493779,1.209856924298689,5.291354206648098,-0.025490516788422304,-6.406796493538249,7.710455800685178
0.8906778441923648,1.1457889593633064,5.291099301480213,0.05161404121842948,-6.474918734235809,7.466359105875969
0.9021357337859979,1.0810397720209484,5.2916154418923975,0.1262776322771892,-6.549814714650561,7.231301021892449
0.9129461315062074,1.0155416248744427,5.2928782182151695,0.1985906424961137,-6.630255652312047,7.005665878990323
0.9231015477549518,0.9492390683513222,5.294864124640131,0.26864730128601694,-6.715102088605703,6.789936009732022
0.932593938438465,0.8820880474652651,5.29755059765299,0.33654666138333716,-6.803304406830295,6.584671998566548
0.9414148189131177,0.8140550033969622,5.300916064266824,0.40239338136900266,-6.893903917661969,6.3904951227519105
0.9495553689470874,0.7451159642203425,5.304939998080513,0.46629833259652176,-6.986034314606127,6.208071886537925
0.9570065285892908,0.6752556210742813,5.309602981406479,0.528379051461901,-7.078923356344956,6.038100556472602
0.9637590848000336,0.6044663875108317,5.314886771921097,0.588760057026627,-7.171894679433691,5.881299609775219
0.9698037486751419,0.5327474407164948,5.320774372491363,0.6475730531243792,-7.264369683677834,5.738398012648381
0.9751312230823068,0.4601037438797165,5.327250103022607,0.704957033250863,-7.355869464127925,5.610127253124335
0.979732260521104,0.38654504923843724,5.334299673355115,0.7610583057821063,-7.446016788639544,5.497215064772785
0.9835977110134884,0.3120848813520418,5.341910256412937,0.8160304564298342,-7.5345381393181245,5.400380793901467
0.9867185598270087,0.23673949995886057,5.350070560977235,0.8700342643688489,-7.621265851086357,5.320332383779288
0.9890859548265973,0.160526841447997,5.358770903620924,0.9232375882066418,-7.706140392436901,5.2577649745225274
0.9906912232410773,0.08346543752362799,5.36800327950299,0.9758152379518671,-7.789212843634448,5.213361145965089
0.9915258776163136,0.005573309087283512,5.377761431882509,1.0279488494115179,-7.8706476377239385,5.18779286233049
0.9915816107071864,-0.07313316728995588,5.388040920376624,1.0798267780348227,-7.950725641184361,5.181725211118011
0.9908502790342869,-0.15264042370179948,5.398839188156972,1.131644030146003,-8.029847665373177,5.1958220637506285
0.9893238747972689,-0.23293890035553125,5.4101556284584325,1.1836022507835091,-8.108538518363732,5.230753821928937
0.9869944857937136,-0.31402428553916856,5.421991650966268,1.2359097890027986,-8.187451730585481,5.287207451373308
0.9838542429383219,-0.3958988028450234,5.434350748856295,1.2887818635165316,-8.267375117890033,5.365899044218858
0.9798952549098717,-0.47857255402392374,5.4472385674914605,1.34244085395872,-8.349237383187635,5.467589193694178
0.9751095293696325,-0.5620649278558001,5.460662976031048,1.397116745895662,-8.43411600336999,5.593101511221
0.9694888800910745,-0.6464060878894999,5.474634143490005,1.453047761007872,-8.523246702406635,5.7433446683944815
0.9630248192121795,-0.7316385549135663,5.489164621100083,1.5104812076918168,-8.618034874561678,5.9193384062613426
0.9557084336630438,-0.8178189036591831,5.504269433177002,1.5696745917544304,-8.720069393495939,6.122244023538283
0.947530244626452,-0.9050195975941424,5.519966179094546,1.6308970319898133,-8.831139322740984,6.353399934807363
0.9384800486505105,-0.9933309908215523,5.536275149414443,1.694431031337887,-8.953254128504895,6.614362978535158
0.928546738742295,-1.0828635321066011,5.553219459727822,1.7605746611232385,-9.08866808252982,6.906956249052572
0.917718103421229,-1.1737502129318993,5.570825206339054,1.8296442236137642,-9.23990962222402,7.233324316722373
0.9059806012919099,-1.2661493091541396,5.589121648575192,1.901977466780988,-9.409816491875855,7.595996766698956
0.8933191082003685,-1.360247474072898,5.608141423243002,1.9779374344479774,-9.601577494490742,7.997960991992498
0.8797166334596396,-1.4562632490178054,5.627920797587482,2.0579170443679025,-9.818781589711573,8.442745054614946
0.8651540009694615,-1.554451064914921,5.648499968031161,2.142344494914052,-10.06547479455261,8.934511063020555
0.8496094903203123,-1.6551058128604472,5.669923412980301,2.2316896055442577,-10.346224734386873,9.47815870346806
0.8330584321917078,-1.7585680602043159,5.692240309035744,2.3264711925789383,-10.66619150191524,10.079436961337462
0.8154727515896647,-1.8652299752234682,5.715505020961533,2.427265562192313,-11.03120128478656,10.745059083473777
0.79682045183743,-1.9755419880713339,5.739777676583456,2.5347161530270506,-11.447815289322916,11.4828104515403
0.7770650319567166,-2.090020140964563,5.765124838113727,2.6495442575424537,-11.923379574748765,12.301629528520268
0.756164830547071,-2.209253936712051,5.791620280689152,2.7725605528276565,-12.46602939890617,13.211625451083961
0.7340722911799504,-2.3339142307011125,5.8193458862174285,2.904676807338496,-13.084600956299646,14.223967137128147
0.7107331488729393,-2.464760240264109,5.848392654290813,3.046916478709777,-13.788367866482103,15.35052944114838
0.6860855464702982,-2.6026439189289303,5.878861819077911,3.2004217731212607,-14.58645927076998,16.603097678062895
0.6600591072810089,-2.74850851163663,5.910866036809123,3.3664527499018897,-15.486714350030699,17.991789514242758
0.6325740221646426,-2.903375655136937,5.944530564308142,3.546370645044317,-16.493558768901426,19.52211664570742
0.6035402656132732,-3.0683112428259514,5.979994270758585,3.741591811501391,-17.60421585623396,21.189726894926128
0.5728571531850137,-3.244353401388291,6.0174101888735985,3.953489080450652,-18.802150046402932,22.971284629556575
0.5404136191711308,-3.43237490185232,6.056945079678105,4.183201926746218,-20.0460772261224,24.809155035993626
0.5060898701526076,-3.632835674113544,6.098777098945567,4.431293477106154,-21.252318388734373,26.586765958373128
0.4697615134114722,-3.8453588580008877,6.1430900337166285,4.6971611366898856,-22.26836046956724,28.091623335327014
0.43130792483146335,-4.06804246269656,6.190061645083527,4.978077370043156,-22.838077953386573,28.966549924892593
0.39062750020449777,-4.296423242230426,6.239842418783959,5.267742869292082,-22.568297213484612,28.662602376144616
0.34766326778219353,-4.522106214365272,6.29251984747688,5.554368893053528,-20.928313046367027,26.437820555848223
0.3024422056385408,-4.731389344828942,6.348063536407415,5.81874709861201,-17.347845107429023,21.493491358132296
0.2551283121902514,-4.9048677959032325,6.406251007393536,6.033682012193333,-11.48884072339706,13.353697943984079
0.20607963423121906,-5.019756203137203,6.466587827515469,6.167218991633174,-3.655587906872495,2.438730290053928
0.155882072199847,-5.056312082205928,6.528260017431801,6.191606294533713,4.968962064184792,-9.604275342614644
0.10531895137778773,-5.00662246156408,6.590176080377138,6.095563541107567,12.69352475122803,-20.41870518281569
0.05525272676214692,-4.8796872140518,6.651131715788214,5.89137648927941,18.196537792201966,-28.16413236422876
0.006455854621628919,-4.69772183612978,6.710045480681008,5.609735165637122,21.12480696797133,-32.34953287589644
-0.040521363739668886,-4.486473766450067,6.766142832337379,5.286239836878158,21.937497493311824,-33.613003043857276
-0.08538610140416955,-4.267098791516949,6.819005230706161,4.950109806439586,21.377681798570084,-32.98462433116434
-0.12805708931933904,-4.053321973531248,6.868506328770557,4.620263563127942,20.091921435384457,-31.35807352781373
-0.16859030905465153,-3.8524027591774033,6.914708964401836,4.306682827849805,18.51381113834473,-29.33032512857616
-0.20711433664642556,-3.667264647793956,6.957775792680334,4.013379576564043,16.89173160237058,-27.24136483685657
-0.24378698312436511,-3.4983473317702503,6.997909588445974,3.7409659281954775,15.350994100504046,-25.260985221719206
-0.2787704564420676,-3.3448373907652096,7.035319247727928,3.4883560759782855,13.94547594423531,-23.4605369884752
-0.3122188303497197,-3.2053826313228564,7.0702028084877115,3.2537507060935336,12.691070162453038,-21.85924323263903
-0.34427265666294826,-3.078471929698326,7.102740315548647,3.035158273767143,11.585017034977046,-20.45087607181297
-0.3750573759599315,-2.9626217593485555,7.133091898286318,2.8306495130490137,10.616366548744763,-19.21814415129201
-0.40468359355341704,-2.8564580938611077,7.161398393416808,2.6384680715360935,9.771367952040354,-18.1400763892365
-0.4332481744920281,-2.758744414340704,7.187783074132168,2.4570673076437286,9.036099553192987,-17.195610568245627
-0.46083561863543515,-2.6683834188087743,7.2123537472086054,2.2851112019612723,8.397645694824593,-16.36519359970883
-0.4875194528235229,-2.5844069618605285,7.235204859228218,2.1214592659641838,7.84453141044839,-15.631372305478978
-0.5133635224421281,-2.5059616477560445,7.25641945188786,1.965145542909394,7.3667923483923925,-14.978892760398214
-0.5384231389196886,-2.4322937242721205,7.276070907316954,1.815356615305412,6.955877132092497,-14.394577226733166
-0.5627460761624098,-2.3627349529511954,7.294224473470008,1.6714108430380803,6.604483104273369,-13.867115282697014
-0.5863734256919217,-2.296690121908462,7.3109385819003885,1.5327396902111101,6.306375630315226,-13.386836082572248
-0.6093403269110064,-2.2336263656053097,7.3262659788025,1.3988713293853876,6.056214631159951,-12.94549244915992
-0.6316765905670595,-2.1730642192937104,7.340254692096353,1.2694164048937884,5.849398389513698,-12.536068963317334
-0.6534072327599966,-2.1145702353985736,7.352948856145291,1.144055715260615,5.681927843505003,-12.1526170084378
-0.6745529351139823,-2.0577509569635235,7.364389413297897,1.022529545176237,5.550291310108314,-11.790115405447171
-0.6951304446836175,-2.00224804386244,7.37461470874966,0.9046283911217654,5.451368143500142,-11.44435347999428
-0.7151529251222419,-1.9477343624274388,7.383660992660878,0.7901848563218226,5.382349317221206,-11.111832891345092
-0.7346302687465163,-1.8939108692552267,7.391562841224096,0.6790665274083716,5.3406728424790995,-10.789684665204922
-0.7535693774390685,-1.8405041408304357,7.39835350649818,0.5711696807563224,5.32397204895361,-10.47559826673923
-0.7719744188473728,-1.7872644203408996,7.404065203305743,0.4664136980889301,5.330034934166297,-10.167760047812493
-0.7898470630507818,-1.7339640709992366,7.408729340286633,0.36473609761080517,5.35677297427268,-9.864798913599868
-0.8071867037607742,-1.6803963412565097,7.41237670126274,0.26608810847480646,5.402197959359657,-9.565737533442354
-0.8239906671733392,-1.6263743616629132,7.415037582347488,0.17043073314038293,5.464405564075427,-9.269947847804836
-0.8402544107899683,-1.5717303060221588,7.416741889678892,0.07773125466233456,5.54156449213116,-8.97710998826298
-0.8559717138501899,-1.5163146611008471,7.417519202225516,-0.012039845220295234,5.631910146524629,-8.687174027814937
-0.8711348604611984,-1.459995559635601,7.417398803773313,-0.0989115854984446,5.733741882257255,-8.400324215402017
-0.8857348160575543,-1.4026581408130283,7.416409687918328,-0.18291482765246478,5.845422999792082,-8.116945524685272
-0.8997613974656846,-1.3442039108151076,7.414580539641804,-0.2640842828993175,5.96538273877521,-7.837592468071582
-0.9132034365738357,-1.2845500834273555,7.411939696812811,-0.34246020758003337,6.092119634024035,-7.562960199416916
-0.9260489374081093,-1.2236288870871153,7.408515094737011,-0.41808980957420255,6.224205699215434,-7.293857960612855
-0.9382852262789805,-1.161386830094961,7.404334196641269,-0.4910283891803311,6.360291006525351,-7.031184927000948
-0.94989909457993,-1.0977839200297075,7.399423912749466,-0.5613402384503405,6.499108330258872,-6.775908483169808
-0.9608769337802271,-1.0327928367271189,7.393810510364962,-0.6290993232820387,6.639477616458406,-6.529044922899087
-0.9712048621474982,-0.9663980605625347,7.387519517132142,-0.6943897725110295,6.780310125815074,-6.291642522893592
-0.9808688427531236,-0.898594959304384,7.380575619407032,-0.7573061977399654,6.920612171557772,-6.064766896530313
-0.9898547923461675,-0.8293888375888063,7.373002557429632,-0.8179538667052686,7.0594884356282295,-5.849488496807003
-0.9981486807220555,-0.7587939532325241,7.364823018762579,-0.8764487516733386,7.196144894446298,-5.6468721112154
-1.0057366202543807,-0.6868325042880611,7.356058531245846,-0.9329174727854925,7.329891419864123,-5.457968177990376
-1.0126049452972614,-0.6135335900894199,7.346729356517992,-0.9874971545653963,7.460144142262901,-5.283805754247264
-1.0187402811981556,-0.5389321486667908,7.336854384972338,-1.040335212107869,7.586427672653703,-5.125386981728778
-1.0241296026848234,-0.4630678719402538,7.326451032851259,-1.0915890819251568,7.70837728117965,-4.983682923956973
-1.028760281404226,-0.38598409912845727,7.315535142032007,-1.1414259111647265,7.82574112307159,-4.859630687422103
-1.0326201223955107,-0.3077266878977414,7.30412088292036,-1.1900222180389475,7.938382592612944,-4.754131786401385
-1.035697389274488,-0.22834286197161194,7.292220660739971,-1.2375635359029613,8.046282873819955,-4.668051763212764
-1.0379808178942043,-0.1478800332334124,7.279845025380941,-1.284244053535089,8.149543746057264,-4.602221130328655
-1.0394596182265383,-0.06638459577283976,7.2670025848455895,-1.3302662648383756,8.2483906961948,-4.557437755245883
-1.0401234641842667,0.016099311189108248,7.253699922197206,-1.3758406423908345,8.343176388377245,-4.534470861265032
-1.0399624710723756,0.0995310750728807,7.239941515773298,-1.4211853510034849,8.43438454986831,-4.534066865978637
-1.0389671603216468,0.1838749205715638,7.225729662263263,-1.4665260196632712,8.522634348208191,-4.556957323702251
-1.0371284111159311,0.2691012640536457,7.21106440206663,-1.5120955929002937,8.608685362167844,-4.603869278584238
-1.0344373984753947,0.35518811767532416,7.195943446137627,-1.558134285686136,8.693443287446541,-4.6755383728992665
-1.0308855172986415,0.44212255054978955,7.180362103280766,-1.6048896694151287,8.77796656822134,-4.772725092180054
-1.0264642917931437,0.529902216232003,7.164313206586614,-1.6526169203369292,8.863474207818314,-4.896234568344936
-1.0211652696308238,0.6185369583101861,7.147787037383245,-1.7015792660203786,8.9513550861427,-5.046940407562817
-1.014979900047722,0.708050509171613,7.130771244723041,-1.7520486700960067,9.043179198261923,-5.225813065570951
-1.0078993949560058,0.7984823011542322,7.113250758022081,-1.8043068007517162,9.140711327860695,-5.433953364154914
-0.9999145719444634,0.8898894144328392,7.095207690014564,-1.8586463343932653,9.245927781264339,-5.67263183305316
-0.991015677800135,0.9823486922454826,7.076621226670631,-1.9153726527237969,9.361036932060214,-5.943334675458193
-0.9811921908776802,1.0759590615660848,7.057467500143393,-1.9748059994783789,9.488504461737746,-6.247817294519851
-0.9704326002620193,1.1708441061834622,7.037719440148609,-2.0372841724235773,9.631084324698696,-6.58816648111747
-0.9587241592001846,1.2671549494304493,7.017346598424373,-2.103165837234752,9.791856608511488,-6.966872541133983
-0.9460526097058801,1.3650735155155642,6.9963149400520255,-2.172834562646092,9.974273586067929,-7.386912812714727
-0.9324018745507244,1.4648162513762435,6.974586594425564,-2.246703690773239,10.18221533372171,-7.851848147876166
-0.917753712036962,1.5666384047134605,6.952119557517832,-2.325222172252001,10.42005625955159,-8.365933927270794
-0.9020873279898274,1.6708389673089763,6.928867335795312,-2.408881511524709,10.692743641198948,-8.934246893413645
-0.8853789383167376,1.7777664037209657,6.904778520680065,-2.4982239804588455,11.005888620772676,-9.562828259571855
-0.8676012742795279,1.8878252899286925,6.8797962808754765,-2.593852263054564,11.365868703263764,-10.258841704958925
-0.848723021380241,2.00148397696133,6.8538577582449305,-2.6964406801041534,11.779938050948846,-11.030741164225269
-0.8287081816106278,2.1192833574708185,6.826893351443889,-2.8067480917464063,12.256336695444807,-11.888436283093597
-0.8075153480359196,2.2418467244252667,6.798825870526425,-2.9256324545773422,12.804380328660448,-12.843430438549948
-0.785096880791667,2.3698905277118714,6.7695695459806515,-3.0540667589628416,13.43449529022269,-13.908882725241103
-0.7613979755145482,2.5042354806140983,6.739028878391023,-3.1931555862152528,14.15813296156419,-15.099503228353424
-0.7363556207084072,2.64581681022974,6.70709732252887,-3.344150618498787,14.987443915633085,-16.431116142411863
-0.7098974526061098,2.795691249386071,6.673655816343882,-3.5084617799229054,15.934497452617249,-17.919593501042787
-0.6819405401122491,2.9550362239122436,6.638571198544653,-3.687657714933333,17.009667279363434,-19.57863237636973
-0.6523901778731267,3.125132896705878,6.60169462139532,-3.8834440386970304,18.2185220943211,-21.415454371193928
-0.621138848906068,3.3073181176490887,6.56286018100835,-4.09759858240897,19.556092905193324,-23.422852398068333
-0.588065667729577,3.502879046701022,6.521884195184261,-4.331827106389653,20.99666321080007,-25.564991074824587
-0.5530368772625668,3.7128456788090225,6.478565924120364,-4.587477017137899,22.476246131472372,-27.752983470522036
-0.5159084204744766,3.9376081401237464,6.432691153948985,-4.865006851843119,23.864037488977985,-29.80502102055383
-0.4765323390732391,4.176248515013526,6.384041085430554,-5.163057062048657,24.91987758897653,-31.386834255712788
-0.43476985392310386,4.425447290903292,6.332410514810068,-5.476925404605785,25.24147155265424,-31.937604906813775
-0.3905153810140709,4.677862006429834,6.2776412607640095,-5.796301453673923,24.226987496824787,-30.61701472434351
-0.34373676094977257,4.920131881398081,6.219678246227271,-6.102471600917358,21.125529430336574,-26.374790241328956
-0.29453544213579175,5.131387175701447,6.158653530218097,-6.3662195033306475,15.299673990048483,-18.31671494619668
-0.24322157037877729,5.284383915601932,6.09499133518479,-6.549386652792614,6.76188534499214,-6.454071248554611
-0.19037773122275797,5.352002769051854,6.0294974686568645,-6.61392736527816,-3.308682093059188,7.573852267888205
-0.13685770353223942,5.318915948121262,5.963358195004083,-6.538188842599278,-12.772422572272895,20.787895259227668
-0.0836685440510268,5.191191722398533,5.89797630657809,-6.330309890007001,-19.68553634475328,30.483172273218425
