th1 (rad),w1 (rad/s),th2 (rad),w2 (rad/s)
0.04507536576621824,2.992430792355297,2.4929550543949826,2.2054511907344017
0.07499967368977122,2.944679723580188,2.5150095663023264,2.052278897573824
0.1044464709255731,2.892340217352017,2.5355323552780646,1.8988696685715154
0.13336987309909326,2.8357987746463875,2.5545210519637798,1.7456232016928486
0.16172786084555713,2.7754418283635096,2.5719772839807082,1.5929266137319058
0.18948227912919222,2.711653397682128,2.5879065501180274,1.4411515469008442
0.2165988131060135,2.644812692585222,2.6023180655870357,1.2906512528335927
0.24304694003186572,2.5752917215357525,2.6152245781153716,1.1417577468462636
0.2687998572472232,2.5034529636372103,2.626642155583834,0.9947791308254474
0.2938343868835953,2.42964716960977,2.6365899468920886,0.8499971804445652
0.31813085857969303,2.354211353804389,2.6450899186965344,0.7076652824953784
0.34167297211773695,2.277467032902289,2.652166571521488,0.5680067924030392
0.36444764244675987,2.199718756833354,2.6578466394455185,0.431213862217262
0.3864448300150934,2.121252964899276,2.662158778067691,0.29744676741742027
0.40765735966408617,2.042337186272101,2.665133245741865,0.16683373856526823
0.4280807315268072,1.9632195900739693,2.666801583127518,0.039471282812550273
0.44771292742754687,1.88412887710762,2.6671962959556432,-0.08457503816925897
0.4665542161986231,1.805274493773888,2.6663505455739505,-0.20526942220147992
0.484606961136362,1.7268471393172948,2.6642978513519355,-0.32260429182579003
0.5018754325295349,1.6490195305745705,2.6610718084336775,-0.43659847677410685
0.5183656278352806,1.57194738392839,2.6567058236659364,-0.5472951825063737
0.5340851016745645,1.4957705720654813,2.6512328718408726,-0.6547598129328592
0.5490428073952193,1.4206144131385234,2.644685273711544,-0.7590777118362203
0.5632489515266045,1.3465910516772095,2.637094496593182,-0.8603518817127225
0.5767148620433766,1.2738008936838208,2.6284909777760546,-0.9587007314703424
0.5894528709802148,1.2023340623773047,2.6189039704613513,-1.0542558963167143
0.6014762116039879,1.1322718456393557,2.608361411498184,-1.147160164819607
0.6127989300603814,1.063688111037099,2.596889809849988,-1.2375655399969034
0.6234358111707524,0.9966506690806691,2.584514154450019,-1.3256314537467748
0.6334023178615591,0.9312225699152549,2.571257839912551,-1.4115231472051741
0.6427145435607117,0.8674633228027886,2.5571426084404996,-1.4954102238601352
0.6513891767887395,0.8054300314303912,2.542188506201898,-1.5774653775198777
0.6594434771030434,0.7451784412495236,2.5264138524266992,-1.6578632935175188
0.6668952615155387,0.6867638976968848,2.509835219491524,-1.736779718784054
0.6737629004925075,0.6302422162980565,2.492467422303683,-1.8143906945455393
0.6800653226554881,0.5756704673488263,2.4743235153582277,-1.890871944293668
0.6858220273289763,0.5231076791590821,2.455414795915291,-1.966398409226609
0.6910531041205672,0.47261546478700633,2.4357508118230253,-2.0411439234444275
0.6957792587684373,0.4242585778437304,2.4153393725885812,-2.1152810217011195
0.7000218445468745,0.37810540336346116,2.39418656237157,-2.188980873362065
0.7038028985805092,0.3342283899574086,2.3722967536379493,-2.2624133372997246
0.7071451824800833,0.29270442953849424,2.3496726202649523,-2.3357471336987756
0.7100722267754682,0.25361519084342987,2.3263151489279643,-2.409150130058679
0.7126083786839025,0.21704741280140627,2.3022236476273776,-2.4827897400047623
0.7147788528119166,0.18309316350006588,2.27739575022733,-2.556833434775123
0.7166097844469173,0.15185007005519616,2.251827415879579,-2.631449368359565
0.7181282851474692,0.12342152405049646,2.2255129221959833,-2.706807118131904
0.7193625003879741,0.09791686629396254,2.1984448510146644,-2.7830785433139833
0.7203416690509138,0.0754515533087411,2.1706140655815247,-2.8604387635701003
0.7210961845840012,0.05614730604759252,2.1420096779458238,-2.939067259218495
0.7216576576444771,0.04013223851418276,2.112619005353639,-3.019149092626493
0.7220589800296189,0.027540959893569514,2.082427514427374,-3.1008762468458544
0.7223343896285546,0.01851463787066939,2.0514187519589155,-3.1844490717496687
0.7225195360072613,0.01320100224059743,2.0195742612414187,-3.2700778188472537
0.7226515460296672,0.011754255538153043,1.9868734830529462,-3.357984232127278
0.7227690885850487,0.014334839599625403,1.9532936407316734,-3.4484031416146577
0.722912436981045,0.021108981394594738,1.918809609315527,-3.5415839757993015
0.7231235267949909,0.03224790483284926,1.8833937695575338,-3.6377920643536212
0.7234460058433194,0.04792654290417052,1.8470158489139976,-3.737309537367981
0.7239252712723612,0.06832150990319134,1.809642753540318,-3.8404355328275193
0.7246084863713931,0.09360798752630486,1.7712383982120428,-3.9474852877290374
0.7255445662466561,0.12395502884425944,1.7317635453347524,-4.058787492747623
0.7267841165350987,0.15951857393541702,1.6911756704072762,-4.1746790122197215
0.7283793022744528,0.2004311790852187,1.649428880285079,-4.295495679832934
0.7303836140653049,0.24678706283766202,1.6064739234867496,-4.421557338642918
0.7328514846936816,0.29862054170152275,1.5622583501003204,-4.553144562550008
0.7358376901106968,0.3558752514290502,1.5167269044748204,-4.690463547056854
0.7393964426249873,0.4183607471348767,1.469822269004252,-4.833594505197327
0.743580050096336,0.48569225399020255,1.4214863239522786,-4.98241767655254
0.748436972636238,0.5572087897922017,1.3716621471867532,-5.136510122244093
0.75400906053416,0.6318652398665193,1.3202970459643122,-5.29500667485019
0.7603277129328252,0.7080964610062361,1.2673469792158103,-5.4564213810598305
0.7674086775428876,0.7836581847988278,1.212782765405212,-5.618434311158734
0.7752452593908759,0.8554632292970566,1.1565984222936245,-5.777666630217801
0.7837998916838465,0.9194548715242696,1.0988217559914466,-5.929497950039807
0.7929944403990892,0.97059107988971,1.0395267764910485,-6.068022965963346
0.8027003511979863,1.0030423235567774,0.978846546831415,-6.1862841549585115
0.8127307744335541,1.0107034081537503,0.9169837052818299,-6.276915463575685
0.8228378085150916,0.9880453656229669,0.8542145506460731,-6.333233004697524
0.8327182621713213,0.9311681269470844,0.7908822205990979,-6.350587436787615
0.8420299434407921,0.8387208812326233,0.7273763462312217,-6.327533885095054
0.8504171522531183,0.7122902445580057,0.6641010073802711,-6.26628996589437
0.8575400546986983,0.5560432056565418,0.6014381077213274,-6.1722096608327295
0.8631004867552637,0.3757715339567459,0.5397160111130002,-6.052485619765604
0.8668582020948312,0.1777507136945208,0.47919115491534414,-5.914641880394535
0.8686357092317765,-0.032184415491575524,0.4200447361113988,-5.7653498970853825
0.8683138650768607,-0.2491599471579345,0.362391237140545,-5.609802157828622
0.8658222656052813,-0.4694100179237042,0.30629321556225875,-5.451584556972356
0.8611281654260443,-0.6901855145526559,0.2517773699925352,-5.2928562056391515
0.8542263102805178,-0.9095586105886545,0.19884880793614368,-5.134653897115283
0.8451307241746312,-1.126212189128792,0.14750226896499086,-4.977204041062848
0.8338686022833433,-1.3392576878771223,0.09773022855436238,-4.820187756779772
0.820476025404572,-1.548094896621945,0.049528350986564655,-4.662944873675339
0.8049950764383526,-1.7523121001903714,0.0028989022498112638,-4.504621888848102
0.7874719554364489,-1.9516193208430677,-0.04214731663866976,-4.344275392042147
0.7679557622280182,-2.1458065644394044,-0.08559007055909124,-4.180942692423798
0.7464976965836242,-2.334720032118142,-0.1273994974833292,-4.013689294539842
0.7231504962624428,-2.5182507872515654,-0.16753639042872764,-3.841640367936785
0.6979679883899271,-2.6963317757388086,-0.2059527941080955,-3.6640011779521995
0.671004670632539,-2.868940211195944,-0.2425928058876175,-3.480069786785702
0.6423152685205795,-3.0361031535425376,-0.2773935037554745,-3.289244167421473
0.6119542369851542,-3.1979046843268892,-0.31028594542968924,-3.091025106980703
0.5799751901418853,-3.3544934754222946,-0.3411961964994963,-2.8850158176432386
0.5464302553876623,-3.5060898078304366,-0.37004635467592867,-2.6709189485604425
0.511369357309358,-3.6529912555212873,-0.3967555441615331,-2.448531650521682
0.4748394447541451,-3.7955763194479335,-0.42124086066674993,-2.217739457955731
0.4368836815596657,-3.934305276251405,-0.44341825524630724,-1.9785100124206103
0.3975406287971517,-4.069717374966275,-0.4632033553705133,-1.7308880716522754
0.35684345504748893,-4.202423235322897,-0.4805122360870361,-1.4749938659186037
0.31481922269426,-4.333090814806588,-0.49526217474622214,-1.2110277438686725
0.2714883145461941,-4.4624225386821985,-0.5073724521849089,-0.9392852882821705
0.22686408915937212,-4.59112003028419,-0.5167653050677306,-0.6601887974350941
0.18095288885653021,-4.719831242845133,-0.5233671930420815,-0.3743433344788032
0.1337545764280789,-4.849072645716845,-0.5271106263868695,-0.08262846751214248
0.08526384997091044,-4.979116632931878,-0.5279369110619909,0.2136599254388417
0.03547268364159166,-5.109832207012017,-0.5258003118076024,0.5126008757311459
-0.015625638428528515,-5.2404671027509595,-0.5206743030502909,0.8113565246423434
-0.06803030945603811,-5.369365868940443,-0.5125607378038675,1.105791281469682
-0.12172396814544253,-5.493638317418894,-0.5015028249891706,1.3900254424997216
-0.17666035131963148,-5.608836508041681,-0.48760257056417344,1.6560103168037763
-0.2327487164000483,-5.708773612450532,-0.4710424673961357,1.8933196924445206
-0.2898364525245536,-5.78571094952109,-0.45210927047169047,2.0894841329913327
-0.3476935620197645,-5.831183362785915,-0.43121442914177716,2.23125366851222
-0.4060053956476236,-5.837595016849472,-0.408901892456655,2.3069708039409544
-0.46438134581611834,-5.800292610678963,-0.3858321844172454,2.3096206020946632
-0.5223842719229079,-5.719271843338967,-0.3627359783962988,2.239330583688131
-0.5795769903562976,-5.599525721952471,-0.34034267255941747,2.103881406289652
-0.6355722475758223,-5.449706160113163,-0.31930385849652093,1.9167444442836097
-0.690069309176954,-5.2798084163890735,-0.30013641405368485,1.6936645278410687
-0.7428673933408447,-5.099040666578436,-0.28319976877527414,1.449474484706934
-0.7938578000066291,-4.914610296498273,-0.2687050239282048,1.1962220418821174
-0.8430039029716119,-4.731449770629926,-0.2567428035093836,0.9426683465595493
-0.8903184006779111,-4.552517331976009,-0.2473161200437881,0.6946461838111655
-0.9358435739976713,-4.379300543881889,-0.24036965820567646,0.4557418232293717
-0.9796365794364902,-4.212300557895879,-0.23581223997338274,0.2279729435880484
-1.021759585015449,-4.051412020210521,-0.23353251053750226,0.012331245075833441
-1.0622737052175544,-3.896190077611294,-0.23340919808674393,-0.1908295287983038
-1.1012356059936672,-3.746025320156585,-0.23531749337472696,-0.3815346468796364
-1.138695859195233,-3.600252546138993,-0.23913283984352332,-0.5600237252884646
-1.1746983846566228,-3.4582151605829483,-0.24473307709640796,-0.7266500814992071
-1.2092805362624524,-3.3193010836839667,-0.25199957791140004,-0.8818216279041007
-1.242473547099292,-3.1829608950947472,-0.26081779419044104,-1.0259678529401848
-1.2743031560502396,-3.0487151556335985,-0.2710774727198429,-1.159522723758425
-1.3047903076065757,-2.916155281093576,-0.28267269995742716,-1.2829170013231812
-1.3339518604175113,-2.7849406777460723,-0.29550186997065897,-1.3965758796701828
-1.361801267194972,-2.6547937980728014,-0.3094676287673608,-1.5009194249046751
-1.3883492051757,-2.525494123607076,-0.3244768230164075,-1.5963642859652567
-1.4136041464117708,-2.3968716828856826,-0.3404404658760601,-1.6833257790392755
-1.4375728632406277,-2.2688004707088822,-0.3572737236664528,-1.7622198434344465
-1.4602608679477165,-2.1411919893483087,-0.3748959221007973,-1.833464614028353
-1.4816727878411995,-2.013989045002996,-0.3932305682410808,-1.8974815082965977
-1.5018126782912296,-1.8871598802000475,-0.4122053833240468,-1.9546958185484846
-1.52068427709323,-1.7606926906357412,-0.4317523415095317,-2.0055368539622918
-1.5382912039995875,-1.6345905545295096,-0.4518077100491546,-2.050437706012782
-1.5546371095448825,-1.5088667888293572,-0.4723120871092824,-2.089834723704312
-1.569725777433176,-1.3835407366528965,-0.4932104343463255,-2.1241667873684813
-1.583561184799705,-1.2586339825907766,-0.5144521022200104,-2.1538744654178794
-1.596147524625613,-1.134166986152729,-0.5359908468741892,-2.1793991298822615
-1.6074891944871401,-1.0101561183813432,-0.5577848381730118,-2.2011820954824795
-1.6175907556709535,-0.8866110824404285,-0.5797966591278366,-2.2196638345459316
-1.6264568664953578,-0.7635326958941603,-0.6019932974732959,-2.2352833069472937
-1.6340921934542993,-0.6409110106011904,-0.6243461305427688,-2.248477430858055
-1.6405013035603113,-0.5187237458774285,-0.6468309048513493,-2.259680706520712
-1.6456885410190856,-0.39693501210490534,-0.6694277119165565,-2.2693249913859046
-1.6496578911401347,-0.2754943056219179,-0.6921209618304155,-2.2778394103639314
-1.652412834196354,-0.1543357619626412,-0.7148993559340548,-2.2856503689687564
-1.6539561918159804,-0.03337766391355283,-0.7377558596237425,-2.293181618776922
-1.654289968455116,0.08747778577685805,-0.7606876758115116,-2.300854302509928
-1.6534151905973473,0.2083443987665186,-0.7836962188366109,-2.3090868783379834
-1.6513317466096822,0.32935158933306885,-0.8067870876199907,-2.318294787292852
-1.6480382307163515,0.45064352976493655,-0.8299700354929193,-2.3288896808917534
-1.643531795418702,0.5723777418824575,-0.8532589323018368,-2.341277964373615
-1.6378080179998775,0.6947229352778719,-0.8766717119455729,-2.3558583297189166
-1.6308607886470987,0.8178558270434277,-0.9002302952427621,-2.3730178466568503
-1.6226822303766644,0.9419565809799452,-0.9239604737093307,-2.393126043947762
-1.6132626645668648,1.0672023839805478,-0.9478917341488082,-2.416526243532225
-1.6025906407270594,1.1937585338095593,-0.9720569965841305,-2.443523207016766
-1.5906530553889637,1.3217662527760012,-0.9964922286542981,-2.474365927212571
-1.5774353928612037,1.451326285759045,-1.0212358879264238,-2.5092241754178435
-1.5629221300036134,1.582477231961789,-1.0463281296806022,-2.548157259544964
-1.5470973576839955,1.7151675795806436,-1.0718097022760518,-2.591073475914409
-1.5299456818881891,1.849220701355946,-1.0977204370351958,-2.637679148482951
-1.5114534748746298,1.9842928430471334,-1.1240972285200252,-2.6874172524513362
-1.4916105464441585,2.1198256892554515,-1.1509714010445387,-2.739397833870075
-1.4704122895516039,2.2549977390597307,-1.1783653793832394,-2.792326219187271
-1.4478623121610066,2.388682646230514,-1.2062886415751122,-2.8444406213206204
-1.4239754856987015,2.519427577341073,-1.2347330477883183,-2.8934777823274227
-1.3987812099252908,2.6454692319085282,-1.2636678256115925,-2.9366919414591046
-1.3723265176062054,2.76480672722973,-1.2930347450261837,-2.9709548278750275
-1.344678450333908,2.875345133208945,-1.3227442933049338,-2.9929569461338694
-1.3159249990018185,2.9751076790046387,-1.3526738627662724,-2.999508312986815
-1.286173922211772,3.0624893723894844,-1.3826689458961405,-2.9879010665726833
-1.2555490284878772,3.1364984950818373,-1.4125479565618673,-2.956258914487253
-1.2241840435370588,3.1969202315361933,-1.4421105457067398,-2.9037804569798795
-1.1922148412216969,3.2443512621007993,-1.4711483502765386,-2.830803101799088
-1.1597713286006888,3.280093906540828,-1.4994563812945294,-2.738669650273766
-1.1269703895352805,3.3059444648142997,-1.526843077797267,-2.629444390363859
-1.0939109448871376,3.3239388991859697,-1.5531375217009056,-2.5055661400417595
-1.060671555895278,3.336118492717717,-1.5781931831013232,-2.369525821224071
-1.0273103709681008,3.344355564889017,-1.601888441313564,-2.223625255499113
-0.9938668153192107,3.350251062346426,-1.624124693868555,-2.0698346708750215
-0.9603643046957465,3.3550949012505242,-1.6448230405773052,-1.90973714180959
-0.9268133556832413,3.3598705079363076,-1.6639204119954012,-1.7445348258445201
-0.8932146506038783,3.365284639150207,-1.6813657602538463,-1.5750911057765475
-0.8595618042123763,3.3718077636495223,-1.6971166713116117,-1.40198838770947
-0.825843726575881,3.379715495049305,-1.7111365551887063,-1.2255884040060796
-0.7920465716253879,3.389125942951971,-1.7233924392287672,-1.0460878609378206
-0.7581553121958682,3.400030865759341,-1.7338533178381454,-0.8635664027302872
-0.7241550035382748,3.412320301022811,-1.7424889818654483,-0.6780263136237823
-0.6900318005280467,3.425801264812821,-1.7492692450016862,-0.489424619851955
-0.6557737878799185,3.4402114828952612,-1.7541634912002058,-0.2976987396259337
-0.6213716730509659,3.4552291885449717,-1.757140478596465,-0.1027868981695623
-0.5868193811655161,3.4704799508928614,-1.7581683475781607,0.09535560769535889
-0.5521145816565876,3.4855413731994567,-1.757214791501207,0.29674342052976865
-0.517259167924593,3.49994636821789,-1.7542473572959094,0.5013507554521492
-0.48225970424241416,3.5131855979440676,-1.749233849741388,0.709103205156721
-0.44712784826297347,3.524709563607947,-1.7421428176898208,0.9198714392580016
-0.411880752626894,3.5339307478023985,-1.7329441032972408,1.133466660484041
-0.37654144514887,3.5402261402068396,-1.7216094366924004,1.3496377886761384
-0.34113918374680163,3.542940416549304,-1.708113058805639,1.568070422706138
-0.30570977958130857,3.541389982519624,-1.6924323545785775,1.7883876825842018
-0.27029587975611236,3.53486803623354,-1.6745484777527355,2.010153061115363
-0.23494719939377695,3.522650741428161,-1.654446947141582,2.2328754180834522
-0.19972069197949532,3.50400453679404,-1.6321181929607473,2.456016231664246
-0.16468064661155493,3.478194533820825,-1.6075580306441049,2.678999183441541
-0.12989870127334668,3.4444938765483193,-1.5807680388096894,2.901222097451428
-0.0954537625078635,3.402193853172985,-1.5517558178351751,3.122071183380159
-0.06143182397613365,3.3506144642360187,-1.5205351060013736,3.3409374536687517
-0.027925679333773462,3.289115068879288,-1.4871257314646862,3.557235099196802
0.004965471355019416,3.217104654105773,-1.451553380472718,3.7704215248409554
0.037136517896077144,3.1340512075289486,-1.4138491652243086,3.9800186718217185
0.06847702997136662,3.0394896275128547,-1.3740489785060914,4.185635196210056
0.09887192624649517,2.933027581596313,-1.332192626543991,4.386989040137864
0.1282022020624583,2.8143487298075387,-1.2883227361426124,4.5839299312898945
0.1563456893605337,2.683212768037107,-1.2424834368297135,4.776461382517194
0.18317781704090477,2.5394518208988024,-1.1947188230045416,4.964761839092719
0.2085723352498928,2.3829628252726045,-1.1450712046136144,5.149204733372446
0.23240196350261885,2.213695696902545,-1.09357915727989,5.330377344958699
0.2545389204716443,2.0316372677751615,-1.0402753838303032,5.509098506992254
0.2748552931493959,1.8367912344984567,-0.9851843987603807,5.68643530644739
0.29322320549438047,1.629154698352376,-0.9283200456959068,5.863718930471502
0.3095147524779042,1.4086923715670083,-0.8696828563911917,6.042559596282234
0.32360167619357433,1.1753103009271364,-0.8092572604283693,6.224859869566799
0.3353547792028457,0.9288322623386481,-0.7470086617327013,6.412824276828237
0.34464310182623215,0.6689842529498471,-0.682880418964419,6.608960333657559
0.3513329443557306,0.3953965436824854,-0.6167908156278434,6.816060851241942
0.35528690979255545,0.1076399328624939,-0.548630207115424,7.037147739048557
0.3563633091211804,-0.19467454117953437,-0.47825872972493844,7.275340271940751
0.35441656370938507,-0.5116815905888286,-0.40550532700553094,7.533580904577089
0.34929974780349676,-0.8428475912031971,-0.33016951795976,7.814102688923403
0.34087127189146477,-1.1862202624949558,-0.252028491070526,8.117450360008254
0.3290090692665152,-1.5371527528423479,-0.17085398747044345,8.440787733062836
0.3136375417380917,-1.886319498482834,-0.08644611013981508,8.775220861958848
0.29477434675326336,-2.2170952113020665,0.001306098479773407,9.102194893650287
0.2726033946402427,-2.5032451921934356,0.09232804741627627,9.390202216108419
0.24757094271830835,-2.709644914146306,0.18623006957736046,9.59545719068173
0.2204744935768453,-2.8001587062368354,0.28218464148417777,9.672156442205509
