th1 (rad),w1 (rad/s),th2 (rad),w2 (rad/s)
4.9382578716107535,2.880540242424488,6.221151148827126,-0.9972987640121793
4.967063274034999,2.9959024879179634,6.211178161187004,-1.1035395063082358
4.997022298914178,3.1151570380302136,6.200142766123921,-1.2197653312905383
5.028173869294481,3.238968471766713,6.187945112811016,-1.3466964907823646
5.060563554012147,3.368092875492144,6.174478147903192,-1.4851400783341921
5.094244482767069,3.503385142253064,6.15962674711985,-1.6359973631276636
5.1292783341896,3.6458027880047776,6.143266773488573,-1.8002654884673057
5.165736362069648,3.796402431783976,6.1252641186039005,-1.979027831574164
5.203700386387488,3.956322192530693,6.105473840288159,-2.1734231777537767
5.243263608312795,4.126738423333169,6.083739608510621,-2.384576987082315
5.284530992546126,4.308777339168396,6.059893838639798,-2.613466898051063
5.32761876593781,4.503349836071359,6.033759169659287,-2.860677338429909
5.372652264298524,4.710860188899972,6.005152396274989,-3.125973421947746
5.419760866187524,4.930718169316033,5.973892662055511,-3.407594908792858
5.469068047880684,5.160570561120985,5.939816712967582,-3.7011528332231167
5.520673753491894,5.395196799251534,5.902805184635351,-3.998053849140713
5.574625721484409,5.625164261778539,5.862824646143944,-4.283593403270084
5.6308773641021945,5.835735218334971,5.819988712111243,-4.535423160579233
5.689234716285545,6.0071933877904975,5.774634480505451,-4.724057324911153
5.749306650163449,6.118234684460608,5.72739390725634,-4.817756806266919
5.810488997008055,6.1529781445372995,5.679216339193671,-4.792583686333622
5.872018778453428,6.108603305488484,5.631290502330335,-4.643379012757911
5.933104811508312,5.997701425402404,5.584856712202756,-4.387256285046803
5.993081825762336,5.842679410857691,5.540984149352288,-4.055775502158582
6.051508619870913,5.666733569606883,5.500426394330702,-3.6821388831695483
6.108175955566982,5.487699814436639,5.463605005499007,-3.292355433033897
6.1630529537113485,5.316580632778867,5.430681451168668,-2.902999046363132
6.216218760039137,5.1588395593813,5.401651460705036,-2.522920486856127
6.2678071556329495,5.016327544013617,5.3764222558364745,-2.1559078725884633
6.3179704310730855,4.888842406134449,5.35486317711059,-1.8028702653769586
6.36685885513443,4.775141392587662,5.33683447445682,-1.4632716952086013
6.414610269060306,4.673525596001778,5.322201757504734,-1.1359699576297564
6.461345525020324,4.582151434855549,5.310842057928436,-0.819671597447756
6.50716703936888,4.499184872316785,5.3026453419539585,-0.5131624441650455
6.552158888092047,4.422870591141013,5.297513717512308,-0.21541378096713998
6.596387594003457,4.3515576482265805,5.2953595797026365,0.07437806204967035
6.639903170485723,4.283704415439506,5.296103360323134,0.3567868131505667
6.682740214640118,4.217874930022312,5.299671228454639,0.6321689948402656
6.7249189639403415,4.152732874640662,5.305992918403042,0.9006853708129055
6.766446292686748,4.087036196248773,5.314999772111172,1.1623265506005036
6.807316654649235,4.0196336384478855,5.326623037617177,1.4169404745427125
6.847512991033715,3.9494635273538967,5.340792442362604,1.6642606406156135
6.887007626307254,3.8755546490159603,5.35743504876876,1.9039344641697247
6.925763172797414,3.7970287910016034,5.376474393410458,2.1355513728548736
6.96373346070743,3.7131043884020056,5.397829907139006,2.3586702931682937
7.00086450459145,3.623100661125899,5.421416610070689,2.5728461718829405
7.037095511202709,3.526441626671186,5.447145071789518,2.777655144903111
7.072359927469421,3.422659405403237,5.474921623238549,2.972717944786252
7.106586521523453,3.311396294853748,5.504648802686411,3.157721139671845
7.13970048447199,3.192405169621191,5.536226014083129,3.332435825868199
7.171624536168202,3.0655478591217356,5.569550372341811,3.496733454027404
7.2022800147594195,2.9307912620013963,5.604517706882085,3.650598551798913
7.231587927379433,2.788201068687825,5.641023692400074,3.7941382094117353
7.259469938066311,2.6379330773168586,5.678965074494191,3.9275883130882936
7.285849268839479,2.4802221978401437,5.718240957625074,4.05131663824605
7.310651490817881,2.3153693390594334,5.758754124007535,4.165823043460855
7.333805184208475,2.143726458255858,5.800412354442143,4.271737130354603
7.355242448791033,1.9656801180742898,5.843129725745689,4.369813847192258
7.374899249971776,1.7816339365142824,5.8868278642176115,4.460927608627049
7.392715589336919,1.591990331141041,5.931437140303882,4.546065574931736
7.4086354926483295,1.3971319483308369,5.9768977960531995,4.626320776166158
7.4226068121316375,1.197403136159281,6.023161003814861,4.702885775533246
7.43458084349323,0.9930917732488758,6.070189861570194,4.7770475367063545
7.444511761225719,0.784411718700123,6.117960336937258,4.850184084694347
7.45235587841272,0.5714861206770675,6.166462177784201,4.923763415025969
7.458070739619491,0.35433184481650026,6.215699811934461,4.999344884931547
7.461614058067656,0.1328454075261006,6.2656932607837765,5.07858296206255
7.462942512142917,-0.09320889781824024,6.316479090404402,5.1632326180252734
7.462010423164735,-0.3242073825191548,6.3681114165846555,5.255154669460229
7.458768349339543,-0.5606694181982974,6.420662963279258,5.356317698684395
7.45316165515756,-0.8032495167310145,6.4742261402661025,5.468790333965023
7.44512915999025,-1.0527111011557586,6.528914043605753,5.5947128131484964
7.434602048978692,-1.3098681579143432,6.584861171737238,5.7362285822133625
7.4215033673995485,-1.5754713475188584,6.642223457559371,5.895343265402621
7.40574865392436,-1.8500001934219483,6.7011768902133975,6.0736573335586925
7.387248651990141,-2.1333018284105405,6.761913463548985,6.271888803727159
7.365915633706035,-2.423992940621879,6.824632351586256,6.489067794687251
7.341675704299816,-2.7185324038158583,6.8895230295331285,6.721269354856465
7.314490380261658,-3.0099289688428055,6.956735723081693,6.959825584753433
7.28439109057323,-3.2862821668834767,7.026333978929228,7.1892770660179
7.251528268904395,-3.5299103762819057,7.098226749589407,7.386091387993966
7.216229165141576,-3.7186295093256314,7.1720876634693465,7.520304436016908
7.1790428700483195,-3.8309252869009778,7.2472907078295155,7.562507544120279
7.140733617179309,-3.8545314998159115,7.322915783270719,7.49553969059497
7.10218830218115,-3.7933947421854546,7.397871180176669,7.323994389578981
7.064254354759296,-3.6667393952083978,7.471111124072459,7.072922734007003
7.027586960807212,-3.5004584313230387,7.541840351412529,6.776105910352703
6.992582376493981,-3.317896002519013,7.609601410516056,6.463619915654342
6.959403416468791,-3.135418958995037,7.6742376096726,6.15600670354923
6.928049226878841,-2.962494501327968,7.735797676708092,5.864552179255353
6.8984242818655614,-2.8036263387866946,7.7944431985006455,5.5940078995461056
6.870388018477694,-2.6603185334666697,7.850383277496107,5.345276786020358
6.843784833143028,-2.5324711884147106,7.903836045356311,5.1172865038788515
6.81846012125888,-2.419226058380692,7.955008910395099,4.908101601022449
6.794267860675073,-2.319433467985989,8.004089926405324,4.715521252338973
6.771073525995213,-2.2318924647804335,8.051245138928714,4.537374403503682
6.748754601347409,-2.1554647727578016,8.096618882963751,4.3716500283610005
6.727199953619831,-2.089121765760803,8.140335383247361,4.21654234333603
6.706308735962223,-2.03195735562708,8.182500806680721,4.070454599070478
6.685989162405952,-1.9831844498036795,8.223205352671426,3.931984401396906
6.666157317907915,-1.9421242060470103,8.262525196685395,3.7999022566545144
6.646736075847445,-1.9081927658044375,8.30052421925194,3.673129069684719
6.627654148189401,-1.8808877347758075,8.337255509948788,3.5507152252577945
6.608845270841643,-1.859775417502595,8.372762662201366,3.431822311972713
6.590247516666617,-1.8444791668196907,8.407080885321093,3.31570777683135
6.571802724998419,-1.834668889961847,8.440237963089407,3.2017124425177688
6.553456036098801,-1.8300516065592758,8.472255087514585,3.0892506735345537
6.535155520033208,-1.8303628974354726,8.50314759424993,2.977802934009652
6.516851891058853,-1.835359073577378,8.532925623590026,2.866910482555592
6.49849830032308,-1.8448099092511114,8.561594728415582,2.7561719683746526
6.4800502012305685,-1.8584918105077306,8.589156448099327,2.645241712397767
6.4614652831254915,-1.8761813246916637,8.615608865223304,2.5338294696587798
6.442703469878575,-1.8976489354696533,8.640947159919893,2.4217014704166493
6.423726980523878,-1.9226531301418397,8.66516417462406,2.308682526167901
6.40450044922246,-1.9509347707526659,8.688250999885739,2.1946589626758466
6.384991101514933,-1.9822118466997642,8.710197589512497,2.0795821069314373
6.365168983047935,-2.0161747323733397,8.73099341058181,1.9634720114831488
6.345007235724202,-2.052482116134967,8.750628130696642,1.8464210523900542
6.324482414562852,-2.0907578029225373,8.769092341220542,1.7285969924318314
6.303574836533627,-2.1305886173006545,8.78637831114486,1.6102450669933597
6.28226895036062,-2.1715236416901624,8.802480761814794,1.4916886351679242
6.260553713943718,-2.213075010768411,8.817397648166473,1.3733279522261248
6.238422963836034,-2.2547204436462716,8.831130927688735,1.2556366696781713
6.215875759399571,-2.2959076285308884,8.843687294385516,1.1391557609389198
6.192916683114262,-2.3360604814557524,8.855078851994906,1.0244847048315742
6.1695560782997045,-2.3745871864625117,8.865323699043222,0.9122699307218457
6.14581020643508,-2.4108897985457247,8.87444639835044,0.803190726367577
6.121701308449622,-2.4443750653118173,8.882478305614116,0.6979430150582686
6.097257557796504,-2.4744660131555207,8.889457735764699,0.5972216006637412
6.072512897664949,-2.5006137630599916,8.895429951771337,0.5017016351008045
6.0475067600343495,-2.5223090014022387,8.900446968122345,0.41202016239016925
6.022283670020327,-2.5390925389983,8.904567169746247,0.3287586230916271
5.996892744630344,-2.5505644473512477,8.907854755977164,0.252427157557476
5.971387100156831,-2.5563913584648055,8.91037902755274,0.18345143114235382
5.945823186572183,-2.556311642027534,8.912213541864164,0.12216253329690094
5.920260070151908,-2.550138316305238,8.913435167197132,0.06879029584698368
5.8947586869888555,-2.5377596910345877,8.914123070155602,0.02346015703135878
5.86938109007851,-2.5191378681063794,8.914357671725917,-0.013806510639058661
5.844189711397446,-2.4943053286340966,8.914219606619525,-0.0430888707525032
5.819246658111105,-2.4633599074807817,8.913788717912,-0.06456029329267199
5.794613059036297,-2.42645849737471,8.913143114979073,-0.07847972030095324
5.7703484740625495,-2.3838098370397764,8.912358317776064,-0.08518127077098814
5.746510375692152,-2.335666726462876,8.911506505068354,-0.08506263684766097
5.723153708427523,-2.282317983850442,8.910655878699878,-0.07857279921371212
5.700330528589018,-2.224080419337394,8.909870150707741,-0.06619954180031698
5.678089724395644,-2.161291055652284,8.909208155289738,-0.048457183157224415
5.656476813839121,-2.094299780027121,8.908723583458166,-0.025874871276744402
5.6355338160388495,-2.0234625676497706,8.908464834745399,0.0010142838827887635
5.615299190362352,-1.9491353766738326,8.908474977584227,0.03168303635479669
5.595807836595614,-1.8716687790760949,8.908791807947775,0.06561865035458103
5.577091148804853,-1.7914033607041902,8.909447994451321,0.1023302875194265
5.559177115197811,-1.708665897544949,8.910471297326517,0.1413551077013383
5.542090456222362,-1.6237662932680597,8.91188484840353,0.18226309974894694
5.5258527932896815,-1.5369952451322684,8.913707479401019,0.22466069485084406
5.510482840838359,-1.448622591086641,8.915954086349528,0.26819324351463
5.495996614927492,-1.3588962801046964,8.918636018784674,0.31254645844545886
5.482407652126445,-1.268041900226909,8.92176148336913,0.35744693992207927
5.469727233124176,-1.1762626942262733,8.92533595276835,0.4026619083326286
5.457964606181913,-1.0837399909921377,8.929362571851676,0.44799827103046147
5.4471272062719915,-0.9906339813447038,8.93384255456198,0.4933011484043844
5.437220866458545,-0.8970847696949102,8.938775566046024,0.5384519778975653
5.428250018761596,-0.803213637362876,8.944160085824999,0.5833663055525068
5.420217882387967,-0.7091244590537488,8.949993748880523,0.6279913633878609
5.41312663779743,-0.6149052205551699,8.956273662514402,0.6723035183525354
5.4069775855918785,-0.5206295927806384,8.962996697697927,0.7163056654897958
5.401771289664072,-0.42635852449314526,8.970159754352824,0.7600246249018343
5.397507704419141,-0.33214182311179075,8.977760000601842,0.8035085896305851
5.394186286188023,-0.2380196996986823,8.985795086498149,0.8468246600324555
5.391806089191036,-0.14402426037331253,8.994263333098473,0.8900564898711048
5.390365846587303,-0.05018093189376231,9.003163897997185,0.9333020603236164
5.389864037268365,0.04349018608322981,9.012496918600421,0.9766715904411654
5.390298939129197,0.13697304551686032,9.022263634504833,1.0202855863039935
5.391668669584366,0.23025445141404832,9.032466490367874,1.064273026088073
5.3939712140985066,0.32332293769403286,9.043109220628754,1.108769674407959
5.397204443475447,0.41616771300292954,9.054196917372833,1.1539165164873737
5.401366120605476,0.5087776705605311,9.065736082537706,1.1998583007981518
5.406453897311081,0.6011404551819168,9.077734665545687,1.2467421776622583
5.412465301862901,0.6932415801039814,9.09020208732231,1.2947164208010515
5.419397717663941,0.7850635860973956,9.103149251530322,1.343929218822499
5.427248353524915,0.8765852354985436,9.116588543718548,1.394527524055941
5.4360142058799,0.9677807342004443,9.130533818959107,1.446655946884594
5.445692013221905,1.058618975249452,9.145000378427952,1.5004556847111217
5.456278202974399,1.1490627984643116,9.160004935275063,1.5560634758563392
5.467768830959042,1.239068261389609,9.175565570033626,1.6136105699808716
5.480159513572938,1.3285839178847825,9.191701675733436,1.673221707988172
5.493445352751786,1.417550101704097,9.208433892813318,1.7350141057750688
5.507620853768827,1.505898213516608,9.225784033871069,1.79909643760806
5.522679835903993,1.593550010924985,9.243774998247149,1.8655678162886113
5.538615336013243,1.6804169021474102,9.262430676410036,1.934516768600335
5.555419505034717,1.7663992451098882,9.281775844096039,2.0060202057796563
5.573083497485816,1.851385654743406,9.301836046153836,2.0801423898977607
5.59159735403325,1.935252322283007,9.322637470052813,2.1569338980692336
5.61094987725608,2.0178623513229272,9.344206809033505,2.2364305873041626
5.631128500769309,2.0990651163021643,9.366571114906547,2.3186525635999353
5.652119151932331,2.178695649999287,9.389757640542546,2.403603159547335
5.673906108432323,2.2565740675401833,9.41379367213802,2.491267925345128
5.696471849107725,2.3325050354214865,9.43870635139147,2.5816136387471396
5.71979689946194,2.40627729519846,9.464522487778941,2.674587340206112
5.743859672413925,2.4776632528712446,9.491268361181003,2.7701154004648605
5.768636304942637,2.546418646737053,9.518969515185653,2.8681026292488925
5.794100491410008,2.6122823086799762,9.547650541478141,2.9684314357419255
5.820223314496808,2.6749760366699373,9.577334855835561,3.0709610544102355
5.846973074863507,2.73420459975319,9.608044466379663,3.1755268537321495
5.874315120861039,2.7896559011241644,9.639799734916984,3.2819397507281565
5.902211679872281,2.8410013300026256,9.672619132424266,3.389985761082978
5.930621693172307,2.8878963389438033,9.706518990035097,3.4994257232372274
5.959500656561745,2.9299812897001325,9.741513247267468,3.6099952451138324
5.988800469458746,2.9668826174827267,9.777613199718607,3.721404933963832
6.018469295633573,2.9982143698823007,9.814827249058245,3.833340982755621
6.048451439332396,3.023580182002947,9.853160658885802,3.945466199875143
6.0786872411524255,3.042575752472815,9.892615320884554,4.0574215815793755
6.109112998677154,3.0547918845957502,9.933189536700347,4.168828537192639
6.139660917523112,3.059818151447808,9.974877822072273,4.279291883617182
6.17025909903759,3.0572472315226142,10.017670740908445,4.388403726194378
6.200831571352817,3.0466799409352427,10.061554778170388,4.495748334974704
6.231298370762169,3.02773095780223,10.106512261520136,4.600908106762844
6.261575680340192,3.0000351933666494,10.152521342587765,4.703470672009749
6.291576032273858,2.96325471275956,10.199556049307862,4.80303716062952
6.321208579401454,2.917086047248241,10.247586420914157,4.899231582284026
6.350379439873937,2.8612676722193084,10.296578736736997,4.991711206468057
6.378992116596129,2.795587355482271,10.346495848801677,5.08017774976846
6.406947990150952,2.719889014893446,10.39729762629936,5.164389098092202
6.4341468802998865,2.6340786701924275,10.448941517280282,5.244171218621288
6.460487667001811,2.5381290392529063,10.501383229466494,5.319429859375385
6.48586895739434,2.4320823210934246,10.554577528060248,5.390161603632486
6.510189780605274,2.316050732575898,10.608479144096574,5.456463851293953
6.533350287931033,2.190214425207315,10.663043782609513,5.5185433464386655
6.5552524321831065,2.0548165010873496,10.7182292160739,5.57672296289554
6.57580059719398,1.910154966227521,10.773996445702855,5.631446596069085
6.5949021468562545,1.7565715939510234,10.830310911663545,5.68328218293004
6.612467862795765,1.5944378059166757,10.887143733492845,5.732923072203826
6.6284122408549315,1.4241377965709217,10.944472964214883,5.781188179796133
6.642653618820641,1.2460492118177864,11.002284846012845,5.829021576310477
6.655114110938819,1.0605217302232883,11.06057506177595,5.877492351984548
6.665719328241052,0.867853875460742,11.119349985295795,5.927795781405826
6.67439786699566,0.6682683082260851,11.178627943109854,5.981256963156057
6.681080550077921,0.4618857076566143,11.238440512741414,6.039338240289485
6.685699407154487,0.24869716734136804,11.298833895144309,6.103651821013071
6.688186378827901,0.028534820265661065,11.35987041335444,6.175979116536353
6.688471727030557,-0.19895979287223595,11.421630204519802,6.258298381369773
6.686482129101835,-0.4343702206074889,11.4842131883335,6.352822229835385
6.68213842689576,-0.6785429923869202,11.547741410631854,6.462046379785535
6.675352996971891,-0.9326289048364602,11.612361874429709,6.588810240126334
6.6660267079235265,-1.1981262203919247,11.678249976830973,6.736368063526162
6.654045445719607,-1.4769208370183842,11.745613657466235,6.908464961991169
6.639276237349423,-1.771310958370674,11.814698307086147,7.109402287358348
6.621563127765716,-2.083987941031285,11.885792329959731,7.3440558672274685
6.600723248355403,-2.4179123277303436,11.959232888632005,7.617766580903984
6.5765441250781,-2.7759583392960123,12.035410554441045,7.935933005311549
6.54878454168514,-3.160073218669759,12.11476988449416,8.302960590935996
6.517183809498442,-3.56947400976748,12.19779949040352,8.719909037089828
6.481489069400767,-3.9970922232762955,12.284998580774419,9.179735587952813
6.441518147168003,-4.423360308490421,12.376795936653947,9.658840402451803
6.397284544083099,-4.807724890624324,12.473384340678464,10.105351277044749
6.349207295176856,-5.08374908467211,12.574437853448911,10.432102364931225
6.298369804330135,-5.17357012813596,12.678758877098224,10.535951761022067
6.246634103048775,-5.033341710451104,12.784118394708445,10.359417982545958
6.196300685944264,-4.695415879470683,12.887712574533904,9.947455519599513
6.149346527149557,-4.247445209512115,12.987187129729898,9.417821531571501
6.1068720750544365,-3.771410257169582,13.081365345045613,8.878107318372594
6.069157972482741,-3.3135632562906316,13.17014641822934,8.386426672904
6.0360223399198345,-2.8909295709957643,13.25401068495838,7.961666017868643
6.007113044209877,-2.5055580861239406,13.333627345137067,7.603327778918638
5.982057463348638,-2.1537379464136404,13.409660622926253,7.303966652272282
5.960520083884502,-1.8302822401386991,13.482700289448976,7.054770304451372
5.942217261483115,-1.5301871974210943,13.55324799249349,6.847592621227241
5.9269153895089035,-1.2491530792489982,13.621723918705763,6.675495499949653
5.914423858716414,-0.9836645777184662,13.68847887370526,6.532741214008122
5.904587212939229,-0.7309215235739714,13.753806285845341,6.414617083966684
