th1 (rad),w1 (rad/s),th2 (rad),w2 (rad/s)
5.6110953186343995,-2.598494239999594,2.470981510531753,-1.5154005627671878
5.585110376234404,-2.5372979036339722,2.455827504904081,-1.515007999184542
5.559737397198064,-2.4728752460777126,2.4406774249122356,-1.5118577599505243
5.535008644737287,-2.405486185940606,2.4255588473127303,-1.5063099318728477
5.510953782877881,-2.335383410531517,2.410495747994002,-1.4987107580684027
5.487599948772567,-2.2628106304184814,2.395508640413318,-1.4893898007361788
5.4649718424683815,-2.188001159350364,2.3806147424059563,-1.4786576677793717
5.443091830874878,-2.111176798519285,2.3658281657281623,-1.4668042716406253
5.421980062889685,-2.0325470024427816,2.351160123011756,-1.4540975834217298
5.401654592865257,-1.95230830281662,2.336619147177539,-1.4407828419136495
5.382131509837091,-1.8706439663954773,2.322211318758402,-1.4270821753000464
5.363425070173136,-1.7877238631948666,2.3079404970054016,-1.4131945927843195
5.345547831541188,-1.7037045219926221,2.2938085510775585,-1.3992963040186908
5.328510786321261,-1.6187293511752774,2.279815588037372,-1.3855413257951148
5.312323492809508,-1.5329290043641612,2.2659601747794205,-1.3720623378165533
5.296994202765866,-1.446421871910246,2.2522395514012548,-1.35897175233793
5.282529984046763,-1.3593146812063248,2.2386498338778753,-1.3463629658904324
5.2689368372347,-1.2717031907668763,2.225186204218971,-1.3343117650277974
5.2562198053270315,-1.1836729651022837,2.211843086568693,-1.3228778619104054
5.244383075676009,-1.0953002194921924,2.198614307949589,-1.312106539427675
5.233430073481086,-1.0066527257649447,2.1854932425553124,-1.302030389309605
5.223363546223437,-0.917790772033429,2.1724729386622164,-1.2926711301540774
5.2141856385031025,-0.8287681709344283,2.1595462273606754,-1.2840414953576258
5.205897956793758,-0.7396333121756751,2.1467058124070992,-1.2761471834420806
5.198501623672001,-0.6504302560143576,2.1339443405726786,-1.2689888650731451
5.191997321111858,-0.561199864570564,2.121254451921947,-1.262564242021245
5.186385322466152,-0.4719809675141924,2.1086288095017345,-1.2568701532689466
5.18166551279101,-0.3828115575498654,2.096060107969045,-1.2519047222726285
5.177837397215511,-0.29373000916291625,2.0835410607463185,-1.2476695368962907
5.174900097123882,-0.20477631119629006,2.0710643653773557,-1.2441718496288658
5.172852334011919,-0.11599329994492454,2.058622646881067,-1.2414267802858077
5.17169240101247,-0.027427874564198068,2.046208379078209,-1.239459496453169
5.171418122266828,0.06086782926278783,2.033813784113677,-1.2383073385193855
5.172026800559456,0.14883533813841976,2.0214307107284832,-1.2380218464430632
5.17351515394084,0.236408850260231,2.0090504922640524,-1.2386706347752723
5.175879242443442,0.32351440073729854,1.9966637859162997,-1.2403390514469839
5.179114386450816,0.41006923560523545,1.9842603954018299,-1.2431315452383893
5.183215078806868,0.49598145340360933,1.971829079949446,-1.2471726577149695
5.188174893340904,0.5811499774846844,1.9593573533722963,-1.2526075490436703
5.193986393115751,0.6654649236727278,1.9468312778818597,-1.2596019649974475
5.200641042352479,0.7488084254315461,1.9342352582318854,-1.2683415562413014
5.208129126606794,0.8310559712953737,1.9215518426694724,-1.2790304722621268
5.216439686319748,0.9120782961084788,1.9087615379468512,-1.291889172418651
5.225560469280833,0.9917438480647558,1.8958426462226647,-1.3071514264180744
5.235477907761481,1.069921827615401,1.882771131958484,-1.3250605161726061
5.246177126037635,1.1464857626843918,1.8695205267967578,-1.3458646995065784
5.257641983664479,1.2213175487857955,1.8560618798016921,-1.3698120513708014
5.269855159152337,1.294311844941511,1.842363759287984,-1.3971448565270361
5.282798277601753,1.3653806799375736,1.8283923107227136,-1.4280937842929828
5.296452084401128,1.4344580922240253,1.8141113728797837,-1.4628721251616381
5.310796665323369,1.5015046046937268,1.7994826516281675,-1.501670404842939
5.325811711370306,1.5665113264523247,1.784465947579738,-1.5446517078496143
5.341476824634829,1.6295034804719262,1.7690194305012419,-1.5919480358003144
5.3577718594395485,1.6905431802761808,1.7530999501432387,-1.6436579929583446
5.37467729124231,1.7497313202827456,1.7366633702136554,-1.6998460338390873
5.392174604445138,1.807208500848719,1.7196649098752645,-1.760543428855285
5.410246689453626,1.8631549762166408,1.7020594755867118,-1.8257510107895618
5.428878239215792,1.9177896857458947,1.683801965478816,-1.895443666577756
5.448056136073251,1.971368499582623,1.6648475288130387,-1.9695764458436793
5.467769821069077,2.024181872970367,1.6451517643546019,-2.048092080044264
5.488011639798781,2.0765521535174396,1.6246708435541592,-2.1309296525775423
5.508777161333955,2.1288308195589827,1.6033615470283837,-2.218034136677143
5.5300654695295455,2.1813959442634023,1.5811812056616124,-2.3093665269202637
5.551879428972179,2.2346501807580816,1.5580875403924097,-2.4049143308847087
5.57422593077976,2.28901955189026,1.5340383970835627,-2.504702256252978
5.597116126298663,2.344953309530012,1.5089913745210328,-2.608803020006602
5.620565659393963,2.402925108736183,1.4829033443209667,-2.7173483142300126
5.644594910481325,2.4634357280613672,1.4557298611786667,-2.830540082047327
5.6692292677619385,2.5270175648592126,1.4274244603581934,-2.948662383605898
5.694499443410531,2.594241149043042,1.3979378365221344,-3.072094264357943
5.720441854900962,2.665723954723915,1.367216893878555,-3.2013241772067613
5.747099094448201,2.7421418497147294,1.3352036521064874,-3.3369666594643994
5.774520512945348,2.824243609483353,1.3018339855118435,-3.4797821289424253
5.802762949040182,2.9128690331515394,1.2670361642224193,-3.6307008430799392
5.8318916393716975,3.0089713266366425,1.2307291557916198,-3.790852256165217
5.861981352638064,3.1136445406069986,1.1928206332299676,-3.9616011905512147
5.893117798044134,3.2281569184027012,1.1532046213244553,-4.1445923478987785
5.925399367228161,3.353990910611206,1.1117586978454677,-4.341804583009948
5.958939276334274,3.4928901106894235,1.0683406520153682,-4.555615729033271
5.9938681774411675,3.6469119570959387,1.0227844947250355,-4.788876917922149
6.030337297012127,3.8184816776749733,0.974895725545814,-5.04499084206231
6.068522113788877,4.010435423107278,0.9244458171251909,-5.327978223870999
6.108626468019949,4.226024297098801,0.8711660348864809,-5.642494597524739
6.150886710990937,4.468816773761345,0.8147410889112335,-5.993712466953024
6.195574878728551,4.742366642975383,0.7548039642417033,-6.386886617423074
6.242998545158305,5.049374780318157,0.6909350980674726,-6.826227366967254
6.293492292961487,5.389821761281566,0.6226728243978,-7.312355532764037
6.347390510574303,5.757184605721546,0.5495492690701597,-7.837101335475429
6.404962356631518,6.131682235653407,0.4711782557154054,-8.374162056507961
6.466279178988052,6.470915542159039,0.3874366351503258,-8.866093527838705
6.530988334409642,6.704578499738313,0.29877569987193875,-9.21689072708051
6.598034119407025,6.751348449784462,0.20660679260113363,-9.315349262398557
6.665547603904869,6.570056948369327,0.11345329997714805,-9.105981294132699
6.731248173388563,6.202693608631193,0.022393487035821058,-8.648232683277957
6.793275109474875,5.7443959158767015,-0.06408883979695851,-8.074158251879517
6.850719068633642,5.276798480152209,-0.14483042231575366,-7.496041385460356
6.903487053435164,4.841631564175483,-0.21979083617035722,-6.970555870109296
6.951903369076919,4.451470057932051,-0.2894963948714502,-6.514228740219703
6.996418069656239,4.105230583715517,-0.3546386822736472,-6.125046903481038
7.0374703754933945,3.7971886701302298,-0.4158891513084576,-5.794881717574473
7.075442262194697,3.520848430479338,-0.47383796848420234,-5.514749570741183
7.11065074649949,3.270298751967207,-0.5289854641916142,-5.276611167677024
7.143353734019162,3.0405505577421668,-0.5817515758683844,-5.073784347852626
7.173759239596584,2.827510891080456,-0.6324894193469107,-4.9008718850313615
7.2020343485073886,2.6278519273745164,-0.6814981381972244,-4.753554934017974
7.228312867781134,2.4388685454237513,-0.7290336875374042,-4.6283770248543
7.252701553235371,2.258354160327586,-0.7753174577859472,-4.522556719836706
7.275285094838647,2.084500942147343,-0.8205430249843142,-4.433835580406728
7.296130104260121,1.9158226059630854,-0.8648813807883815,-4.360357852250407
7.315288330319752,1.7510958749368828,-0.9084849593108856,-4.3005758794771065
7.33279928906912,1.5893166825845766,-0.9514907181056567,-4.253175547738575
7.348692455894966,1.4296677453423332,-0.9940224735830424,-4.217017097908702
7.362989133348389,1.2714947762671212,-1.0361926445621295,-4.1910877604666394
7.37570408111106,1.1142891568598559,-1.0781035221667958,-4.1744636242073065
7.386846972679659,0.9576753022554744,-1.1198481584088689,-4.1662789312675645
7.396423725702213,0.8014012584431842,-1.1615109477215446,-4.16570159823199
7.404437738286645,0.6453312862555318,-1.2031679637038646,-4.171914225455684
7.4108910511492,0.4894393457440707,-1.2448871059584214,-4.184100194531071
7.415785444606641,0.33380252512742015,-1.2867281079037323,-4.20143467993712
7.419123469857915,0.17859358689461655,-1.3287424547031035,-4.223080521493801
7.420909405726861,0.02407195201488488,-1.3709732599180415,-4.2481889219576
7.42115012524701,-0.1294273721100805,-1.4134551491376175,-4.275904852370322
7.419855851525909,-0.28150718512227235,-1.4562141976613208,-4.305376875395243
7.417040779674687,-0.4317238024664696,-1.4992679664152733,-4.335770851998693
7.412723541650022,-0.5796047744332534,-1.5426256749352603,-4.366286709424455
7.40692749390569,-0.7246680107041674,-1.5862885420295048,-4.396177159948226
7.399680813798648,-0.8664414407132206,-1.630250313628987,-4.42476701959487
7.391016399391516,-1.0044821494052227,-1.6744979838249356,-4.451471633438396
7.380971577897464,-1.1383938462360392,-1.7190127001593196,-4.475812909502116
7.369587639435103,-1.2678415743676528,-1.7637708292543408,-4.497431617611263
7.356909223691427,-1.3925627490540051,-1.8087451454304535,-4.5160949174894265
7.342983596200887,-1.5123739087708785,-1.8539060946053478,-4.531698508658138
7.327859857113179,-1.6271729293447366,-1.8992230796919292,-4.544263287135868
7.311588127819731,-1.7369368374721978,-1.9446657125632878,-4.553926882421735
7.294218759445009,-1.8417157112600016,-1.9902049813875051,-4.5609308667072375
7.275801602332409,-1.9416234266405015,-2.0358142900545775,-4.565604725816162
7.256385368066004,-2.036826171859128,-2.081470337312739,-4.568347831196307
7.236017106347413,-2.1275297003804763,-2.127153815624702,-4.569610654072147
7.214741809343608,-2.2139662371166047,-2.1728499221654234,-4.5698763391238275
7.192602146972442,-2.296381818925787,-2.218548685556662,-4.569643543105696
7.169638328783185,-2.3750246692907098,-2.264245120987719,-4.569411186281632
7.145888082090278,-2.4501350099558015,-2.3099392328505353,-4.569665500932475
7.12138673199072,-2.5219365246715073,-2.3556358878598602,-4.570869522157395
7.096167366744004,-2.5906295296648794,-2.401344583081434,-4.57345497113176
7.070261071447356,-2.6563857812965983,-2.447079132792752,-4.577816338310584
7.04369721363439,-2.719344765711985,-2.492857296175858,-4.58430688335144
7.01650376597727,-2.7796112651628206,-2.5387003650093725,-4.593236223419623
6.988707653325642,-2.837253975096439,-2.5846327272435685,-4.604869172613179
6.960335113574678,-2.892304947950269,-2.6306814189697003,-4.619425512335177
6.931412064095175,-2.9447596568919914,-2.676875674093052,-4.6370804061925925
6.9019644675262555,-2.9945774995091172,-2.723246478154978,-4.657965215741472
6.872018692531165,-3.041682592997133,-2.7698261303123926,-4.682168519432768
6.841601866601193,-3.0859647454018146,-2.81664781550672,-4.709737182652544
6.810742219147175,-3.1272805198270976,-2.8637451873332456,-4.740677369623005
6.779469413948904,-3.165454339078757,-2.911151961029476,-4.774955427214719
6.747814870558116,-3.2002796065268555,-2.958901515301623,-4.812498606367463
6.715812074492848,-3.23151984502848,-3.007026501365298,-4.853195619316926
6.683496876042563,-3.2589098797655036,-3.055558457558467,-4.896897060920378
6.650907777244908,-3.282157113054892,-3.1045274281676707,-4.943415750829636
6.618086206114358,-3.300942959683754,-3.153961585675967,-4.99252708066593
6.58507677651752,-3.314924529945336,-3.2038868564826264,-5.043969476967131
6.551927531218067,-3.3237366637703936,-3.254326551252298,-5.09744511629076
6.518690164580363,-3.3269944321723823,-3.3053010024152054,-5.152621052667427
6.485420220258639,-3.324296230167958,-3.3568272129418797,-5.20913093813857
6.45217725795696,-3.315227586418482,-3.4089185223232654,-5.266577532200632
6.4190249820927745,-3.2993658066757,-3.4615842976452718,-5.324536202765227
6.386031324026018,-3.2762855480884263,-3.514829659672924,-5.382559616355669
6.353268468545133,-3.2455653869937264,-3.5686552558364806,-5.440183795081403
6.320812814675196,-3.206795391943878,-3.6230570937872946,-5.496935679070006
6.288744860755757,-3.159585645449363,-3.6780264505779945,-5.552342272948458
6.257149004301263,-3.1035755729983845,-3.7335498733074792,-5.605941372730142
6.22611324857128,-3.0384438394295077,-3.789609287034781,-5.6572937666107315
6.195728810176985,-2.9639184665780873,-3.8461822247008883,-5.705996684424691
6.166089625511204,-2.879786721136355,-3.9032421915451354,-5.7516981442340525
6.137291758299841,-2.785904229308344,-3.960759172987476,-5.794111722685718
6.109432716006758,-2.682202708158415,-4.018700290214333,-5.83303117322095
6.082610688925174,-2.5686956755517296,-4.077030601946543,-5.868344249125326
6.056923732169657,-2.4454815220397497,-4.135714044437797,-5.900045072039335
6.032468916949259,-2.3127434051061235,-4.19471449515819,-5.928244432609686
6.009341482898198,-2.170745558282318,-4.253996939484287,-5.953177523989028
5.987634027315375,-2.0198257861903555,-4.3135287147241765,-5.975208788360892
5.967435769453471,-1.860384125024186,-4.373280802607786,-5.994833790360373
5.948831928203229,-1.6928678633909116,-4.43322914051139,-6.012678300298846
5.93190324956932,-1.5177533144124609,-4.493355923514378,-6.029495050633951
5.916725716425195,-1.3355248805659037,-4.553650874020717,-6.046158896280099
5.903370467619536,-1.1466520362935972,-4.614112462983519,-6.063661341653605
5.8919039472565995,-0.9515648558239408,-4.6747490764000545,-6.0831055806733
5.88238829869836,-0.7506286299989671,-4.735580132206787,-6.105703326180924
5.874882012398371,-0.5441179504910533,-4.796637165468597,-6.13277478906017
5.86944083289346,-0.3321904046197621,-4.857964913359198,-6.165753220809271
5.866118928847262,-0.11485973666772428,-4.919622445567291,-6.206195478593749
5.864970331480585,0.10803198608939832,-4.981684400353228,-6.255800131504941
5.866050651341479,0.33684398537810195,-5.044242401668278,-6.316434715423672
5.86941909119526,0.5721692295679985,-5.107406748822514,-6.39017385358957
5.87514078349094,0.8148709835820768,-5.17130848735841,-6.479350033194645
5.88328949332676,1.0661246298913092,-5.236101987690357,-6.58661870310516
5.893950739625674,1.3274653263011327,-5.3019681747214085,-6.715038652528483
5.9072253928886855,1.6008402700315307,-5.369118561246693,-6.868166498645382
5.923233795589001,1.8886599989619093,-5.437800226233147,-7.050158719169511
5.94212039557862,2.1938333973066064,-5.5083018134248425,-7.265862083886477
5.964058729551685,2.5197498221573547,-5.580960434263707,-7.520845229934176
5.989256227773259,2.8701265107364295,-5.656168886563049,-7.821263127750088
6.017957492880623,3.2485454164716967,-5.73438151784055,-8.173317677047022
6.05044294704534,3.6573169585353393,-5.81611469461102,-8.581819568430742
6.087016116630694,4.094973265906009,-5.901932890295328,-9.04688822814629
6.127965849289754,4.5512400512048,-5.99240177257679,-9.557181064699096
6.173478249801802,4.998316861815467,-6.087973583223781,-10.077972628780762
6.223461418419957,5.379970011767118,-6.188753309511589,-10.536033509666082
6.277261118537628,5.609746513035993,-6.29411364460825,-10.816768280081774
6.333358583667988,5.602407193014604,-6.402281327409067,-10.806783334386497
6.389382655598134,5.339694959692519,-6.5103491607529325,-10.48330675933079
6.442779605195059,4.897620736925705,-6.6151822283462405,-9.950200217844625
6.491755812564317,4.3853072758685,-6.7146842305246865,-9.353387958744744
6.535608885323001,3.878131786021507,-6.808218110112134,-8.790761978708648
6.574390203183216,3.4081583341241215,-6.89612572989922,-8.301189933992328
6.608471786524458,2.982140356437804,-6.979137629239143,-7.8900953653802315
6.638293190088836,2.596580669328075,-7.058038582892945,-7.550047336956632
6.664258996782117,2.245106758606644,-7.133539056262512,-7.270536853850663
6.686710064368183,1.9213196298791568,-7.206244424801018,-7.04157215119957
6.7059232606669745,1.6196803315210768,-7.276660146313014,-6.854668540728808
6.722120063982185,1.3356602015844623,-7.345206831720302,-6.702900629768328
6.735476665998029,1.0656512011030197,-7.412235838017985,-6.580674611193141
6.746133178009059,0.8068207440002954,-7.478042584129916,-6.4834559252973865
6.754201385449062,0.5569733241671748,-7.54287714338289,-6.407526463952406
6.759771118690733,0.3144357502623406,-7.606952408022415,-6.349787719239735
6.762915476193357,0.07796685637488404,-7.670450285214812,-6.307607425570555
6.763695144757106,-0.15331231396712255,-7.733526359470518,-6.278702468689773
6.762162021617435,-0.379972744759718,-7.796313384157416,-6.26105080260599
6.758362294169838,-0.6023205862163858,-7.858923892183475,-6.25282640108317
6.752339088307674,-0.8204329273698389,-7.921452156194307,-6.252352674152279
6.744134759033976,-1.0341891709205764,-7.98397568293583,-6.2580709280119695
6.7337928673247704,-1.2433002781624112,-8.04655639221595,-6.268521261422959
6.721359864543146,-1.4473375123928427,-8.10924160483018,-6.282333796884465
6.706886489419218,-1.6457617110485918,-8.172064942799024,-6.298228396007123
6.690428872308732,-1.8379535473247732,-8.235047226759095,-6.315021071317644
6.672049336835484,-2.023244704733552,-8.298197437472272,-6.331635251647174
6.651816889788149,-2.200949403406164,-8.361513789988743,-6.347115958035698
6.629807395754088,-2.3703953182730455,-8.424984949569101,-6.36064487294147
6.606103442571357,-2.530952654941442,-8.488591398298516,-6.3715543002991915
6.580793916021943,-2.6820600324683377,-8.552306941301508,-6.37933816324555
6.5539733156972595,-2.8232458814279493,-8.616100322933963,-6.3836584901246916
6.52574085688298,-2.9541442959426307,-8.679936907835211,-6.3843462869625265
6.496199413923553,-3.074504649263186,-8.743780370704837,-6.381396245112119
6.4654543674309215,-3.1841947413369662,-8.807594333155958,-6.374955322549092
6.4336124200175515,-3.283197727628167,-8.87134388638145,-6.365305792591431
6.40078044274127,-3.371603514496602,-8.934996944307365,-6.352843805993256
6.367064407596303,-3.4495956426631698,-8.998525382367298,-6.338054811523667
6.332568451169672,-3.517434882669962,-9.061905930482535,-6.32148730376544
6.297394102342972,-3.5754408256990944,-9.12512080352019,-6.303726321589993
6.261639694085981,-3.6239726836973114,-9.18815806673609,-6.285367937660936
6.225399967249008,-3.663410345390209,-9.251011746112699,-6.266995704793775
6.188765863795107,-3.6941365088404505,-9.313681703160636,-6.249159710239616
6.151824498706702,-3.71652046632673,-9.376173300263032,-6.232358580683487
6.114659294043435,-3.7309038870955744,-9.438496886069867,-6.217024515001092
6.077350255172479,-3.7375887520450246,-9.500667131219878,-6.203511221345078
6.039974367652029,-3.7368274553267655,-9.562702243433328,-6.19208450979502
6.002606093098761,-3.7288150055690363,-9.624623088531278,-6.1829152409846655
5.96531794304307,-3.713683231062978,-9.686452240941124,-6.176074346900591
5.9281811107324405,-3.691496911007413,-9.748212984410129,-6.171529710222346
5.891266141622366,-3.662251807912081,-9.809928281512352,-6.169144798869628
5.854643623543246,-3.6258746518561153,-9.871619729501049,-6.168679087704292
5.818384877024685,-3.5822252115993973,-9.933306520378093,-6.169790443893584
5.7825626249086906,-3.531100665525824,-9.995004424817028,-6.172039789617256
5.747251618253432,-3.4722425408275805,-10.0567248227132,-6.174898467389923
