th1 (rad),w1 (rad/s),th2 (rad),w2 (rad/s)
2.605439154068253,3.1196067528656437,6.095426119299496,1.7057697393897004
2.6366352215969093,3.064405096157075,6.112483816693393,1.7054007572964518
2.66727927255848,3.010657905493251,6.129537824266357,1.7020831752263814
2.6973858516134124,2.9585334813451256,6.146558656018621,1.6961838254845238
2.7269711864268635,2.9081860398216492,6.163520494273467,1.6880467853986962
2.75605304682508,2.859756013581373,6.180400962127454,1.6779933548372206
2.7846506069608936,2.8133705810027863,6.197180895675826,1.6663224097314384
2.8127843127709213,2.769144361818177,6.213844119773141,1.653311045686034
2.840475756389103,2.7271802263508533,6.230377230230001,1.6392154353753254
2.8677475586526113,2.6875701740582367,6.246769384583755,1.624271833510404
2.894623260393194,2.650396244971512,6.263012102918859,1.6086976730699134
2.921127222842909,2.615731434664557,6.2790990796495585,1.5926927057816007
2.9472845371895544,2.5836405895070698,6.295026006707374,1.576440148258956
2.9731209430846253,2.554181264155415,6.3107904081899635,1.560107802603507
2.9986627557261794,2.527404527552593,6.326391486215998,1.543849126638969
3.0239368010017054,2.5033557072175787,6.341829977482388,1.527804234273432
3.048970358073881,2.4820750643908616,6.357108019825122,1.51210081085671
3.0737911087177894,2.46359839475981,6.372229027933689,1.4968549319028246
3.0984270926653874,2.447957551106203,6.387197577252717,1.482171776285105
3.1229066681764492,2.4351808853858192,6.4020192950155685,1.4681462270896584
3.1472584770303076,2.4252936085463688,6.416700757286465,1.4548633548359493
3.171511413115771,2.4183180668875464,6.431249390834824,1.4423987788396675
3.1956945937846464,2.4142739340300503,6.445673378623221,1.4308189031950567
3.219837333124947,2.4131783176465076,6.459981567655172,1.420181024276742
3.243969116301412,2.415045780067746,6.474183377897939,1.410533306884038
3.2681195741020894,2.419888271759429,6.4882887109667795,1.4019146262480928
3.2923184568196837,2.4277149765099395,6.50230785722926,1.394354273165165
3.3165956065847833,2.43853206702203,6.516251399960912,1.3878715195775422
3.3409809272550035,2.4523423694990685,6.5301301151566875,1.3824750420674492
3.365504350949994,2.4691449358038673,6.543954865577362,1.37816220103163
3.3901958003080326,2.488934521888811,6.557736487587678,1.3749181738426264
3.4150851455269207,2.51170097149908,6.571485669326104,1.372714941161059
3.4402021552419115,2.5374285046906526,6.585212818737714,1.371510126833549
3.465576440288818,2.566094911542635,6.59892792000605,1.371245693594987
3.4912373894042443,2.597670652648756,6.612640376941999,1.3718464992037447
3.517214095930732,2.6321178696239187,6.626358841934037,1.3732187207968145
3.5435352746269713,2.6693893110464035,6.640091029142005,1.3752481592909938
3.5702291677374354,2.709427182071791,6.653843510734915,1.3777984407152581
3.5973234395581533,2.752161929505798,6.667621495142067,1.380709137579591
3.6248450588532113,2.79751097851979,6.681428586517863,1.3837938409018127
3.652820168638409,2.8453774425438243,6.695266524926881,1.3868382224430404
3.6812739430638475,2.895648834277801,6.709134907151311,1.3895981371245845
3.7102304314066257,2.948195813299501,6.723030888522557,1.3917978275333847
3.7397123895396205,3.0028710144566606,6.736948866797891,1.393128305793876
3.769741099684187,3.059508011080898,6.7508801498558295,1.3932460026778626
3.800336179794996,3.1179204779283616,6.7648126098826085,1.3917717892353758
3.8315153845742795,3.1779016303703562,6.778730327774962,1.388290491797899
3.863294400877983,3.239224028274503,6.792613232692942,1.382351035943536
3.895686641160728,3.301639844539573,6.806436743052377,1.3734673675350928
3.9287030396061238,3.3648817083872293,6.820171416727727,1.3611203073971014
3.9623518566899962,3.4286642409454884,6.833782619801698,1.3447604982357713
3.996638499099451,3.492686403697456,6.847230224784056,1.3238125951857769
4.031565363136425,3.556634776995,6.860468350735914,1.2976808316495498
4.067131710906375,3.62018787378594,6.87344515905241,1.265756056445818
4.103333589644235,3.6830215706506824,6.886102719616868,1.2274242834383524
4.140163805350742,3.744815702109599,6.898376962451251,1.1820767182100722
4.177611962371838,3.8052618135434795,6.910197729633352,1.1291211268387655
4.215664580507273,3.864072002795543,6.92148894090174,1.0679942905521644
4.254305300535228,3.9209887022787684,6.932168883807261,0.9981751512943555
4.2935151875580155,3.9757951663286,6.942150635320204,0.9191981052422841
4.333273139221301,4.028326339608807,6.951342616372627,0.8306657565579323
4.373556402617389,4.078479701481967,6.959649273938206,0.7322603185588723
4.414341199632209,4.126225620640103,6.966971877123795,0.6237527630562785
4.4556034558386095,4.171616727319713,6.973209404754358,0.5050087900439854
4.497319623111807,4.214795829642899,6.978259492654797,0.3759907351606637
4.5394675814082355,4.256001975328918,6.982019400006404,0.23675466004771747
4.582027601161525,4.295574393799122,6.9843869466068815,0.08744207847762561
4.624983345099516,4.333954242586505,6.985261367391658,-0.07173395708410268
4.668322887525381,4.371684313876179,6.984544027820817,-0.24050837789822235
4.712039730664143,4.409407112974784,6.982138944041835,-0.41858890092259615
4.756133801793891,4.447861977795941,6.977953055032609,-0.6056855363271291
4.80061242157185,4.487882145115628,6.971896199669338,-0.8015440823004205
4.845491243023007,4.5303928693528155,6.963880758846334,-1.0059828827375126
4.890795171716535,4.57641185727479,6.953820930018959,-1.21893227941766
4.936559290289283,4.627053404713401,6.941631607224783,-1.4404765169168092
4.9828298243364175,4.683537729965871,6.927226842055615,-1.6708983504274078
5.029665201636076,4.747207125167485,6.910517858551341,-1.910727249702557
5.077137272887751,4.819550730207541,6.891410586054315,-2.160792868997532
5.125332780189827,4.902240010899645,6.86980265736434,-2.4222863441921563
5.174355180298823,4.9971774156243605,6.845579793922418,-2.696832954721715
5.224326954455067,5.106561169228406,6.818611464375201,-2.9865806751149946
5.27539256614735,5.232969605728847,6.788745657624051,-3.2943099291114493
5.327722262204639,5.379468444167449,6.755802558332936,-3.6235698856554315
5.381516946646314,5.5497429493435035,6.719566859476382,-3.978844471225324
5.437014376139749,5.748251479749543,6.679778414764129,-4.365743412874345
5.494496890937245,5.980381481502973,6.636120980635385,-4.791191643728123
5.554300705752275,6.252549233229857,6.588209064198104,-5.263534270257583
5.616826198084573,6.572087129642723,6.535573721495528,-5.792337155369175
5.682547069381,6.9465315548661355,6.477650349941836,-6.387339256837876
5.752012384929661,7.381405987418813,6.413776957373457,-7.05528560701885
5.825826444803849,7.874556673669912,6.343224101303269,-7.791914978645566
5.904572011540548,8.4036421224589,6.265304951516813,-8.56433553385742
5.988608432765137,8.90420082882923,6.1796615961782395,-9.280189945432884
6.077650441053429,9.250048860758358,6.086859696723911,-9.760174259966316
6.170150929661013,9.287583745272741,5.989257954124247,-9.786470642629984
6.26302676711374,8.967171350427753,5.891393247697947,-9.287707101913934
6.352698480618018,8.4227353726636,5.798516176678808,-8.4510161987258
6.436925834344653,7.838727570793179,5.71400601469155,-7.535423056962786
6.515313110052585,7.316976182184692,5.6386517841219215,-6.684847070265323
6.588482871874431,6.8835538292296645,5.571803313419268,-5.937198770045485
6.657318410166728,6.532820467915864,5.512431325718813,-5.285731811264899
6.722646614845887,6.251381116626671,5.4595740076061645,-4.71253054154097
6.785160426012154,6.026243724189267,5.412448702190755,-4.200005259932159
6.845422863254046,5.846729569364655,5.370448649591434,-3.733672862540183
6.903890158947693,5.70446763452373,5.333111920966032,-3.30225190697975
6.96093483529293,5.59294198145968,5.300089401896234,-2.897121477101386
7.016864255107527,5.507023211566443,5.271118187125221,-2.511747988167465
7.071934487223191,5.442585416289118,5.246000707243546,-2.141223186176935
7.126360341386082,5.396214952342237,5.224588475381776,-1.7819220878722462
7.1803224909095045,5.3649951669830065,5.206769254503054,-1.431256748200739
7.233972442579335,5.346350000967985,5.192456687021046,-1.087498508419787
7.287435942589014,5.337933112296332,5.181581701936849,-0.7496455076597566
7.340815273711978,5.33755304870097,5.174085246860251,-0.4173173199773217
7.394190804198987,5.343127846484869,5.169912073660478,-0.09066313097565404
7.447622082663836,5.352664110940687,5.169005442350722,0.2297261628612418
7.501148723773243,5.364256316304311,5.171302703979334,0.5429079386810158
7.554791286936286,5.376102031855184,5.176731783366145,0.8476825339015819
7.608552307254838,5.386528364900905,5.18520860870516,1.142692135276005
7.662417590903847,5.394024457004057,5.196635530057921,1.4265207370708537
7.716357835473888,5.3972746916288274,5.210900737428629,1.6977901796651331
7.770330582390176,5.395187591481833,5.22787863922528,1.9552464569397854
7.824282458304994,5.386916279021284,5.247431103794678,2.1978307920984688
7.878151621095207,5.37186775695988,5.269409411715663,2.4247313121624723
7.931870298664806,5.349699915437012,5.293656724837287,2.635413180390711
7.985367297819176,5.320306802019107,5.320010856641194,2.829627327972781
8.038570365839366,5.283794032385228,5.348307129920922,3.007400011381317
8.091408306163219,5.240447094623778,5.378381130034735,3.16900696580888
8.143812777109456,5.190695650389891,5.4100711996928235,3.3149367553961295
8.195719733613355,5.135076815681794,5.443220567246785,3.4458480412540946
8.247070501770173,5.074199941128739,5.477679047659326,3.562525035958417
8.29781250118146,5.008714762145962,5.51330429801891,3.6658345935057586
8.347899648802919,4.939284095890926,5.549962643953967,3.7566874070869543
8.397292489761828,4.866561630368976,5.587529518024837,3.83600482557714
8.445958106065518,4.7911748425661225,5.625889566280609,3.9046919676220186
8.49386985449118,4.713712718892842,5.664936485956829,3.9636171660814457
8.541006981680109,4.6347177258476515,5.704572657617644,4.013597325917055
8.587354158938586,4.554681368723711,5.744708630876814,4.055388505974024
8.632900972625823,4.4740426522751235,5.785262515936554,4.0896809050125995
8.677641399148573,4.393188791095192,5.82615932498668,4.1170974063744215
8.721573287059526,4.312457585019099,5.867330299050424,4.138194878449887
8.764697862909717,4.232140957926804,5.908712247834924,4.153467510735523
8.807019272488985,4.152489244341445,5.950246922942279,4.163351566209282
8.848544164932399,4.073715889433302,5.991880438604372,4.168231035320605
8.889281323826731,3.9960023003296414,6.033562748957578,4.168443776013821
8.929241346830027,3.919502648412804,6.075247186717716,4.164287813007953
8.968436373314155,3.844348473591986,6.116890064847795,4.156027546089751
9.006879858050075,3.7706529832982114,6.1584503403086925,4.143899681345789
9.044586387883058,3.6985149725332893,6.19988933712215,4.128118752032693
9.08157153760839,3.628022318151491,6.241170524642477,4.108882138633223
9.117851760789906,3.5592550220165386,6.28225934602881,4.086374532174888
9.153444311010071,3.4922877949051525,6.323123091350559,4.060771812613468
9.188367188959123,3.4271921869328934,6.363730809476694,4.032244336316531
9.222639110828453,3.364038281534983,6.4040532528398595,4.00095964448079
9.256279493643802,3.3028959791138632,6.444062849284667,3.9670846184903503
9.289308453434941,3.243835903669819,6.483733695469571,3.9307871193582598
9.32174681247164,3.186929971243275,6.523041566663154,3.892237156901801
9.353616112184072,3.1322516629227466,6.5619639382321715,3.851607640465387
9.3849386288133,3.0798760475790634,6.600480014636825,3.8090747670259346
9.41573738928909,3.029879600437068,6.638570762307085,3.7648181045572637
9.44603618529346,2.982339863171329,6.676218943352657,3.7190204287485495
9.475859583925173,2.9373349895249694,6.713409147640142,3.6718673697386137
9.505232933820423,2.8949432176501757,6.750127821337529,3.623546922641548
9.534182365996925,2.8552423066399526,6.786363290563944,3.574248871528609
9.562734789063324,2.8183089702745288,6.82210577927923,3.5241641714505545
9.590917878766069,2.784218336069289,6.857347420993736,3.4734843273032214
9.618760062126762,2.753043452512502,6.892082264266768,3.422400802129232
9.646290496651888,2.7248548621375224,6.92630627228806,3.3711044810712014
9.673539045273264,2.6997202529795294,6.960017317098772,3.3197852108838597
9.70053624780306,2.677704196183446,6.993215169207611,3.2686314288771103
9.727313289764894,2.6588679731821205,7.025901483496382,3.217829889561115
9.753901969496715,2.6432694920371738,7.058079782391993,3.1675654922151506
9.780334664417087,2.630963289274999,7.089755437314144,3.1180212081763354
9.806644297309836,2.6220006108675435,7.120935649395908,3.0693781028721894
9.83286430341851,2.616429563881204,7.15162943042463,3.0218154444945893
9.859028599057323,2.614295328702564,7.181847584869576,2.9755108886931643
9.88517155234435,2.615640420584034,7.211602693756507,2.9306407266904473
9.91132795655019,2.6205049884616423,7.240909101023412,2.8873801827091934
9.937533006434807,2.628927138501812,7.269782902850504,2.8459037454640113
9.963822277819824,2.64094326955424,7.298241940305144,2.8063855176105896
9.990231710515367,2.6565884075483694,7.32630579548125,2.7689995663732248
10.016797594590852,2.675896525802967,7.353995791144983,2.7339202579974358
10.04355655984888,2.6989008381634934,7.381334993724957,2.7013225581203946
10.070545568230516,2.7256340517931017,7.408348219306161,2.6713822795506186
10.097801908748448,2.7561285662858834,7.435062042101667,2.6442762582467045
10.125363194411307,2.7904166055244963,7.461504804684134,2.6201824374454685
10.153267360466552,2.8285302683619746,7.4877066290585885,2.599279838893219
10.181552663150171,2.8705014837775096,7.513699427447521,2.581748398980135
10.210257677987947,2.9163618556619744,7.539516911437322,2.5677686462889056
10.239421296544567,2.9661423818708763,7.565194597900211,2.5575211956912813
10.269082720363276,3.019873031697131,7.5907698098571235,2.551186032733262
10.299281450680247,3.0775821655381943,7.616281670184456,2.5489415607443604
10.33005727233563,3.1392957803544332,7.6417710857919,2.550963382024035
10.361450230139173,3.2050365646490846,7.66728071961214,2.557422783768466
10.393500595785664,3.274822747272696,7.692854947449825,2.56848489930795
10.42624882325839,3.3486667255093154,7.718539796442904,2.5843065159675045
10.459735490513484,3.426573459790936,7.744382861602579,2.605033502708859
10.494001225111393,3.508538625167564,7.770433196629668,2.630797833950471
10.52908661136307,3.5945465134831553,7.796741174969172,2.6617141908919373
10.565032076497902,3.68456768520362,7.823358316878092,2.697876128578421
10.601877753349937,3.778556376107032,7.850337078163876,2.739351806082207
10.639663317111008,3.8764476716170635,7.877730596224698,2.786179288737629
10.67842779382718,3.978154470399615,7.905592389112074,2.838361445423077
10.718209338531175,4.083564268810579,7.933976003566304,2.895860480374707
10.75904498121928,4.192535808620481,7.962934608370051,2.958592157690297
10.800970339305485,4.304895641756262,7.992520529946954,3.0264197970674194
10.844019295723047,4.420434677060959,8.022784727917628,3.0991481407051444
10.888223642493656,4.5389047846217485,8.05377620932468,3.1765172127278882
10.933612690339874,4.66001554230371,8.085541381451959,3.2581963127956226
10.980212845762912,4.783431215956669,8.118123344579915,3.3437783034303754
11.02804715792248,4.908768068575265,8.151561127614219,3.432774364656129
11.077134838608233,5.035592093857037,8.18588887126078,3.52460939856095
11.127490759546802,5.1634172657265704,8.221134965246389,3.6186182693658107
11.179124932204068,5.291704387428991,8.257321147940047,3.7140430610082458
11.232041976078358,5.419860612138566,8.294461578550129,3.810031524248595
11.286240582199744,5.547239692579083,8.332561893792615,3.9056368697929353
11.341712979125534,5.673143001337211,8.371618262490545,3.9998190446622637
11.398444409138905,5.796821348276556,8.411616452937167,4.091447608605014
11.456412622621672,5.9174776090159895,8.452530929023217,4.179306309001596
11.515587398711832,6.034270171320638,8.494323992113232,4.262099440085494
11.575930100425039,6.146317206958691,8.536944986514087,4.338460069025959
11.637393272494625,6.252701787318588,8.580329587204346,4.406960220563218
11.699920290367812,6.352477883498536,8.624399189409978,4.466123135386263
11.763445069202797,6.444677326392914,8.66906042076384,4.514437755384226
11.827891842466727,6.528317848910182,8.714204798317683,4.550375638791143
11.893175020955828,6.602412388474417,8.759708554705593,4.5724105642176855
11.959199144840573,6.665979888628148,8.80543266034777,4.579041134594147
12.025858943726854,6.718057896059048,8.851223071693711,4.568816725207476
12.093039522687445,6.75771729213887,8.896911238945787,4.540367113964666
12.160616695608834,6.7840795101478255,8.942314910085434,4.492436061043822
12.228457490710312,6.796336550321464,8.987239270695872,4.423918939201283
12.296420856213526,6.793773990612604,9.031478460087884,4.333904223757949
12.364358596119652,6.775796976418681,9.074817502325464,4.221718205322192
12.43211656588384,6.74195883619653,9.117034684378686,4.086971674174242
12.499536154245805,6.691991502463177,9.157904401120428,3.929606553775904
12.566456069270437,6.625836332347367,9.197200466658186,3.7499395828632687
12.632714432593911,6.54367326616898,9.234699862486819,3.548699265333226
12.6981511652556,6.445945627557005,9.270186855140151,3.3270515888904426
12.76261062153117,6.333377389743392,9.303457371029056,3.0866096723704897
12.825944395428603,6.2069795754007195,9.33432346775276,2.8294227715245195
12.888014191182611,6.068042783786719,9.362617695468005,2.557941147116174
12.948694619020479,5.918113756400004,9.388197106939167,2.2749552521944003
13.007875756584479,5.758955396432754,9.41094665946111,1.9835104084363593
13.065465310548806,5.592491590550851,9.430781763545474,1.6868012635101175
13.121390226454315,5.4207402330354375,9.447649776180574,1.3880533013475
13.175597628784669,5.245739614120601,9.46153030919405,1.090400879667352
13.228055024925874,5.069474407895655,9.472434317990723,0.7967721514708775
13.27874976900483,4.8938076144232605,9.480402039505432,0.509790517972124
13.327687845149063,4.720423933425617,9.485499944685152,0.23170006413378502
13.374892084483319,4.550788372640175,9.48781694532649,-0.03568079331068014
13.42039996820972,4.3861218000413995,9.487460137393382,-0.2909767824873544
13.464261186210134,4.227393071047477,9.48455036956851,-0.5332469355461511
13.50653511692061,4.075325668453993,9.479217900213047,-0.7619543446319859
13.54728837360515,3.93041570243384,9.471598356766728,-0.9769206805663261
13.586592530629488,3.792957676432021,9.461829149961066,-1.1782718246562878
13.624522107393808,3.6630745385573587,9.450046431714503,-1.3663803184537193
13.661152852779383,3.5407490355079196,9.436382628529966,-1.5418091863312333
13.696560343134461,3.4258540797262693,9.420964536666654,-1.7052603472182761
13.730818883931724,3.3181805715701156,9.403911933194472,-1.8575295484416037
13.764000689647425,3.2174617777079124,9.385336637710056,-1.999468675839986
13.796175307424503,3.1233938968341923,9.365341950951656,-2.1319554831984115
13.827409246392845,3.035652827398229,9.344022396119671,-2.255870240123854
13.857765774666827,2.9539073995746055,9.321463693718433,-2.3720784828891457
13.887304848662573,2.8778294692290163,9.297742908889543,-2.4814189139969987
13.916083143354864,2.807101323268457,9.272928719749572,-2.584695478940721
13.94415415658755,2.7414208396930504,9.247081764960164,-2.6826727058527915
13.97156836498448,2.680504803210014,9.220255037901635,-2.776073488832544
13.99837341301658,2.6240907140727106,9.19249430301331,-2.86557860247202
14.024614320157307,2.5719373542023107,9.16383851698859,-2.951827335893951
14.05033369369933,2.5238242965518807,9.13432024362965,-3.035418718429402
14.075571936664849,2.4795504635935006,9.103966056445357,-3.1169128692526
14.100367441300785,2.4389317587921435,9.072796927752831,-3.1968320358940425
14.124756758888706,2.401797709371791,9.040828607393891,-3.275660889069267
