th1 (rad),w1 (rad/s),th2 (rad),w2 (rad/s),a1 (rad/s^2),a2 (rad/s^2)
0.02826311680068518,-1.064508697592777,2.721316466660589,-1.2196099772771711,-3.3286764788881005,-7.489335193390333
0.01761802982475741,-1.0977954623816581,2.7091203668878174,-1.2945033292110744,-3.184013393506578,-7.498553532727187
0.006640075200940827,-1.129635596316724,2.696175333595707,-1.3694888645383463,-3.0318676414858037,-7.506907932274166
-0.004656280762226413,-1.159954272731582,2.6824804449503232,-1.444557943861088,-2.872049408686289,-7.514066350653524
-0.016255823489542232,-1.1886747668184448,2.6680348655117125,-1.5196986073676233,-2.704348216461754,-7.519668796698257
-0.02814257115772668,-1.2157182489830622,2.6528378794380365,-1.5948952953346058,-2.5285329519762114,-7.523326463838897
-0.04029975364755731,-1.2410035785028244,2.6368889264846906,-1.6701285599729947,-2.3443523579935444,-7.5246213897503695
-0.05270978943258555,-1.26444710208276,2.6201876408849607,-1.7453747738704983,-2.151536098088335,-7.52310680575924
-0.06535426045341315,-1.2859624630636433,2.602733893146256,-1.8206058419280908,-1.9497965207369772,-7.518308356309337
-0.07821388508404958,-1.305460428271013,2.584527834726975,-1.8957889254911842,-1.7388312500783594,-7.509726381775651
-0.09126848936675971,-1.3228487407717966,2.5655699454720633,-1.9708861893089407,-1.5183267310322321,-7.496839466637113
-0.10449697677447768,-1.3380320080821189,2.545861083578974,-2.045854583975312,-1.287962850499196,-7.479109457748781
-0.11787729685529887,-1.3509116365871108,2.525402537739221,-2.1206456785528,-1.0474187429642121,-7.455988152249046
-0.13138641322116998,-1.361385824016753,2.504196080953693,-2.19520556007529,-0.7963798663357372,-7.426925839392817
-0.1450002714613375,-1.3693496226801103,2.48224402535294,-2.2694748184692184,-0.534546400657417,-7.39138185316652
-0.15869376768813862,-1.3746950866866845,2.459549277168248,-2.3433886370008836,-0.2616429769903606,-7.3488372508760635
-0.17244071855500545,-1.3773115164565881,2.436115390798239,-2.416877009509644,0.022570314782241807,-7.298809675303428
-0.18621383371957134,-1.3770858133087658,2.4119466207031426,-2.489865106262678,0.31828576268269554,-7.240870383413409
-0.199984691852659,-1.3739029556819389,2.387047969640516,-2.562273810096812,0.6256349227927382,-7.174663332817794
-0.21372372140947837,-1.3676466064540116,2.3614252315395476,-2.63402044342499,0.9446748688127727,-7.0999261094297506
-0.2274001874740185,-1.3581998577658838,2.335085027105298,-2.7050197045192874,1.2753742127230934,-7.016512358789602
-0.24098218605167734,-1.3454461156386528,2.308034830060105,-2.7751848281071836,1.61759941795726,-6.924415254203763
-0.25443664720806386,-1.3292701214590803,2.280282981779033,-2.844428980649221,1.971102033855821,-6.823791404066113
-0.26772934842265467,-1.309559101120522,2.251838691972541,-2.9126668946898824,2.335507577191098,-6.714984477661095
-0.2808249394338599,-1.2862040253486111,2.222712023025642,-2.9798167394664934,2.7103068639415127,-6.5985477244638675
-0.29368697968734603,-1.259100956709196,2.192913855630977,-3.0458022167111323,3.094850642207343,-6.475264488947365
-0.306277989254438,-1.2281524502871226,2.162455833463866,-3.110554861600606,3.488348385280338,-6.346165794203294
-0.31855951375730923,-1.1932689664343192,2.13135028484786,-3.174016519542639,3.889872063724455,-6.212544095644131
-0.3304922034216524,-1.1543702457970746,2.0996101196524335,-3.23614196049908,4.2983656207423495,-6.075962400929326
-0.3420359058796232,-1.111386589589651,2.067248700047443,-3.2969015845083733,4.712660723804334,-5.938258120648778
-0.3531497717755197,-1.0642599823516077,2.034279684202359,-3.356284165714861,5.131499160277164,-5.801541257693562
-0.36379237159903577,-1.012944990748836,2.00071684254521,-3.4142995782917964,5.553561994284763,-5.668186856930912
-0.37392182150652414,-0.9574093708059883,1.9665738467622922,-3.4709814468611055,5.977505321120807,-5.540822009343221
-0.38349591521458404,-0.8976343175947803,1.931864032293681,-3.526389666954538,6.402002164807997,-5.422308118346074
-0.39247225839053185,-0.8336142959467003,1.8966001356241358,-3.5806127481379986,6.825789788945064,-5.315719567566013
-0.40080840134999884,-0.7653563980572496,1.8607940081427559,-3.633769943813659,7.2477214583758816,-5.224320352953249
-0.40846196533057133,-0.6928791834734909,1.8244563087046193,-3.6860131473431914,7.666821526965907,-5.1515406317181
-0.4153907571653062,-0.6162109682038318,1.7875961772311875,-3.7375285536603724,8.08234265953095,-5.100955473561583
-0.42155286684734455,-0.5353875416085223,1.7502208916945838,-3.788538108395988,8.493824042889573,-5.076268360132153
-0.4269067422634298,-0.45044930117962656,1.712335510610624,-3.8393007919973097,8.901149613723817,-5.081302160370508
-0.43141123527522607,-0.36143780504238837,1.673942502690651,-3.890113813601015,9.304605632397626,-5.120000417862926
-0.43502561332564993,-0.2683917487184121,1.6350413645546409,-3.941313817779644,9.704937356415375,-5.196441839351936
-0.43770953081283404,-0.17134237515425835,1.5956282263768444,-3.9932782361731634,10.103405101561304,-5.314870900618439
-0.43942295456437663,-0.07030832413864531,1.5556954440151127,-4.0464269451793475,10.501840604008372,-5.479747525845979
-0.4401260378057631,0.034710081901438414,1.5152311745633193,-4.101224420437807,10.902705290205704,-5.695818893545582
-0.4397789369867487,0.14373713480349545,1.4742189303589412,-4.158182609373263,11.309152798038586,-5.968216620149949
-0.43834156563871374,0.2568286627838813,1.4326371042652086,-4.217864775574762,11.725098843890905,-6.302582906912502
-0.4357732790108749,0.3740796512227903,1.390458456509461,-4.280890604643887,12.155302257839091,-6.705229720738692
-0.432032482498647,0.4956326738011812,1.3476495504630222,-4.347942901851274,12.605461652037752,-7.183335685753589
-0.4270761557606352,0.6216872903215587,1.3041701214445094,-4.4197762587088105,13.082332632110957,-7.745185978060111
-0.4208592828574196,0.7525106166426683,1.2599723588574212,-4.497228118489412,13.593870486868152,-8.40046087407021
-0.41333417669099287,0.8884493215113498,1.2150000776725272,-4.581232727230114,14.149402463413288,-9.160578141901784
-0.4044496834758794,1.0299433461454828,1.169187750400226,-4.672838508649132,14.759831206378363,-10.039092066660862
-0.39415025001442455,1.1775416582092664,1.1224593653137347,-4.773229429315741,15.437865078853262,-11.052145382042209
-0.38237483343233186,1.3319203089977991,1.0747270710205772,-4.883750883136163,16.198258759114992,-12.218955528913101
-0.3690556303423539,1.4939028965889491,1.0258895621892155,-5.005940438425294,17.058022742432144,-13.56228536967339
-0.3541166013764644,1.6644831240132705,0.9758301578049625,-5.1415632921220285,18.036511762740304,-15.108785180850745
-0.3374717701363317,1.8448482416406735,0.9244145248837422,-5.292651143930536,19.15520794969778,-16.888967555148735
-0.31902328771992494,2.036400321137651,0.8714880134444368,-5.461540819482024,20.436833531669745,-18.936332754895812
-0.29865928450854845,2.2407686564543488,0.8168726052496166,-5.650904147030982,21.903082859331146,-21.284691588389833
-0.27625159794400495,2.45979948504766,0.7603635637793068,-5.86375106291488,23.56961382291395,-23.961839001793326
-0.25165360309352836,2.6954956232767997,0.701726053150158,-6.103369452932814,25.43574399439961,-26.97607483663421
-0.22469864686076035,2.9498530632207958,0.6406923586208298,-6.373130201299156,27.464205245779258,-30.28914515275368
-0.1952001162285524,3.2244951156785886,0.5769610566078383,-6.676021652826693,29.543030953806554,-33.764549342963576
-0.16295516507176652,3.519925425216654,0.5102008400795713,-7.013667146256329,31.417876155669106,-37.07472010330119
-0.12775591081959997,3.834104186773345,0.44006416861700803,-7.384414347289341,32.583780772084395,-39.55114197988069
-0.08941486895186651,4.159941994494189,0.3662200251441146,-7.779925767088148,32.148507362227505,-39.992859249403466
-0.04781544900692462,4.4814270681164645,0.28842076747323314,-8.179854359582183,28.76780719669893,-36.57057414219486
-0.003001178325759968,4.769105140083454,0.2066222238774113,-8.545560101004131,20.943937750620695,-27.228891973718003
0.04468987307507457,4.978544517589661,0.12116662286736998,-8.817849020741312,8.0870078488113,-11.14159796584698
0.09447531825097119,5.059414596077774,0.03298813265995687,-8.92926500039978,-7.965629952722765,9.200289395339153
0.14506946421174893,4.979758296550546,-0.05630451734404093,-8.837262106446389,-22.936570196178295,27.984565231013736
0.1948670471772544,4.750392594588764,-0.14467713840850482,-8.557416454136252,-32.948891440916775,39.996469692355944
0.24237097312314204,4.420903680179596,-0.23025130294986734,-8.157451757212693,-37.20058456930964,44.2561949300871
0.286580009924938,4.0488978344865,-0.31182582052199426,-7.714889807911821,-37.33570631811313,43.08959275892265
0.32706898826980296,3.6755407713053683,-0.3889747186011125,-7.283993880322595,-35.37517237570052,39.27165508147292
0.36382439598285665,3.321789047548363,-0.46181465740433847,-6.891277329507866,-32.683440428737214,34.638839791965864
0.3970422864583403,2.9949546432609906,-0.5307274306994172,-6.544888931588208,-29.95415066677198,30.099849559864815
0.42699183289095016,2.6954131365932708,-0.5961763200152993,-6.2438904359895595,-27.47193183082092,26.008962016966134
0.4539459642568829,2.4206938182850615,-0.6586152243751949,-5.983800815819898,-25.31979212249662,22.453668194204493
0.4781529024397335,2.1674958970600953,-0.7184532325333939,-5.759264133877854,-23.493886742905506,19.41097768381056
0.4998278614103345,1.9325570296310401,-0.7760458738721724,-5.565154357039748,-21.95835786232491,16.820605973112237
0.5191534317066449,1.712973451007791,-0.8316974174425699,-5.396948297308625,-20.66934829384562,14.616097032045927
0.5362831662167228,1.5062799680693348,-0.8856669004156561,-5.250787326988165,-19.584616853292527,12.736640888334437
0.5513459658974161,1.3104337995364095,-0.9381747736855377,-5.123420918104821,-18.666794643386336,11.130559542062825
0.5644503038927803,1.123765853102546,-0.989408982866586,-5.012115322684193,-17.883982952043816,9.75543098334408
0.5756879624238057,0.9449260235821079,-1.039530136093428,-4.914561012850752,-17.209338809288717,8.57701596682352
0.5851372226596268,0.7728326354892207,-1.0886757462219354,-4.828790853182517,-16.62035693802559,7.5678914121961665
0.5928655490145189,0.6066290661089647,-1.1369636547537605,-4.753111939060555,-16.098137639646225,6.7061410266484245
0.5989318396756086,0.44564768971250246,-1.184494774144366,-4.686050528794071,-15.626746060037796,5.974217365912486
0.6033883165727336,0.28938022911212447,-1.2313552794323068,-4.626308355134945,-15.192689743971917,5.357993266565212
0.6062821188638549,0.13745333167240528,-1.2776183629836564,-4.572728422469293,-14.784509757432627,4.845985300715175
0.607656652180579,-0.01039176590192098,-1.3233456472083494,-4.524268569462142,-14.3924694922836,4.428722435487248
0.6075527345215598,-0.154316460824757,-1.3685883329029707,-4.479981345107269,-14.008322702174867,4.098233870539566
0.6060095699133122,-0.29439968784650566,-1.4133881463540434,-4.438999006401874,-13.625143103571242,3.8476342973025273
0.6030655730348472,-0.4306511188822181,-1.4577781364180622,-4.400522663428848,-13.237199765592008,3.670789702548088
0.598759061846025,-0.5630231165381382,-1.5017833630523507,-4.363814766403367,-12.839864618254566,3.5620511827576706
0.5931288306806436,-0.6914217627206838,-1.5454215107163845,-4.3281942545757905,-12.429540441969728,3.516047653551741
0.5862146130534368,-0.8157171671403811,-1.5887034532621425,-4.293033778040273,-12.00359962168261,3.5275307613602185
0.578057441382033,-0.9357531633572073,-1.6316337910425451,-4.257758470426671,-11.560325800821559,3.5912668016843825
0.5686999097484609,-1.051356421365423,-1.6742113757468118,-4.221845802409827,-11.09885240378324,3.701971151916895
0.5581863455348066,-1.1623449454032553,-1.71642983377091,-4.184826090890658,-10.619093833531712,3.8542808029495794
0.546562896080774,-1.2685358837385725,-1.7582780946798167,-4.146283282861162,-10.121666975373417,4.042760209983773
0.5338775372433883,-1.3697525534923067,-1.7997409275084282,-4.105855680761325,-9.607802392931541,4.261935077055321
0.5201800117084652,-1.465830577421622,-1.8407994843160413,-4.0632363299907714,-9.079246203774524,4.506348037548051
0.5055217059342489,-1.5566230394593672,-1.881431847615949,-4.018172849615291,-8.53815497448425,4.770629671878262
0.4899554755396553,-1.6420045892042097,-1.921613576112102,-3.970466552896508,-7.986986989624424,5.049578055850444
0.4735354296476132,-1.721874459100454,-1.961318241641067,-3.919970772338004,-7.428393861904862,5.338240151443451
0.45631668505660866,-1.7961583977195026,-2.000517949364447,-3.8665883708235693,-6.8651166349455295,5.631988870044724
0.4383551010794136,-1.864809564068958,-2.039183833072683,-3.810268482123122,-6.299890301951574,5.926590531252826
0.419707005438724,-1.9278084670884736,-2.077286517893914,-3.7510025768105937,-5.73536008165086,6.218258631731481
0.4004289207678393,-1.9851620679049822,-2.11479654366202,-3.688819990493279,-5.174011948479851,6.503691215151028
0.3805773000887895,-2.0369021873897806,-2.151684743566953,-3.6237830783417686,-4.618118918161442,6.780090565665349
0.36020827821489165,-2.083083376571395,-2.1879225743503703,-3.5559821726851153,-4.069703557168414,7.045165305949556
0.3393774444491777,-2.123780412143079,-2.2234823960772214,-3.4855305196256197,-3.5305162187723163,7.297116158612366
0.31813964032774694,-2.159085574330802,-2.2583377012734775,-3.412559358039496,-3.0020276907866137,7.534607550359712
0.2965487845844389,-2.1891058512386685,-2.2924632948538726,-3.337213282535899,-2.485434323318749,7.7567278619874465
0.2746577260720522,-2.213960194471856,-2.3258354276792317,-3.2596460039160244,-1.981673311384961,7.962941450323848
0.25251812412733365,-2.233776927585706,-2.358431887718392,-3.180016589412786,-1.4914456326761836,8.153035616800711
0.2301803548514766,-2.2486913839124676,-2.39023205361252,-3.098486233244779,-1.0152441597681883,8.327065518734782
0.2076934410123519,-2.2588438255101493,-2.4212169159449677,-3.0152155780574312,-0.5533846399119426,8.48529967239929
0.18510500275725042,-2.2643776719092688,-2.451369071725542,-2.9303625813334384,-0.10603751950776209,8.628168242765945
0.16246122603815774,-2.2654380471043463,-2.4806726975388766,-2.844080898905779,0.326741059937736,8.756215810004557
0.13980684556711429,-2.262170636504969,-2.5091135065279344,-2.7565187408057334,0.7449803916429216,8.870059794772178
0.1171851392020646,-2.2547208325885397,-2.5366786939359915,-2.6678181428580117,1.148769386143917,8.970355248779702
0.0946379308761792,-2.2432331387271005,-2.5633568753645717,-2.5781145903702147,1.5382343921470913,9.057766298006007
0.07220559948890819,-2.2278507948056294,-2.589138021268274,-2.487536927390155,1.913520943253042,9.13294417641585
0.04992709154085189,-2.208715585373099,-2.6140133905421754,-2.3962074856259963,2.2747794713115392,9.196511512531018
0.027839935687120898,-2.1859677906599835,-2.6379754653984353,-2.304242370500686,2.6221548330171203,9.249052327603648
0.005980257780521064,-2.1597462423298124,-2.661017889103442,-2.2117518472246496,2.9557793524472413,9.29110706605975
-0.01561720464277706,-2.13018844880534,-2.683135407575689,-2.1188407765640522,3.27576898350804,9.323171897551456
-0.03691908913083046,-2.0974307589702597,-2.704323815341329,-2.0256090575885377,3.5822221362713784,9.345701495723157
-0.05789339672053306,-2.0616085376075457,-2.7245799059172144,-1.9321520426313061,3.8752206831497618,9.359114502158652
-0.07850948209660852,-2.022856330776048,-2.7439014263435273,-1.8385608976097196,4.154832658208724,9.363800916243731
-0.098738045404369,-1.9813080041939606,-2.7622870353196243,-1.7449228884472823,4.421116179745615,9.360130705292848
-0.1185511254463086,-1.9370968423965045,-2.779736264204097,-1.6513215813943538,4.674124157475932,9.34846299791425
-0.13792209387027365,-1.8903556008217453,-2.7962494800180404,-1.5578369514152113,4.913909387021623,9.329155302044086
-0.1568256498784911,-1.841216506951529,-2.8118278495321927,-1.4645453983947705,5.140529682437453,9.302572273187588
-0.1752378149480064,-1.7898112101271544,-2.8264733035161402,-1.3715196756628947,5.354052749466796,9.269093644802192
-0.19313592704927793,-1.7362706826324865,-2.8401885002727694,-1.2788287392148727,5.554560555863282,9.229121018718725
-0.2104986338756028,-1.6807250770738538,-2.852976787664918,-1.1865375290276854,5.742153008656358,9.18308329678587
-0.22730588464634133,-1.62330354698729,-2.864842162955195,-1.0947066960598266,5.91695080021349,9.131440613677189
-0.24353892011621422,-1.5641340389851552,-2.875789229915793,-1.0033922899230547,6.079097334154059,9.07468670346513
-0.2591802605060658,-1.5033430656436146,-2.8858231528150236,-0.9126454228884034,6.228759687602385,9.013349697858
-0.27421369116250194,-1.4410554687675907,-2.8949496070439076,-0.8225119259098235,6.366128607118848,8.947991410897831
-0.2886242458501779,-1.3773941826964022,-2.9031747263030057,-0.7330320118008451,6.491417571285276,8.879205212689348
-0.3023981876771419,-1.3124800069835494,-2.9105050464210143,-0.6442399596739516,6.604860982892276,8.807612632927826
-0.3155229877469774,-1.2464313971546266,-2.916947446017754,-0.5561638333446733,6.7067115777203234,8.733858863481034
-0.3279873017185237,-1.1793642813774234,-2.9225090843512005,-0.468825244709863,6.797237154955602,8.658607348234586
-0.3397809445322979,-1.1113919098278675,-2.927197336798299,-0.3822391712275171,6.8767167464643,8.582533658312654
-0.3508948636305766,-1.0426247423632244,-2.931019728510574,-0.2964138346443906,6.945436348777393,8.506318852393138
-0.36132111105420883,-0.9731703788754505,-2.933983866857018,-0.2113506461204592,7.003684343193156,8.430642516140662
-0.3710528148429633,-0.903133535443519,-2.9360973733182227,-0.1270442209590526,7.051746726505434,8.356175662952184
-0.3800841501973985,-0.8326160681784647,-2.9373678155278133,-0.04348246432953076,7.089902268237203,8.283573661536046
-0.38841031087918315,-0.7617170454960926,-2.9378026401711086,0.0393532722858297,7.118417700691894,8.213469335662872
-0.39602748133414406,-0.6905328684891737,-2.9374091074482505,0.12148796564245842,7.137543036445963,8.146466359058419
-0.4029328100190358,-0.6191574381247141,-2.936194227791826,0.2029526292330426,7.147507094899946,8.083133045104148
-0.4091243844002829,-0.5476823671757147,-2.9341647014994954,0.2837839596840841,7.148513305938778,8.023996607900242
-0.4146012080720401,-0.476197234116327,-2.9313268619026545,0.3640239257630865,7.1407358453081535,7.969537949301376
-0.41936318041320336,-0.4047898756632454,-2.9276866226450236,0.44371930525610026,7.124316143578402,7.9201870065511075
-0.42341107916983584,-0.3335467142274614,-2.9232494295924627,0.5229211753216113,7.099359799017609,7.876318677722311
-0.42674654631211045,-0.2625531162372853,-2.9180202178392465,0.6016843620988344,7.065933914694116,7.838249327736846
-0.4293720774744833,-0.1918937770903441,-2.912003374218258,0.6800668553762028,7.024064871922176,7.806233866531833
-0.43129101524538677,-0.12165312837112234,-2.9052027056644962,0.7581291940415211,6.97373654589397,7.780463383050469
-0.432507546529098,-0.05191576291218264,-2.897621413724081,0.8359338278720259,6.9148889650470275,7.7610633141174405
-0.4330267041582198,0.01723312673828764,-2.889262075445361,0.9135444610132003,6.84741741335476,7.748092125761533
-0.43285437289083695,0.08570730087183524,-2.880126630835229,0.9910253822708156,6.771171974181458,7.741540485937684
-0.4319972998821186,0.15341902061364981,-2.870216377012521,1.0684407871301924,6.6859575154350726,7.741330911586209
-0.4304631096759821,0.22027859576800055,-2.859531969141219,1.1458540962460546,6.591534118254915,7.747317879217989
-0.4282603237183021,0.28619393695054973,-2.8480734281787585,1.2233272750382345,6.487617955122148,7.759288396378754
-0.42539838434879657,0.3510701165017712,-2.835840155428376,1.300920159002022,6.373882627779631,7.776963041057071
-0.42188768318377884,0.41480894277956754,-2.822830953838356,1.3786897894125927,6.249960980366699,7.799997486987736
