th1 (rad),w1 (rad/s),th2 (rad),w2 (rad/s),a1 (rad/s^2),a2 (rad/s^2)
3.8213877850819444,2.3663914922085603,1.4881521075094637,-0.0033741845945815274,5.497571260358503,-1.9199275084415937
3.84505170000403,2.4213672048121455,1.488118365663518,-0.022573459678997466,5.801868047289305,-1.518237780625979
3.8692653720521517,2.479385885285039,1.487892631066728,-0.03775583748525726,6.121306442056996,-1.0943015873264463
3.894059230905002,2.540598949705609,1.4875150726918753,-0.04869885335852172,6.456631557445319,-0.6478835949613658
3.919465220402058,2.6051652652800623,1.4870280841582901,-0.05517768930813538,6.808336092557138,-0.17913432295994522
3.9455168730548587,2.6732486262056336,1.4864763072652087,-0.05696903253773483,7.176575122374021,0.31127601601925886
3.972249359316915,2.745014377429374,1.4859066169398314,-0.053856272377542244,7.561063905048896,0.8219957615465168
3.999699503091209,2.820625016479863,1.4853680542160559,-0.04563631476207708,7.960957515469226,1.3507999067967185
4.027905753256007,2.9002345916345553,1.484911691068435,-0.03212831569410989,8.374711996827402,1.8943671669022075
4.056908099172353,2.9839817116028295,1.484590407911494,-0.013184644025087816,8.799928112405862,2.4480272934026757
4.086747916288381,3.071980992726888,1.484458561471243,0.01129562890893894,9.233180797322602,3.0054831252434115
4.11746772621565,3.164312800700114,1.4845715177603325,0.04135046016137306,9.669840150983502,3.5585163109707385
4.149110854222651,3.261011202209949,1.4849850223619463,0.07693562327108044,10.10389331367584,4.0966914216254455
4.18172096624475,3.3620501353467076,1.4857543785946572,0.1179025374873349,10.527780768914456,4.607080248165592
4.2153414675982175,3.467327943035852,1.4869334039695306,0.16397333996899083,10.932265283002788,5.074036136795401
4.250014747028576,3.57665059586588,1.4885731373692204,0.21471370133694484,11.306356404132297,5.479056606617162
4.285781252987235,3.689714159907203,1.4907202743825898,0.26950426740311645,11.637317530767998,5.800780142125699
4.3226783945863065,3.806087335214883,1.493415317056621,0.32751206882437345,11.910785144211841,6.015168455987821
4.360739267938455,3.9251951866570014,1.4966904377448647,0.38766375338425163,12.111029878709365,6.09592684501043
4.399991219805025,4.046305485444095,1.5005670752787073,0.44862302183435593,12.221385712367825,6.015210591547573
4.440454274659466,4.168519342567773,1.5050533054970507,0.5087751277498317,12.224866011575017,5.744653040992533
4.482139468085143,4.2907680026835235,1.510141056774549,0.566221658159757,12.104973254209444,5.2567300491782385
4.5250471481119785,4.411817735225618,1.5158032733561466,0.6187889586515394,11.846693417232306,4.526446009054631
4.569165325464235,4.5302846693979415,1.521991162942662,0.6640534187420857,11.43764721158325,3.5332898470838754
4.614468172158214,4.644661141513774,1.5286316971300828,0.6993863172129244,10.869349781266154,2.2633673816648714
4.660914783573352,4.753354639326436,1.5356255603022122,0.7220199910295731,10.138509134447556,0.7115719248736216
4.708448329966616,4.854739730670912,1.5428457602125079,0.7291357102783094,9.248271900284992,-1.1163891671339647
4.756995727273326,4.947222449673761,1.550137117315291,0.7179718186069697,8.20930317828079,-3.2023348403217815
4.806467951770063,5.029315481456569,1.5573168355013607,0.6859484702037518,7.040566227710562,-5.5145724123649495
4.856761106584629,5.0997211437336745,1.5641763202033983,0.6308027460801023,5.769651083408265,-8.007751055585738
4.9077583180219655,5.157417654567757,1.5704843476641992,0.5507252355242449,4.432496758172915,-10.623860442327935
4.959332494567643,5.201742622149486,1.5759916000194416,0.44448663110096553,3.0723719035702355,-13.294563691288207
5.011349920789137,5.232466341185188,1.5804364663304513,0.31154099418808345,1.7380375964118024,-15.944923994304656
5.06367458420099,5.249846717149306,1.5835518762723322,0.1520917542450369,0.48112193791544955,-18.49838495046878
5.116173051372483,5.25465793652846,1.5850727938147826,-0.032892095259650894,-0.6471163748241482,-20.882615888745217
5.168719630737767,5.248186772780219,1.584743872862186,-0.24171825414710307,-1.5992964080249736,-23.035587468665668
5.221201498465569,5.232193808699969,1.5823266903207152,-0.47207412883375977,-2.3352263677439646,-24.911076883916742
5.273523436552568,5.208841545022529,1.5776059490323775,-0.7211848976729271,-2.8245036798471608,-26.482793333201666
5.325611852002794,5.180596508224057,1.5703941000556483,-0.9860128310049439,-3.0479633025863966,-27.746503838972053
5.377417817085035,5.150116875198193,1.5605339717455988,-1.2634778693946644,-2.9977228397002422,-28.719901861876057
5.428918985837017,5.12013964680119,1.5478991930516521,-1.550676888013425,-2.6758285279836294,-29.44040368680182
5.480120382305029,5.093381361521354,1.5323924241715179,-1.8450809248814433,-2.0917513147228424,-29.961452836789707
5.531054195920243,5.072463848374126,1.5139416149227034,-2.1446954532493403,-1.2591440015360809,-30.34815184929101
5.581778834403984,5.059872408358765,1.49249466039021,-2.4481769717422504,-0.19230936336695692,-30.673077219851066
5.632377558487572,5.057949314725096,1.4680128906727876,-2.754907743940761,1.0972490542851259,-31.01299502265302
5.682957051634823,5.068921805267947,1.44046381323338,-3.0650376941672914,2.60397658350182,-31.446960737066007
5.733646269687502,5.094961571102965,1.4098134362917072,-3.3795073015379513,4.331079451851922,-32.05604727140285
5.784595885398532,5.138272365621485,1.3760183632763276,-3.7000677742519796,6.293119709834473,-32.924766126590555
5.835978609054747,5.201203562719829,1.3390176855338078,-4.029315435517885,8.51862459314817,-34.14415178265829
5.887990644681945,5.286389808651311,1.298724531178629,-4.370756953344468,11.05298677692161,-35.8164444128243
5.9408545427684585,5.396919676420527,1.2550169616451843,-4.728921397472711,13.961875936479636,-38.06124734503242
5.994823739532664,5.536538435785324,1.207727747670457,-5.109533870923036,17.335118786119015,-41.022760300748345
6.050189123890517,5.7098896236465135,1.1566324089612268,-5.51976147393052,21.29023178739526,-44.87673880495654
6.107288020126982,5.922791941520466,1.1014347942219216,-5.968528861980085,25.972700066708374,-49.83305679359564
6.166515939542187,6.18251894218755,1.0417495056021207,-6.466859429916041,31.54459212886245,-56.12222334417261
6.228341128964062,6.497964863476175,0.9770809113029603,-7.028081663357767,38.13888558739943,-63.93452589470331
6.293320777598824,6.879353719350169,0.9068000946693826,-7.6674269223048,45.72138383075264,-73.2310334808783
6.362114314792326,7.336567557657696,0.8301258254463346,-8.399737257113584,53.72094732246009,-83.23219218384611
6.435479990368902,7.873777030882296,0.7461284528751988,-9.232059178952046,60.14911217011719,-91.19353494104575
6.514217760677726,8.475268152583467,0.6538078610856783,-10.143994528362503,59.95137854004079,-90.10479540294844
6.59897044220356,9.074781937983875,0.5523679158020534,-11.045042482391988,43.859459512674945,-67.08158581900061
6.689718261583399,9.513376533110625,0.4419174909781335,-11.715858340581994,4.488282667810655,-11.878459428362863
6.784852026914506,9.558259359788732,0.3247589075723135,-11.834642934865622,-45.41630967353871,57.658673980921996
6.880434620512394,9.104096263053345,0.2064124782236573,-11.258056195056401,-75.66357295569752,99.52521241859213
6.971475583142927,8.347460533496369,0.09383191627309329,-10.26280407087048,-78.41282440888227,103.06809820225381
7.05495018847789,7.563332289407546,-0.008796124435611521,-9.232123088847942,-68.425274183665,88.95685099289992
7.130583511371966,6.879079547570896,-0.10111735532409094,-8.342554578918943,-56.7586979793781,72.52466471628975
7.199374306847675,6.311492567777115,-0.18454290111328037,-7.617307931756045,-46.900553583993165,58.55598964234315
7.262489232525446,5.842487031937184,-0.2607159804308408,-7.031748035332614,-39.23994357005168,47.55464960384112
7.320914102844818,5.450087596236667,-0.33103346078416696,-6.556201539294203,-33.40673761979407,38.987978695995864
7.375414978807185,5.116020220038727,-0.396595476177109,-6.166321752334245,-28.966976962780077,32.24312426251517
7.426575181007572,4.826350450410926,-0.45825869370045147,-5.843890509709093,-25.572028049086683,26.82913808260969
7.474838685511681,4.570630169920059,-0.5166975987975424,-5.575599128882996,-22.966092559840927,22.385505802495643
7.520544987210882,4.340969244321649,-0.5724535900863723,-5.3517440708580395,-20.96564282462878,18.653356431735293
7.563954679654098,4.131312816075361,-0.6259710307949528,-5.165210506540687,-19.43855288540307,15.447192572797492
7.605267807814852,3.9369272872213306,-0.6776231358603596,-5.010738580812712,-18.287993595481538,12.633906085060355
7.644637080687065,3.7540473512665153,-0.7277305216684867,-4.884399519962108,-17.44076540874299,10.11855315495894
7.682177554199731,3.5796396971790854,-0.7765745168681079,-4.783213988412519,-16.83884888042548,7.83518069129499
7.717973951171522,3.4112512083748308,-0.824406656752233,-4.704862181499569,-16.433119970805805,5.7411899928063095
7.75208646325527,3.246920008666773,-0.8714552785672287,-4.647450281571506,-16.178524223233424,3.814074851920658
7.784555663341938,3.0851347664344386,-0.9179297813829438,-4.609309533052299,-16.030338203510553,2.0496007169711508
7.8154070110062825,2.924831384399333,-0.9640228767134668,-4.588813525882587,-15.941447074237871,0.4605674654952171
7.844655324850276,2.765416913656954,-1.0099110119722927,-4.584207851227635,-15.860835091673165,-0.9247376177019078
7.872309493986846,2.6068085627402224,-1.0557530904845691,-4.593455227404654,-15.733694505555041,-2.0653507087407985
7.898377579614248,2.4494716176846723,-1.1016876427586157,-4.614108734492062,-15.5036335601273,-2.9126069740731153
7.922872295791095,2.2944352820833993,-1.1478287301035364,-4.643234804232793,-15.117291192421058,-3.417836681237139
7.945816648611928,2.1432623701591886,-1.1942610781458642,-4.677413171045164,-14.531141620316827,-3.5425543084644766
7.96724927231352,1.9979509539560203,-1.241035209856316,-4.712838714129809,-13.719413017132844,-3.269717552566108
7.98722878185308,1.8607568237846919,-1.2881635969976142,-4.7455358896554705,-12.681108450628855,-2.6133813791891742
8.005836350090927,1.7339457392784032,-1.335618955894169,-4.771669703447362,-11.44361739144068,-1.6234546699578551
8.023175807483712,1.6195095653639964,-1.3833356529286425,-4.787904250146941,-10.060886174165622,-0.38299051974951565
8.039370903137351,1.51890070362234,-1.431214695430112,-4.791734155344436,-8.605717337334195,1.002354001431562
8.054559910173575,1.4328435302489981,-1.4791320369835563,-4.7817106153301205,-7.157912112212345,2.420194755926506
8.068888345476065,1.3612644091268746,-1.5269491431368576,-4.757508667770855,-5.791562881292678,3.768109434048213
8.082500989567334,1.3033487803139479,-1.574524229814566,-4.719827573430373,-4.564958254935076,4.966549934255898
8.095534477370474,1.257699197764597,-1.6217225055488698,-4.670162074087814,-3.5152667504412904,5.9652366271151696
8.10811146934812,1.2225465302601841,-1.668424126289748,-4.610509707816662,-2.6582435309783397,6.7428899158113955
8.120336934650723,1.1959640949504007,-1.7145292233679146,-4.543080808658548,-1.9916682523566225,7.302155323735674
8.132296575600227,1.1760474124268345,-1.7599600314545,-4.470059255421191,-1.5006076962808264,7.662312208322479
8.144057049724495,1.1610413354640263,-1.804660624008712,-4.393436133337966,-1.162818053510677,7.851987754341401
8.155667463079135,1.1494131549289195,-1.8485949853420915,-4.314916255794552,-0.9532369203443501,7.903213686946241
8.167161594628425,1.139880785725476,-1.891744147900037,-4.23588411892509,-0.8471622794507532,7.847297006026683
8.17856040248568,1.1314091629309684,-1.9341029890892878,-4.157411148864823,-0.8221646448964696,7.712393455294886
8.189874494114989,1.1231875164820038,-1.975677100577936,-4.080287214311874,-0.8589979018509575,7.522400629296541
8.201106369279808,1.1145975374634942,-2.0164799727210547,-4.005063208018909,-0.9418249587402223,7.296737205958248
8.212252344654443,1.105179287876092,-2.0565306048012437,-3.932095835959326,-1.0580341824060935,7.050639182359575
8.223304137533203,1.0945989460520311,-2.0958515631608368,-3.8615894441357304,-1.1978507187194711,6.79570522043014
8.234250126993723,1.0826204388648364,-2.1344674576021943,-3.7936323919314288,-1.3538763392193944,6.540518899736848
8.245076331382371,1.0690816754726424,-2.1724037815215085,-3.72822720293406,-1.5206358398169886,6.291249579251133
8.255767148137098,1.0538753170744726,-2.209686053550849,-3.665314707141549,-1.6941694553010795,6.052183910363466
8.266305901307842,1.0369336225214618,-2.2463392006222644,-3.604792868037914,-1.8716865576068955,5.826171062189614
8.276675237533055,1.0182167569453928,-2.2823871293026436,-3.546531157416018,-2.0512821261533833,5.614981993483911
8.28685740510251,0.997703935683859,-2.3178524408768038,-3.4903813374811787,-2.2317105354084132,5.419591508236417
8.296834444459348,0.9753868303297748,-2.3527562542516156,-3.4361854223988146,-2.412208397169668,5.240394965395516
8.306588312762646,0.9512647463580781,-2.3871181084756037,-3.3837814727448596,-2.592357690443217,5.0773717796322355
8.316100960226226,0.925341169453646,-2.4209559232030524,-3.3330077549485373,-2.7719810595314707,4.930206734666115
8.325354371920763,0.8976213588583313,-2.4542860007525378,-3.283705687601876,-2.951062285602888,4.7983784898401165
8.334330585509347,0.8681107360023024,-2.4871230576285566,-3.235721902703475,-3.129686169813579,4.681222951412893
8.34301169286937,0.8368138743041665,-2.5194802766555915,-3.188909673189346,-3.307993224212467,4.5779776207658545
8.35137983161241,0.8037339420620419,-2.551369373387485,-3.143129896981687,-3.4861455739700737,4.487811706240297
8.359417171033032,0.7688724863223411,-2.582800672357302,-3.098251779919284,-3.6643013118913803,4.409845706769023
8.367105895896255,0.7322294732034272,-2.6137831901564947,-3.054153322851594,-3.8425952226573865,4.343163323408642
8.37442819062829,0.6938035209768534,-2.6443247233850107,-3.0107216896175073,-4.02112433029062,4.286817895777274
8.38136622583806,0.6535922776739472,-2.6744319402811856,-2.9678535106597344,-4.1999371412848205,4.239835058217808
8.387902148614799,0.611592906261099,-2.704110475387783,-2.9254551600775565,-4.379025779578611,4.201212931652916
8.39401807767741,0.5678026484653128,-2.7333650269885585,-2.8834430307610273,-4.5583204568005105,4.169920882354412
8.399696104162063,0.5222194438973077,-2.762199457296169,-2.841743821937483,-4.737685907061545,4.144897663745851
8.404918298601036,0.4748425848266922,-2.7906168955155435,-2.8002948453000247,-4.91691955172499,4.125049591871977
8.409666724449302,0.4256733893094423,-2.818619843968544,-2.759044349381305,-5.095751254886707,4.109249273211035
8.413923458342396,0.3747158767605753,-2.846210287462357,-2.7179518566491945,-5.2738445913896435,4.096335292412244
8.417670617110002,0.32197743084667885,-2.873389806028849,-2.676988503725072,-5.450799581156431,4.085113167668812
8.42089039141847,0.26746943503511456,-2.9001596910661,-2.636137372048384,-5.626156850615015,4.074357785905135
8.42356508576882,0.2112078665289644,-2.926521064786584,-2.5953937941893326,-5.799403167803141,4.062817434468525
8.42567716443411,0.15321383485093298,-2.952475002728477,-2.5547656198446473,-5.9699782662475585,4.049219448752438
8.427209302782618,0.0935140521884574,-2.978022658926924,-2.514273425357123,-6.137282828222688,4.032277396667867
8.428144443304502,0.032141223906230525,-3.003165393180495,-2.4739506513904446,-6.300687445397449,4.010699623789305
8.428465855543564,-0.030865650547743963,-3.0279048996943994,-2.4338436551525513,-6.459542319674068,3.9831988917942542
8.428157199038086,-0.09546107374448465,-3.0522433362459247,-2.3940116662346087,-6.613187415111156,3.948502763226398
8.427202588300641,-0.1615929478955962,-3.0761834529082708,-2.3545266386023447,-6.760962729159166,3.9053643239651095
8.425586658821686,-0.22920257518718784,-3.099728719294294,-2.315472995362694,-6.902218323517875,3.8525727971523613
8.423294633069814,-0.2982247584223666,-3.122883449247921,-2.2769472673911704,-7.036323746227823,3.788963593655029
8.42031238548559,-0.36858799588464486,-3.1456529219218328,-2.23905763145462,-7.162676490021669,3.7134273673985234
8.416626505526743,-0.44021476078486155,-3.1680434982363788,-2.2019233577806347,-7.280709168343987,3.624917699436263
8.412224357918895,-0.5130218524683015,-3.190062731814185,-2.1656741807862723,-7.389895148371257,3.5224571197555576
8.407094139394212,-0.5869208039520141,-3.211719473622048,-2.130449609588717,-7.489752456126169,3.405141284899261
8.401224931354692,-0.6618183285132757,-3.233023969717935,-2.0963981967397243,-7.579845856709284,3.272141254246055
8.39460674806956,-0.7376167870803686,-3.2539879516853323,-2.0636767841972636,-7.65978710568505,3.122703938158827
8.387230580198755,-0.814214658137219,-3.274624719527305,-2.0324497448156755,-7.729233458033504,2.9561509163161905
8.379088433617383,-0.8915069927175541,-3.294949216975462,-2.0028882356525135,-7.787884601298436,2.7718759339044587
8.370173363690208,-0.9693858387305384,-3.314978099331987,-1.9751694763134688,-7.835478243148869,2.5693414679800872
8.360479505302903,-1.047740621162027,-3.334729794095122,-1.949476061633668,-7.87178462576948,2.3480748096509907
8.350002099091283,-1.1264584674197218,-3.3542245547114584,-1.925995313537158,-7.89660025773538,2.1076641262234044
8.338737514417085,-1.2054244699970755,-3.37348450784683,-1.9049186722749238,-7.909741148107093,1.8477549508254756
8.326683269717114,-1.2845218814781465,-3.392533694569579,-1.886441122766669,-7.911035799479711,1.5680474980482124
8.313838050902332,-1.3636322394729437,-3.411398105797246,-1.870760647786187,-7.900318170668008,1.2682951282641135
8.300201728507602,-1.4426354211796237,-3.4301057122751075,-1.8580776965035457,-7.877420761090344,0.9483041878338614
8.285775374295806,-1.5214096287905272,-3.448686489240143,-1.848594654625207,-7.842167904069192,0.6079353458180526
8.2705612780079,-1.5998313078312192,-3.467172435786395,-1.8425153011670266,-7.794369291779624,0.24710643873745183
8.254562964929589,-1.6777750007490155,-3.4855975887980652,-1.8400442367796521,-7.733813696704738,-0.1342032685162863
8.237785214922098,-1.755113137716063,-3.5039980311658616,-1.8413862694648149,-7.6602628086474365,-0.5359475884177437
8.220234083544938,-1.8317157658025374,-3.5224118938605096,-1.8467457453489924,-7.57344507687198,-0.9580069391478196
8.201916925886913,-1.9074502165712572,-3.5408793513139996,-1.8563258147404706,-7.473049436665591,-1.4001812037160952
8.1828424237212,-1.982180710937913,-3.5594426094614042,-1.8703276267776316,-7.35871880984586,-1.8621822583111662
8.16302061661182,-2.0557678990363715,-3.5781458857291804,-1.8889494493607433,-7.230043299296065,-2.343626517726505
8.142462937621456,-2.1280683320293323,-3.597035380222788,-1.9123857145380083,-7.086553046865509,-2.8440278372829524
8.121182254301162,-2.1989338624979875,-3.616159237368168,-1.9408259929108378,-6.927710789084641,-3.3627910890390114
8.099192915676182,-2.268210970388834,-3.6355674972972762,-1.9744539038012279,-6.752904222315864,-3.899206701019996
8.076510805972294,-2.3357400126119927,-3.6553120363352885,-2.0134459708114276,-6.561438373754573,-4.4524464180563355
8.053153405846174,-2.4013543963495385,-3.675446496043403,-2.057970434991991,-6.352528262377429,-5.021560517910699
8.02913986188268,-2.464879678973313,-3.6960262003933226,-2.108186040171098,-6.125292219804319,-5.6054767023175485
8.004491065092946,-2.5261326011713563,-3.7171080607950335,-2.1642408071942736,-5.8787463207299595,-6.2030008836649095
7.979229739081233,-2.584920064378656,-3.7387504688669764,-2.226270816030923,-5.6118004422988506,-6.812820106735359
7.953380538437446,-2.6410380688016444,-3.7610131770272854,-2.2943990170982764,-5.323256528501732,-7.433507881248714
7.926970157749429,-2.694270634086662,-3.783957167198268,-2.3687340959107637,-5.011809677186236,-8.063532252228256
7.900027451408563,-2.744388730858524,-3.807644508157376,-2.4493694184330463,-4.676052692360606,-8.70126699576643
