th1 (rad),w1 (rad/s),th2 (rad),w2 (rad/s)
5.951278101135968,1.2911650244565704,1.7880241285953442,2.509929291151211
5.964189751380534,1.3260291747668593,1.8131234215068563,2.4182097215710447
5.9774500431282025,1.3565577326172478,1.8373055187225669,2.3244382403765482
5.991015620454375,1.382832260060038,1.8605499011263325,2.228655463953943
6.004843943054976,1.4049471862212708,1.8828364557658719,2.1309208607643617
6.018893414917188,1.4230093216185817,1.9041456643735155,2.0313105964446234
6.033123508133373,1.4371372404514564,1.9244587703379616,1.9299154235928682
6.047494880537888,1.4474605642122993,1.9437579245738903,1.8268386352693038
6.061969486180011,1.454119175825382,1.9620263109265834,1.7221940976712087
6.076510677938265,1.457262389093638,1.9792482519032955,1.616104373491752
6.091083301829202,1.4570480937855466,1.995409295638213,1.508698943521215
6.105653782767058,1.4536418924590855,2.010496285073425,1.4001125303998692
6.120190201691648,1.447216241283849,2.024497410377424,1.2904835253042888
6.134662364104487,1.4379496038188846,2.037402245630467,1.1799525158792044
6.149041860142676,1.4260256240097866,2.0492017707892587,1.068660911971806
6.1633021163827735,1.4116323226084657,2.0598883799089767,0.9567496646720623
6.177418439608858,1.3949613197710413,2.0694558765556974,0.8443580737425342
6.191368052806569,1.3762070856947042,2.077899457293123,0.7316226786248703
6.2051301236635155,1.3555662207276973,2.0852156840793716,0.6186762287028816
6.218685785870792,1.3332367663261704,2.0914024463664003,0.5056467292382923
6.232018153534054,1.3094175484298427,2.096458913658783,0.3926565602317564
6.245112329018353,1.2843075551800132,2.1003854792611008,0.2798216662682324
6.257955404570153,1.258105351313132,2.103183695923783,0.16725081607293968
6.270536458083285,1.2310085319506192,2.1048562040845127,0.0550449309485504
6.282846543402791,1.2032132188091338,2.1054066533939984,-0.05670351856880748
6.2948786755908825,1.1749136020334638,2.1048396182083104,-0.16791104863409814
6.306627811611217,1.1463015308851183,2.1031605077219693,-0.27850363183862525
6.318090826920068,1.1175661564007773,2.100375471403583,-0.38841710273821206
6.329266488484076,1.0888936288794024,2.0964913003762007,-0.4975975020897707
6.3401554247728695,1.0604668526914671,2.091515325355303,-0.6060013638738928
6.350760093299784,1.0324653004642117,2.085455311716564,-0.7135959504637449
6.361084746304426,1.0050648882245445,2.0783193522119268,-0.8203594426543781
6.371135395186672,0.9784379126198377,2.070115757785383,-0.9262810926362484
6.38091977431287,0.9527530509290771,2.06085294685902,-1.0313613493349303
6.390447304822161,0.9281754242618337,2.0505393333656707,-1.1356119668091744
6.3997290590647795,0.9048667241540702,2.039183213697579,-1.2390561075777564
6.408777726306321,0.8829854027349148,2.0267926526218014,-1.341728453821527
6.417607580333669,0.8626869267767663,2.013375368083586,-1.4436753403833713
6.426234449601437,0.8441240962642056,1.9989386146797525,-1.5449549243800489
6.434675690564079,0.8274474286290929,1.983489065435952,-1.645637407070794
6.44295016485037,0.8128056104959641,1.967032691365244,-1.7458053244300746
6.45107822095533,0.8003460196511905,1.9495746381209433,-1.845553923681941
6.459081681151842,0.7902153209698587,1.931119098884124,-1.9449916439062311
6.466983834361541,0.7825601411729722,1.9116691824450618,-2.0442407197515675
6.47480943577327,0.7775278284956726,1.891226775247546,-2.143437928301352
6.482584714058227,0.7752673045532429,1.8697923959645324,-2.242735500226326
6.490337387103759,0.7759300167897264,1.847365040962269,-2.342302217468441
6.498096687271656,0.7796710007253765,1.8239420187875846,-2.442324720717248
6.50589339727891,0.7866500615437391,1.7995187715804122,-2.543009050639538
6.513759897894347,0.797033084011336,1.7740886810740168,-2.6445824468221137
6.5217302287344605,0.8109934777435538,1.7476428566057958,-2.747295427052816
6.529840163511896,0.8287137605623243,1.7201699023352677,-2.851424165875324
6.538127301117519,0.8503872748186604,1.6916556606765145,-2.9572731836866453
6.5466311738657055,0.876220018053762,1.6620829288396481,-3.0651783434480215
6.555393374046243,0.9064325471357424,1.631431145405168,-3.1755101273472928
6.564457699517601,0.9412618792475891,1.599676044131695,-3.288677124231361
6.573870318310077,0.9809632564450956,1.5667892728893815,-3.405129590576696
6.5836799508745285,1.0258115516076973,1.5327379769836145,-3.5253628380274775
6.5939380663906055,1.076101955041397,1.4974843486033398,-3.6499200255962094
6.60469908594102,1.1321493660823392,1.4609851483473777,-3.7793936581902474
6.616020579601843,1.1942855822478913,1.4231912117654753,-3.914424659572629
6.627963435424322,1.262852868960982,1.384046965169749,-4.055697213033546
6.6405919641139315,1.338191716385376,1.3434899930394135,-4.203926522372109
6.6539738812777856,1.4206194205377505,1.3014507278156924,-4.359835061678748
6.668180075483163,1.5103943984140273,1.257852377198905,-4.524110518531583
6.683284019467304,1.6076586761020144,1.212611272013589,-4.697335219301632
6.699360606228324,1.7123476495884027,1.1656379198205729,-4.879872154168159
6.716484082724208,1.8240521735806565,1.1168391982788912,-5.071686966655058
6.734724604460014,1.9418142841871822,1.0661223286123407,-5.272079736423187
6.754142747301886,2.063837388333334,1.0134015312481088,-5.479299066332527
6.774781121185219,2.1871015170361345,0.9586085405847835,-5.690023368363342
6.79665213635558,2.3069075814847215,0.9017083069011501,-5.898738679207052
6.819721212170427,2.416450792859459,0.8427209201090796,-6.097145623480859
6.843885720099022,2.5066548196088974,0.781749463874271,-6.273907846680821
6.868952268295112,2.5666486850552594,0.7190103854074628,-6.415261482922605
6.894618755145665,2.585287108919407,0.6548577705782367,-6.507033162272294
6.920471626234859,2.5537440768293083,0.5897874389555138,-6.53810786025473
6.946009067003152,2.468368213434756,0.5244063603529665,-6.504237832087068
6.970692749137499,2.332253960357323,0.45936398203209583,-6.410087306232947
6.994015288741073,2.1543789895641057,0.39526310896976635,-6.267970210592312
7.015559078636714,1.9467433696360805,0.33258340686384325,-6.0939178366132944
7.035026512333075,1.7212020705248172,0.2716442284977103,-5.903406863178812
7.052238533038323,1.4874182500199662,0.2126101598659222,-5.708672459590498
7.0671127155385225,1.252230070187289,0.15552343527001722,-5.517958862213534
7.079635016240395,1.019946015010709,0.10034384664788187,-5.336010682049029
7.089834476390503,0.7929869976390777,0.04698373982739158,-5.165001308834784
7.097764346366893,0.5725199392132514,-0.004666273260956255,-5.005420142893576
7.103489545759025,0.35894949306470286,-0.05472047468989202,-4.856747903560925
7.107079040689673,0.15225584934741046,-0.10328795372550127,-4.717912957533188
7.108601599183147,-0.0477899708181434,-0.15046708330083314,-4.587577627086502
7.108123699474965,-0.241496284095284,-0.19634285957169817,-4.464308396621385
7.105708736634012,-0.4291764954959001,-0.24098594353791203,-4.346672394184874
7.101416971679053,-0.6111095362729149,-0.2844526674797608,-4.233289267565997
7.095305876316324,-0.7875213866431685,-0.32678556015542076,-4.122857110038549
7.087430662449893,-0.9585791757100046,-0.36801413125580623,-4.014163888458057
7.077844870692792,-1.1243926619026274,-0.4081557701403868,-3.906091190266194
7.066600944073766,-1.2850199632165311,-0.4472166820430487,-3.797614228529512
7.053750744441601,-1.4404756629079873,-0.4851928243283438,-3.6878002955495943
7.039345987812521,-1.5907401658210762,-0.5220708272838398,-3.5758068070492155
7.02343858615431,-1.7357696199495627,-0.557828895354332,-3.4608794568923154
7.006080889954814,-1.8755059707468267,-0.5924376899232552,-3.3423506381839725
6.987325830247346,-2.009886858435448,-0.625861196305095,-3.2196380786366476
6.967226961662991,-2.1388551479297533,-0.6580575770914614,-3.0922435255239913
6.945838410183693,-2.262367925551982,-0.6889800123467014,-2.9597512623023325
6.923214730928174,-2.3804048238734987,-0.7185775249697247,-2.8218262236123604
6.899410682689439,-2.4929755561789704,-0.7467957872058483,-2.6782114849563943
6.8744809271276495,-2.6001265612885556,-0.7735779020554122,-2.528724929837321
6.848479661514764,-2.701946681008213,-0.7988651513537854,-2.373254935226908
6.821460194704682,-2.798571817653687,-0.8225977007060545,-2.2117549620677757
6.793474476528145,-2.890188547949947,-0.8447152503267323,-2.0442369880648315
6.764572591048645,-2.9770367012499905,-0.8651576202073806,-1.8707637727138042
6.734802224036145,-3.0594109428472054,-0.8838652579345186,-1.6914399971423921
6.704208114607673,-3.137661435012359,-0.9007796579059426,-1.5064023721475404
6.67283150025755,-3.2121936766043615,-0.915843681627418,-1.3158088557162744
6.640709563491506,-3.283467643485673,-0.9290017701845807,-1.1198271662743977
6.607874887056649,-3.3519963626398046,-0.9402000418473248,-0.918622821456822
6.574354923430251,-3.4183440479489184,-0.949386270061893,-0.7123469782287839
6.540171482950762,-3.4831238985290143,-0.9565097398441809,-0.5011244060629024
6.505340243965472,-3.546995602153674,-0.9615209839048099,-0.28504200302795757
6.469870287943936,-3.6106624830647185,-0.9643714039350895,-0.06413838500595487
6.433763663113289,-3.6748680647434018,-0.965012787785149,0.16160472809005866
6.397014982465855,-3.7403915521865794,-0.9633967405042484,0.3922682905382995
6.359611066943989,-3.8080413258051173,-0.9594740575988654,0.6279973266944043
6.321530653685938,-3.8786449053043492,-0.9531940843319213,0.8689955873297306
6.282744204632895,-3.9530328751363277,-0.944504128458624,1.115509837095654
6.243213875881532,-4.032012803859755,-0.9333490300876675,1.3677981851579566
6.202893747842934,-4.116327027771325,-0.9196710482360879,1.6260739326214249
6.161730477565221,-4.206585071710364,-0.9034103089098736,1.8904121714738058
6.119664626848117,-4.303157308432397,-0.8845061871951355,2.160600648118899
6.076633053763793,-4.406011501142881,-0.8629001807139465,2.4359096261454747
6.032572938752364,-4.514469647637098,-0.8385410844524918,2.7147498074310463
5.987428242275993,-4.626863448779698,-0.8113935863781813,2.9941890172590675
5.941159607788196,-4.740082831808283,-0.7814516962055906,3.269321514065324
5.8937587794701125,-4.849061883761926,-0.7487584810649374,3.53255458914998
5.845268160632493,-4.946354579609768,-0.7134329351734375,3.7730295375787257
5.7958046148363955,-5.022124468072926,-0.6757026397976502,3.976635500289526
5.745583370155666,-5.065029162674577,-0.635936284794755,4.127293114349464
5.69493307852892,-5.064380965161949,-0.5946633536512603,4.210039857864879
5.6442892688773005,-5.013303130257044,-0.5525629550726116,4.215509916931292
5.5941562375747305,-4.911515559067918,-0.5104078559032986,4.143867420863197
5.545041081984051,-4.765924168161905,-0.46896918169466667,4.005608691176765
5.497381840302432,-4.5883872403739625,-0.428913094782899,3.818352671646853
5.451497967898693,-4.392037766601216,-0.3907295680664305,3.601579844253559
5.40757759023268,-4.188240845742689,-0.3547137696238949,3.372271225302951
5.365695181775253,-3.9852177928723913,-0.32099105737086536,3.142916140137746
5.325843003846529,-3.7880715332081816,-0.2895618959694879,2.9215184481766134
5.287962288514447,-3.5994751138066934,-0.26034671148772176,2.712556647313901
5.25196753737638,-3.420462681133328,-0.23322114501458274,2.518100734986979
5.217762910565047,-3.251073161659198,-0.20804013766471297,2.3387276871611844
5.185252178948455,-3.0907975395942855,-0.18465286079310111,2.174162246855747
5.154344203552513,-2.9388620827020544,-0.16291123832454366,2.0236863620871772
5.124955582725492,-2.7943963003797374,-0.1426743747036719,1.8863850190199298
5.097011619721695,-2.656526857698957,-0.12381052451347259,1.7612862668232683
5.070446351144705,-2.5244264623345396,-0.1061976618452399,1.6474363735299997
5.04520208652136,-2.3973364361891765,-0.08972329810993991,1.54393666979789
5.021228722159468,-2.274574457782288,-0.07428393141196102,1.4499584902409832
4.998482977581645,-2.155534307356107,-0.05978434650955119,1.3647460514031862
4.976927634508084,-2.039681582276607,-0.04613688599551932,1.2876130391556044
4.9565308186853185,-1.9265476342113392,-0.03326075560396328,1.217936226442555
4.937265342343205,-1.8157229696591968,-0.021081393339537728,1.155147987938891
4.919108112646613,-1.7068507695987987,-0.009529913460148818,1.0987287259262268
4.902039604950626,-1.5996208492750588,0.0014573737991134504,1.0481997280499933
4.886043396457875,-1.4937641915577302,0.011939371079613384,1.0031166957838127
4.871105754542298,-1.3890480852339486,0.021970538037451512,0.963064024911621
4.857215273689959,-1.2852718467165856,0.03160117828656772,0.927649834321468
4.8443625552227925,-1.1822630786645432,0.0408776766297824,0.8965016963072343
4.832539924436147,-1.079874409491882,0.049842693592854745,0.8692630023996839
4.8217411803412284,-0.9779806564836493,0.058535323616851584,0.8455898929415543
4.811961373776392,-0.8764763581008856,0.06699122254626713,0.8251486800237218
4.803196610195384,-0.7752736257100289,0.07524270934650434,0.8076136984458697
4.795443873938283,-0.674300270130435,0.08331884633096304,0.7926655260184446
4.788700871236979,-0.5734981633876189,0.09124550159114748,0.7799895216422909
4.782965889603103,-0.4728218005704442,0.0990453968075704,0.7692746365696435
4.778237671597399,-0.37223703059768565,0.10673814317326683,0.7602124607471797
4.774515301291422,-0.27171992799147804,0.11434026778073862,0.7524964720203415
4.771798102011507,-0.1712557804765832,0.12186523250094204,0.7458214611827393
4.770085544206742,-0.07083816944556817,0.12932344711276944,0.7398831103777663
4.769377162512286,0.029531877869685405,0.13672227821654712,0.7343777062165542
4.769672481290983,0.12984668422098128,0.14406605527871266,0.7290019721899844
4.770970948133193,0.23009268467067012,0.15135607500061252,0.7234530075457086
4.7732718749798995,0.33025117294023193,0.1585906050760696,0.7174283217934178
4.776574386709302,0.43029904844760214,0.16576488829400376,0.710625955407112
4.780877377193778,0.5302095799388518,0.1728711478480749,0.7027446781205602
4.786179472993166,0.6299532009047366,0.17989859462928048,0.6934842564653136
4.792479005002214,0.7294983512689659,0.1868334371939336,0.682545781879597
4.799773988514904,0.8288123791164935,0.1936588950127296,0.6696320498187832
4.808062112306069,0.927862515479689,0.20035521551091742,0.6544479788209772
4.817340737460865,1.0266169344113067,0.2068996952991272,0.6367010564226385
4.827606906804979,1.1250459097511143,0.21326670586335358,0.6161017961804686
4.8388573659024905,1.2231230791571728,0.21942772382515827,0.592364186843313
4.851088596694062,1.3208268251585475,0.2253513656935914,0.5652061109447526
4.864296864945647,1.4181417822477573,0.23100342680303892,0.5343497057747234
4.878478282768125,1.5150604784436374,0.23634692386078615,0.4995216348673611
4.893628887552561,1.611585119416711,0.24134214020945977,0.46045323285182344
4.909744738746728,1.7077295233023613,0.245946672537978,0.41688048080099627
4.926822033979751,1.8035212148794943,0.25011547734598794,0.36854376313429194
4.944857246128546,1.8990036890342967,0.25380091497733087,0.3151873507444182
4.963847283018889,1.9942388555486223,0.25695278848477504,0.2565585483864464
4.983789671574375,2.0893096804478577,0.2595183739686395,0.19240643755744374
5.004682768378853,2.1843230436039027,0.261442438344214,0.12248013918471097
5.026525998814892,2.2794128381710843,0.2626672397360611,0.046526513539951866
5.049320127196602,2.3747433448140156,0.2631325048714606,-0.03571279191094204
5.073067560644742,2.470512922493963,0.2627753769523512,-0.1245050421874887
5.097772689869682,2.5669580674726387,0.2615303265304763,-0.22013096246303643
5.123442270544409,2.6643579023625876,0.2593290169058459,-0.32289023677427847
5.150085849568034,2.763039165900284,0.25610011453810316,-0.4331080587582249
5.177716241227038,2.863381778692422,0.2517690339505209,-0.5511428245957816
5.206350059013962,2.965825055251629,0.2462576057045631,-0.6773950315407915
5.236008309566478,3.0708746090756422,0.23948365538915517,-0.8123173899163547
5.266717055657234,3.179109939607006,0.2313604814899916,-0.9564260502318491
5.298508155053304,3.2911925706511567,0.22179622098767313,-1.1103126521525544
5.331420080759816,3.407874383039538,0.2106930944661476,-1.2746565533393102
5.365498824590212,3.5300053711114625,0.1979465289327545,-1.4502359824436244
5.400798878301327,3.6585393186470676,0.18344416910831826,-1.6379357925827596
5.437384271487797,3.7945346079966416,0.16706481118249067,-1.8387476497822743
5.4753296175677635,3.9391451666119712,0.14867733468466793,-2.053755341958632
5.514721069233883,4.093592798094345,0.1281397812650816,-2.2840925693716003
5.555656997214827,4.259105872289776,0.1052988555713656,-2.530851724292091
5.598248055937725,4.436799180213184,0.0799903383284447,-2.794907863847918
5.642616047739857,4.627454115483771,0.05204125968996552,-3.076600147035694
5.688890588894695,4.831136641044146,0.021275258219608583,-3.3751827107246872
5.737201955305136,5.046567098197911,-0.012476568887638293,-3.687924601238887
5.787667626287115,5.270150429471267,-0.04935581490002716,-4.0087318565866195
5.840369130581828,5.494643606166002,-0.08944313346589336,-4.32626312788649
5.895315566643488,5.707695011868504,-0.13270576474475826,-4.621877181825219
5.952392516762173,5.891078646665314,-0.17892453656301044,-4.868583831480486
6.011303303228826,6.022253584057065,-0.2276103748778153,-5.033310990292505
6.0715258390693965,6.079930806358949,-0.2779434847807404,-5.084868966984784
6.132325147132986,6.0528394663665,-0.3287921744505882,-5.006463693398849
6.192853541796651,5.946304234696126,-0.3788568113845767,-4.80512096553308
6.252316584143612,5.780512556467196,-0.42690802103990755,-4.509327551355143
6.310121709708284,5.581391413323276,-0.47200129655345896,-4.156139915653292
6.365935623841517,5.371501659795042,-0.5135626957099919,-3.7782201001979603
6.419650640439467,5.166029424630276,-0.5513448967119715,-3.39802680342181
6.47131093468577,4.973206063597989,-0.5853251647461896,-3.0282814490684595
6.521042995321749,4.7964054537835885,-0.6156079792368742,-2.6748524888355725
6.569007049859585,4.636146937613298,-0.6423565041252299,-2.339550861960263
6.615368519235718,4.4914776496098865,-0.6657520127448325,-2.0220766176683878
6.6602832957318165,4.360790628244343,-0.6859727789215164,-1.7211817846468147
6.70389120201426,4.242265274316474,-0.7031845967679846,-1.435303942432917
6.746313854757425,4.1340864227435326,-0.7175376361923138,-1.162886551974862
6.78765471898486,4.034542925165309,-0.7291665017120624,-0.902526500262839
6.828000148236513,3.942064138710733,-0.7381917667146908,-0.6530306182876031
6.867420789623621,3.8552262395416936,-0.7447220728975668,-0.4134261612933487
6.905973052019037,3.7727451745023197,-0.7488563345105003,-0.18294918196494128
6.9437005037640604,3.693464813581738,-0.7506858263301497,0.03897680509878834
6.980635151899878,3.616344467637496,-0.7502960582791618,0.2527656223066853
7.016798596576253,3.540447630624544,-0.747768402056095,0.458693663855637
7.052203072882499,3.4649326182406157,-0.7431814654175386,0.6569241839870406
7.086852399064905,3.389045179175295,-0.7366122235776682,0.8475300695408882
7.120742850856658,3.3121128708629066,-0.7281369228822593,1.030514907062735
7.153863979565287,3.233540870722595,-0.717831773811632,1.2058323134656839
7.186199388272513,3.1528088584185676,-0.7057734506769752,1.3734035509641347
7.217727476856699,3.0694686137788967,-0.6920394151673338,1.53313345184123
7.248422162994488,2.9831420071187082,-0.6767080806489215,1.684924667792039
7.278253583065675,2.8935191022976254,-0.6598588339710011,1.828690247495268
7.307188774088651,2.800356141514725,-0.6415719314960484,1.9643645414217916
7.335192335503798,2.703473230837973,-0.6219282860818305,2.091912436660415
7.362227067812178,2.6027515943681094,-0.6010091617152263,2.211336936197117
7.388254583755859,2.498130311092846,-0.5788957923532552,2.322685114893809
7.413235886866787,2.389602490718283,-0.5556689412043171,2.4260525062260845
7.43713191177397,2.2772108822452566,-0.5314084161420563,2.521585997537923
7.459904020596422,2.1610429412472336,-0.506192556166677,2.609485335309121
