th1 (rad),w1 (rad/s),th2 (rad),w2 (rad/s),a1 (rad/s^2),a2 (rad/s^2)
4.302990546007817,0.24965659321857067,1.595451971616868,-2.8180865125483088,4.907665296795702,-5.318240131777809
4.305487111940002,0.2987332461865277,1.567271106491385,-2.871268913866087,5.010448151472885,-5.156595782069098
4.308474444401868,0.34883772770125654,1.538558417352724,-2.922834871686778,5.15525947945966,-4.947456597960794
4.31196282167888,0.40039032249585316,1.5093300686358562,-2.972309437666386,5.346227122500863,-4.6861560114185234
4.315966724903839,0.4538525937208618,1.4796069742591924,-3.019170997780571,5.586975901310111,-4.368652442602469
4.320505250841047,0.5097223527339629,1.4494152642813867,-3.0628575222065955,5.880241976243906,-3.992050970295581
4.325602474368387,0.568524772496402,1.4187866890593208,-3.1027780319095513,6.227413403434162,-3.5552321936751334
4.331287722093351,0.6307989065307436,1.3877589087402253,-3.1383303538463028,6.628021611814229,-3.059558048432508
4.3375957111586585,0.6970791226488858,1.3563756052017624,-3.1689259343306277,7.079229929396198,-2.509595443711783
4.344566502385147,0.7678714219428479,1.3246863458584561,-3.1940218887677454,7.575388715402426,-1.913766282444191
4.352245216604576,0.8436253090968722,1.2927461269707787,-3.213159551592187,8.107746769357645,-1.2848036933952962
4.360681469695544,0.9247027767904487,1.260614531454857,-3.22600758852614,8.664417751208399,-0.6398795049497531
4.369928497463449,1.0113469543025326,1.2283544555695955,-3.2324063835756376,9.230689802803235,-0.00027888877531910306
4.380041967006474,1.103653852330565,1.196030391733839,-3.2324091724633908,9.789730180873994,0.6094562874325806
4.39107850552978,1.201551154139305,1.1637063000092052,-3.226314609589065,10.32367461835515,1.1629127142742344
4.403094017071173,1.3047879003228564,1.1314431539133145,-3.2146854824463227,10.815012930122645,1.6336119469648156
4.416141896074402,1.4129380296240828,1.0992962990888513,-3.1983493629766744,11.2481070307162,1.997026274277712
4.430271276370643,1.5254190999312447,1.0673128054590846,-3.1783791002338972,11.61062844765882,2.232521042327726
4.445525467369955,1.6415253844078328,1.0355290144567455,-3.15605388981062,11.8946987117125,2.324927627502964
4.461940721214034,1.7604723715249577,1.0039684755586393,-3.13280461353559,12.097563680201048,2.265507321681729
4.4795454449292835,1.8814480083269682,0.9726404294232834,-3.1101495403187727,12.221720733931038,2.0521783302944505
4.498359925012553,2.0036652156662784,0.9415389340200957,-3.0896277570158284,12.274521115871373,1.6890142492932094
4.5183965771692165,2.126410426824992,0.9106426564499374,-3.072737614522896,12.267359817039237,1.1851448240449878
4.539660681437466,2.2490840249953847,0.8799152803047084,-3.0608861662824465,12.214620755277044,0.5532686764404764
4.5621515216874196,2.371230232548155,0.8493064186418839,-3.055353479518042,12.132557664151328,-0.1919893167611477
4.585863824012901,2.4925558091896685,0.8187528838467035,-3.0572733726856534,12.038267053912348,-1.035670258200939
4.610789382104798,2.612938479728792,0.788180150119847,-3.0676300752676626,11.94886340029886,-1.9638763090312277
4.636918766902086,2.732427113731781,0.7575038493671704,-3.087268838357975,11.880914690110854,-2.9648918075743036
4.664243038039404,2.8512362606328896,0.7266311609835907,-3.116917756433718,11.85015137719831,-4.030017584975354
4.6927554006457335,2.9697377744048725,0.6954619834192535,-3.1572179322834715,11.871430612939115,-5.154153973035075
4.7224527783897825,3.088452080534264,0.6638898040964187,-3.2087594720138224,11.958921814908914,-6.3361982698343535
4.753337299195125,3.208041298683353,0.6318022093762805,-3.272121454712166,12.126477145331197,-7.579337193951912
4.7854177121819585,3.329306070136665,0.5990809948291589,-3.347914826651685,12.38815767848708,-8.891319084090748
4.818710772883326,3.4531876469215357,0.565601846562642,-3.4368280174925925,12.75889933960718,-10.28478959920486
4.853242649352541,3.5807766403176076,0.5312335663877161,-3.539675913484641,13.255319277576813,-11.77777286132118
4.889050415755717,3.7133298330933755,0.4958368072528697,-3.657453642097853,13.896681245136866,-13.394380255632656
4.926183714086651,3.8522966455447443,0.4592622708318912,-3.7913974446541796,14.70605622327021,-15.165832349776261
4.964706680542099,3.999357207777446,0.4213482963853494,-3.9430557681519423,15.711729499898448,-17.131883432811037
5.004700252619873,4.1564745027764305,0.38191773870382995,-4.114374602480052,16.94891182890958,-19.342734868125625
5.046264997647637,4.325963621065526,0.3407739926790294,-4.307801951161308,18.46179525166446,-21.861491466618233
5.089524633858293,4.51058157358217,0.2976959731674163,-4.526416865827491,20.305916926020277,-24.76710241502219
5.134630449594114,4.713640742842373,0.2524318045091414,-4.774087889977713,22.550568442448096,-28.1574107737911
5.181766857022538,4.939146427266854,0.20469092560936425,-5.055661997715624,25.28040310147283,-32.15111853096671
5.231158321295206,5.191950458281582,0.154134305632208,-5.377173183025291,28.593951434633,-36.885460779332234
5.283077825878022,5.477889972627912,0.1003625738019551,-5.746027790818613,32.593289702999094,-42.501539736166336
5.3378567256043015,5.803822869657902,0.04290229589376896,-6.171043188180277,37.35096589774459,-49.097879497398
5.39589495430088,6.177332528635349,-0.018808135988033804,-6.662021983154257,42.82192343576258,-56.60703100624058
5.457668279587233,6.605551762992975,-0.08542835581957636,-7.228092293216663,48.63062090577684,-64.49737009204965
5.523723797217163,7.091857972050743,-0.157709278751743,-7.873065994137159,53.60684624257344,-71.12245522922531
5.594642376937671,7.6279264344764774,-0.23643993869311458,-8.584290546429411,54.95773172689694,-72.55927593913914
5.670921641282436,8.177503751745446,-0.3222828441574087,-9.309883305820803,47.51126493885484,-61.5445033970264
5.75269667879989,8.652616401133994,-0.41538167721561675,-9.925328339791067,25.50800955748431,-29.983309500288264
5.83922284281123,8.907696496708837,-0.5146349606135274,-10.22516143479395,-9.31854565423957,19.72199969706493
5.928299807778318,8.814511040166442,-0.6168865749614669,-10.027941437823301,-41.37328928925431,65.75489058367405
6.016444918179983,8.400778147273899,-0.7171659893397,-9.37039253198656,-55.91907569381229,87.5067746063979
6.100452699652721,7.841587390335776,-0.8108699146595656,-8.495324785922582,-54.88176091844374,87.6442012074345
6.178868573556079,7.292769781151338,-0.8958231625187915,-7.618882773848237,-47.28876623638063,78.72055329103976
6.251796271367592,6.819882118787532,-0.9720119902572738,-6.8316772409378395,-38.72723849963831,68.49363262910437
6.319995092555468,6.432609733791148,-1.0403287626666522,-6.146740914646796,-31.126737699983465,59.64070715699085
6.384321189893379,6.121342356791313,-1.1017961718131202,-5.550333843076888,-24.82621949017244,52.63383324744482
6.445534613461292,5.873080161889589,-1.157299510243889,-5.02399551060244,-19.682861157794058,47.27651799858115
6.504265415080188,5.676251550311648,-1.2075394653499134,-4.551230330616628,-15.465312064232638,43.24663442845398
6.561027930583305,5.521598429669322,-1.2530517686560796,-4.1187639863320875,-11.966141581944452,40.250563352442605
6.616243914879998,5.401937013849878,-1.2942394085194004,-3.7162583528076616,-9.02379242704855,38.05238072592945
6.670263285018497,5.311699089579393,-1.3314019920474771,-3.335734545548367,-6.519241516745638,36.46825623486957
6.723380275914291,5.246506674411936,-1.3647593375029607,-2.971051983199671,-4.367575978664968,35.353995016328724
6.77584534265841,5.202830914625286,-1.3944698573349574,-2.617512033036384,-2.5100792281553885,34.59353011268607
6.827873651804663,5.177730122343732,-1.4206449776653212,-2.2715767319095233,-0.9079272112513506,34.090031494763736
6.879650953028101,5.168650850231218,-1.4433607449844164,-1.930676416961886,0.46267031431016925,33.7595968855801
6.931337461530413,5.17327755337432,-1.4626675091540353,-1.593080448106085,1.6143132667703821,33.527139976802594
6.983070237064156,5.189420686042024,-1.4785983136350962,-1.257809048338059,2.551639224817715,33.32410485087438
7.034964443924577,5.214937078290202,-1.4911764041184767,-0.9245679998293153,3.2742262677434937,33.08770036550658
7.087113814707479,5.247679340967637,-1.50042208411677,-0.5936909961742495,3.779333607477317,32.76137385887757
7.139590608117155,5.28547267704241,-1.5063589940785125,-0.2660772575854738,4.0645154704907425,32.29621463878153
7.192445334887579,5.326117831747317,-1.5090197666543672,0.05688488880234149,4.1300279448587895,31.652911057841333
7.245706513205052,5.367418111195905,-1.5084509177663439,0.3734139993807548,3.9808606261681603,30.80381455908019
7.299380694317011,5.407226717457586,-1.5047167777725363,0.6814521449715567,3.6281840728404826,29.734631259395044
7.353452961491587,5.443508558185991,-1.4979022563228208,0.9787984575655071,3.090025083804321,28.445302226538455
7.407888047073446,5.474408809024035,-1.4881142717471658,1.2632514798308916,2.3910658114906376,26.949763144263127
7.462632135163687,5.498319467138941,-1.475481756948857,1.5327491112735228,1.5615918084465297,25.274477614017034
7.517615329835076,5.513935385223407,-1.4601542658361217,1.785493887413693,0.6357538043533693,23.4558715701373
7.57275468368731,5.520292923266941,-1.4422993269619848,2.020052603115066,-0.3505817236170636,21.536999899654177
7.627957612919979,5.51678710603077,-1.4220988009308342,2.235422602111608,-1.3620680757972434,19.563898444259994
7.6831254839802865,5.503166425272798,-1.3997445749097182,2.431061586554208,-2.365895245130744,17.582090074897547
7.7381571482330145,5.47950747282149,-1.375433959044176,2.6068824873031833,-3.333361923906879,15.633631504001123
7.79295222296123,5.446173853582422,-1.3493651341711441,2.7632188023431947,-4.24088491296982,13.75494361129341
7.847413961497054,5.4037650044527235,-1.321732946147712,2.900768238456129,-5.0704360635419485,11.975508016891435
7.901451611541582,5.353060643817304,-1.2927252637631508,3.020523318625043,-5.809480415855055,10.317375461498697
7.9549822179797545,5.294965839658753,-1.2625200305769004,3.12369707324003,-6.450537602022842,8.795339666095115
8.007931876376341,5.230460463638524,-1.2312830598445001,3.2116504699009814,-6.99050289244836,7.417588301754676
8.060236481012726,5.16055543471404,-1.1991665551454904,3.2858263529185283,-7.42985304276705,6.186642110897431
8.111842035359867,5.08625690428637,-1.1663082916163052,3.3476927740275024,-7.771836376068795,5.100419740590514
8.16270460440273,5.008538540525682,-1.1328313638760301,3.3986969714334077,-8.021716099860297,4.153305067141105
8.212789989807987,4.928321379527079,-1.098844394161696,3.4402300221048185,-8.186107466960848,3.3371346154302435
8.262073203603258,4.84646030485747,-1.0644420939406478,3.473601368259121,-8.272426586652553,2.642058332957188
8.310537806651833,4.763736038990944,-1.0297060802580567,3.500021951588693,-8.288452503337703,2.057254490800989
8.358175167041743,4.680851513957568,-0.9947058607421697,3.520594496496703,-8.241994051893766,1.5714985148594012
8.404983682181319,4.59843157343863,-0.9594999157772027,3.5363094816452967,-8.140647715344613,1.1735972305723341
8.450967997915706,4.517025096285184,-0.9241368209607498,3.54804545395102,-7.991630842699698,0.8527060332560775
8.496138248878557,4.437108787858187,-0.8886563664212396,3.5565725142835807,-7.801674885113486,0.5985485872423304
8.54050933675714,4.359092039007052,-0.8530906412784037,3.5625580001560038,-7.576964812796828,0.40155825911458165
8.58410025714721,4.283322390879084,-0.8174650612768437,3.5665735827471496,-7.323112911481836,0.2529586994583132
8.626933481056,4.210091261764266,-0.7817993254493723,3.569103169741733,-7.045157300115453,0.14479856295376442
8.669034393673643,4.139639688763111,-0.746108293751955,3.5705511553712705,-6.747577519301607,0.0699527824176479
8.710430790561274,4.072163913570095,-0.7104027821982423,3.571250683195447,-6.434321296764182,0.02210036912166128
8.751152429696974,4.007820700602453,-0.6746902753662878,3.5714716868866634,-6.108838064316357,-0.0043134592222446476
8.791230636702998,3.9467323199592896,-0.6389755584974212,3.571428552294441,-5.774115987866372,-0.014124867232363362
8.830697959902592,3.888991160080626,-0.6032612729744767,3.571287303622117,-5.43272020755394,-0.011504271836293994
8.869587871503398,3.8346639580050867,-0.5675483999382556,3.571172260903754,-5.086830707312177,-1.1279057529862096e-05
8.907934511083448,3.783795650931965,-0.531836677329218,3.571172148113179,-4.738278780640071,0.017350565594808742
8.945772467592768,3.736412863125564,-0.49612495584808625,3.571345653769127,-4.388581467349578,0.038080723323409574
8.983136596224023,3.6925270484520683,-0.460411499310395,3.571726461002361,-4.038973634647174,0.0601312505538004
9.020061866708543,3.6521373121055967,-0.4246942347003714,3.572327773507899,-3.6904375899019817,0.08185955442197078
9.0565832398296,3.615232936206577,-0.3889709569652924,3.573146369052119,-3.343730261681154,0.10198453233879141
9.092735569191666,3.5817956335897656,-0.35323949327477117,3.574166214375507,-2.9994080856883505,0.11954609393803001
9.128553525527563,3.551801552732882,-0.3174978311310161,3.5753616753148876,-2.657849795233785,0.13386791361718373
9.164071541054891,3.525223054780544,-0.28174421437786723,3.5767003544510594,-2.3192773511425337,0.14452316437747295
9.199323771602696,3.5020302812691186,-0.24597721083335664,3.578145586094834,-1.983775260782216,0.1513029259509988
9.234344074415388,3.4821925286612965,-0.21019575497240828,3.579658615354344,-1.6513085357530866,0.15418693209159656
9.269165999702,3.4656794433037654,-0.17439916881886483,3.5812004846752603,-1.3217395271135604,0.15331631531419435
9.303822794135039,3.45246204803263,-0.13858716397211224,3.582733647828402,-0.994843859294181,0.14896801583880276
9.338347414615365,3.4425136094396884,-0.10275982749382821,3.5842233279867903,-0.670325661904326,0.14153053984220887
9.372772550709762,3.435810352820645,-0.06691759421396032,3.5856386333852126,-0.347832274772619,0.13148077615259868
9.407130654237967,3.432332030072919,-0.031061207880108195,3.5869534411467385,-0.026968577714861025,0.11936160684852827
9.441453974538696,3.4320623442957703,0.004808326531359194,3.588147057215224,0.2926889257121397,0.10576007311229121
9.475774597981653,3.4349892335528915,0.040689797103511435,3.589204657946347,0.6115781605245622,0.09128588097773882
9.510124490317182,3.4411050151581373,0.07658184368297491,3.5901175167561243,0.9301375741131612,0.0765500506723297
9.544535540468763,3.450406390899269,0.11248301885053616,3.5908830172628474,1.248792187630157,0.06214352694000386
9.579039604377755,3.4628943127755707,0.14839184902316463,3.5915044525322473,1.5679395266081932,0.048615575406285826
9.61366854750551,3.478573708041653,0.18430689354848712,3.5919906082863102,1.8879353527450053,0.0364517915585448
9.648454284585926,3.497453061569103,0.22022679963135022,3.5923551262018956,2.2090791140039934,0.026051544626281644
9.683428815201617,3.519543852709143,0.2561503508933692,3.5926156416481585,2.531599020848885,0.017704669438131173
9.71862425372871,3.544859842917632,0.2920765073098508,3.5927926883425396,2.8556366434082676,0.011567206622199035
9.754072852157886,3.5734162093517146,0.3280044341932762,3.5929083604087615,3.1812309088552877,0.007635977286643548
9.789807014251403,3.6052285184402675,0.3639335177973638,3.592984720181628,3.5083013618375856,0.005721765138793465
9.825859299435805,3.6403115320586434,0.3998633649991801,3.593041937833016,3.8366305353258223,0.005420870103509382
9.862262414756392,3.6786778374119016,0.43579378437751026,3.593096146534051,4.165845267085679,0.0060847968333224926
9.89904919313051,3.7203362900827583,0.4717247458428508,3.5931569945023845,4.49539679090676,0.00678785386799909
9.936252556031338,3.765290257991826,0.5076563157878746,3.5932248730410645,4.824539435082773,0.006292470396231371
9.973905458611256,3.8135356523426536,0.5435885645182853,3.593287797745027,5.152307777460181,0.0030120946143547067
10.012040815134682,3.8650587301172554,0.5795214424957356,3.5933179186911706,5.47749214156164,-0.005028370951726939
10.050691402435854,3.9198336515328718,0.6154546216826473,3.5932676349816535,5.79861237785058,-0.020234505832757918
10.089889738951182,3.9778197753113775,0.6513872980324639,3.593065289923326,6.113889965543449,-0.04548639544515283
10.129667936704296,4.038958674966812,0.6873179509316971,3.5926104259688745,6.421218602636694,-0.08418419334297897
10.170057523453965,4.103170860993179,0.7232440551913859,3.5917685840354445,6.718133636246736,-0.14029431870428077
10.211089232063896,4.170352197355647,0.7591617410317404,3.5903656408484017,7.0017809356737075,-0.21839492180269057
10.252792754037452,4.240370006712384,0.7950653974402244,3.588181691630375,7.268886143240973,-0.32371865307998665
10.295196454104577,4.313058868144794,0.8309472143565282,3.5849445050995747,7.515725672160104,-0.4621900160949158
10.338327042786025,4.388216124866395,0.8667966594075239,3.5803226049386256,7.738101378043752,-0.6404536457136648
10.38220920403469,4.4655971386468325,0.9025998854569102,3.573918068481489,7.931321534065359,-0.8658887080527766
10.426865175421158,4.544910353987486,0.938339066141725,3.565259181400961,8.090191610692566,-1.1466032540727105
10.472314278961033,4.6258122700944115,0.9739916579557346,3.553793148860234,8.209019415124406,-1.491400778047658
10.518572401661977,4.707902464245656,1.009529589444337,3.5388791410797573,8.28164038532477,-1.9097094703016302
10.565651426304434,4.790718868098904,1.0449183808551346,3.519782046376741,8.301470235783365,-2.4114627966040416
10.613558614985424,4.8737335704567375,1.080116201318902,3.4956674184107004,8.261593650774158,-3.0069182490203272
10.662295950689991,4.956349506964479,1.115072875503009,3.4655982359204973,8.15489918243527,-3.7063996733528874
10.711859445759636,5.037898498788832,1.149728857862214,3.4285342391869684,7.974271703225157,-4.519947920861253
10.762238430747525,5.1176412158210836,1.1840142002540837,3.383334759978356,7.712854318195807,-5.4568653289114755
10.813414842905736,5.194769759003042,1.2178475478538673,3.3287661066892413,7.36439102616939,-6.525142566284101
10.865362540495767,5.268413669264736,1.2511352089207597,3.2635146810264004,6.9236589072425145,-7.730762764540379
10.918046677188414,5.3376502583371614,1.2837703557310236,3.1862070533809965,6.386993318329359,-9.07688881772828
10.971423179771786,5.401520191520455,1.3156324262648336,3.0954381652037135,5.752900541159258,-10.562956424203223
11.02543838168699,5.459049196932048,1.3465868079168708,2.9898086009616813,5.0227387383750575,-12.183718570375353
11.08002887365631,5.509276584315798,1.3764848939264875,2.867971415257928,4.201429646532997,-13.92831636485968
11.135121639499468,5.551290880781128,1.4051646080790667,2.728688251609331,3.29814094899345,-15.77948421805396
11.19063454830728,5.584272290271063,1.43245149059516,2.5708934094287916,2.326855210814254,-17.713029434165012
11.24647727120999,5.607540842379205,1.458160424689448,2.3937631150871415,1.306720345714797,-19.697749236069395
11.302552679633783,5.620608045836353,1.4820980558403194,2.1967856227264475,0.2620658562350139,-21.695951108174736
11.358758760092146,5.623228704398703,1.5040659120675839,1.9798261116447002,-0.778022978591221,-23.664713146998047
11.414991047136132,5.615448474612791,1.5238641731840308,1.7431789801747197,-1.7806464631192043,-25.55795066836976
11.471145531882259,5.597642009981598,1.5412959629857779,1.487599473491022,-2.710556629634696,-27.32924257765116
11.527121951982075,5.570536443685251,1.556171957720688,1.2143070477145104,-3.532067754131941,-28.935228288818244
11.582827316418927,5.535215766143931,1.568315028197833,0.9249547648263279,-4.211230826990652,-30.33924123890644
11.638179474080365,5.4931034578740245,1.5775645758460963,0.6215623524372635,-4.718005552566966,-31.514738019854292
11.693110508659105,5.445923402348355,1.583780199370469,0.3064149722387206,-5.028118918809378,-32.448053111012506
11.747569742682588,5.3956422131602615,1.586844349092856,-0.01806555887140443,-5.124316880559803,-33.14008301429828
