th1 (rad),w1 (rad/s),th2 (rad),w2 (rad/s)
0.9464010059383802,2.11222275697282,1.587604102836749,-0.5967510534858815
0.9675232335081083,2.070259181073561,1.58163659230189,-0.6877953984182564
0.988225825318844,2.026414691245169,1.5747586383177075,-0.7746534493756156
1.0084899722312957,1.9806382219235699,1.5670121038239513,-0.8572547999431455
1.0282963544505315,1.9328645114767558,1.5584395558245199,-0.9355290265323101
1.047624999565299,1.8830167633327708,1.5490842655591968,-1.0094073299380313
1.0664551671986269,1.8310098079115686,1.5389901922598164,-1.0788248985134492
1.0847652652777426,1.7767537567051472,1.5282019432746818,-1.1437239800837045
1.102532802844794,1.7201581002787003,1.5167647034738447,-1.2040575917331522
1.119734383847581,1.6611361530137059,1.5047241275565133,-1.259793727222904
1.1363457453777182,1.599609692633633,1.4921261902842842,-1.3109198460784806
1.1523418423040546,1.5355135879208426,1.4790169918234994,-1.3574473546618608
1.167696978183263,1.468800161696687,1.4654425182768809,-1.3994157290212643
1.1823849798002297,1.3994430074751463,1.4514483609866682,-1.4368958947421664
1.1963794098749811,1.3274399761707896,1.4370794020392466,-1.469992482359299
1.2096538096366891,1.2528150802276994,1.4223794772156535,-1.4988446263115058
1.222181960438966,1.175619128193939,1.4073910309525384,-1.5236250723956404
1.2339381517209056,1.0959289985578822,1.3921547802285819,-1.5445374960187055
1.2448974417064844,1.0138455767256493,1.3767094052683948,-1.5618120953897108
1.255035897473741,0.9294904977130619,1.3610912843144978,-1.5756996878838454
1.2643308024508717,0.8430019420556708,1.3453342874356593,-1.5864646798462831
1.2727608218714284,0.7545298081909858,1.3294696406371964,-1.594377378970124
1.2803061199533383,0.6642306210625162,1.3135258668474952,-1.5997061608015888
1.2869484261639634,0.5722625311798029,1.2975288052394793,-1.6027099840714334
1.2926710514757616,0.4787807154734639,1.281501705398765,-1.6036316809663618
1.2974588586304963,0.3839334213112531,1.2654653885891014,-1.6026923434629754
1.3012981928436087,0.28785881114811585,1.2494384651544717,-1.6000870044855584
1.30417678095509,0.19068268049655474,1.2334375951096161,-1.595981691422453
1.3060836077600555,0.09251704676154066,1.2174777781953916,-1.5905118241325369
1.307008778227671,-0.006540452247238482,1.2015726599540661,-1.5837818491388262
1.3069433737051985,-0.10640645082301338,1.1857348414626778,-1.57586594968641
1.3058793091969685,-0.20701116037620762,1.1699761819658137,-1.5668096464855255
1.3038091975932065,-0.3082972132547286,1.1543080855009584,-1.5566321018990048
1.300726225460659,-0.4102181643664412,1.1387417644819684,-1.54532895521055
1.2966240438169947,-0.5127367542278878,1.1232884749298628,-1.5328755424130291
1.2914966762747158,-0.6158230172277824,1.1079597195057325,-1.5192303853940952
1.285338446102438,-0.7194522974369344,1.0927674156517915,-1.5043388683400514
1.2781439231280687,-0.8236032132182561,1.077724026968391,-1.4881370507468368
1.269907890995886,-0.9282555924312554,1.0628426564609226,-1.470555594849161
1.2606253350715735,-1.0333883828296957,1.048137100512431,-1.451523809643254
1.2502914512432766,-1.1389775275613179,1.0336218624159983,-1.4309738336443643
1.2389016759676634,-1.2449937835207046,1.0193121240795546,-1.4088449940432641
1.2264517381324564,-1.3514004506542387,1.005223674139122,-1.385088391021397
1.212937733625914,-1.4581509732298596,0.9913727902289081,-1.3596717625256516
1.1983562238936154,-1.5651863698278183,0.9777760726036516,-1.3325846863570356
1.1827043601953373,-1.6724324479495492,0.9644502257400813,-1.3038441721113994
1.1659800357158419,-1.7797967626366726,0.9514117840189673,-1.2735006838808
1.1481820680894752,-1.8871652877510052,0.9386767771801593,-1.2416446135924748
1.129310415211965,-1.9943987854805618,0.9262603310442346,-1.208413191671766
1.1093664273571595,-2.1013288865376527,0.9141761991275169,-1.1739977730229194
1.088353138491783,-2.207753933014473,0.9024362213972877,-1.1386513684640964
1.0662755991616384,-2.3134346904953125,0.8910497077126468,-1.1026962013014527
1.0431412522566852,-2.4180901076164787,0.8800227456996322,-1.0665309534632383
1.0189603511805203,-2.5213933899169407,0.8693574361649998,-1.0306372260527785
0.9937464172813509,-2.6229687574855576,0.8590510639044721,-0.9955845806973461
0.9675167297064954,-2.722389364603402,0.8490952180974985,-0.9620333635431623
0.9402928360604613,-2.8191769595403167,0.839474884462067,-0.930734366246811
0.9121010664650582,-2.9128039310564784,0.8301675407995989,-0.9025242829511926
0.8829730271544934,-3.0026983943560697,0.821142297970087,-0.878315925625662
0.8529460432109327,-3.0882528780287926,0.8123591387138304,-0.8590823155361396
0.8220635144306447,-3.1688369524609503,0.803768315558469,-0.8458341248096967
0.7903751449060352,-3.2438137714991235,0.795309974310372,-0.8395905257697273
0.757937007191044,-3.312559994294805,0.7869140690526747,-0.8413442996734354
0.7248114072480959,-3.3744879668998538,0.7785006260559404,-0.8520229801843151
0.6910665275790974,-3.429068473041777,0.7699803962540972,-0.8724487105344703
0.6567758428486796,-3.4758519439663353,0.7612559091487525,-0.9033001756730108
0.6220173234090163,-3.5144858836075925,0.7522229073920224,-0.9450802257648633
0.5868724645729404,-3.5447265098073424,0.7427721051343738,-0.998092491147147
0.551425199474867,-3.566443241506767,0.7327911802229022,-1.062429382719841
0.5157607670597993,-3.57961557781145,0.7221668863957038,-1.1379725127884834
0.4799646112816848,-3.5843229333994144,0.7107871612678189,-1.2244050275206568
0.4441213819476907,-3.580728898857135,0.6985431109926123,-1.3212339354888811
0.40831409295911936,-3.569062002004769,0.6853307716377235,-1.4278195240414395
0.37262347293907166,-3.5495952631263794,0.6710525763973091,-1.5434085277587306
0.33712752030780785,-3.5226266753530693,0.6556184911197218,-1.6671678472770424
0.30190125355427716,-3.488462299075515,0.6389468126469514,-1.798216180005201
0.267016630563522,-3.447403075681661,0.6209646508468994,-1.935651718248
0.23254259980670539,-3.399735876034547,0.6016081336644195,-2.0785748977314635
0.1985452410463599,-3.3457288014399733,0.5808223846871048,-2.226105892294622
0.16508795303196017,-3.285630400097601,0.5585613257641585,-2.377397068218388
0.13223164903098417,-3.2196722583874293,0.5347873550819746,-2.531640916035407
0.10003492644710987,-3.1480743535607285,0.5094709459216206,-2.688074093409385
0.06855418291150259,-3.071052578876152,0.4825902049875267,-2.845978185958114
0.03784365712274107,-2.988827938563175,0.45413042312794555,-3.004677674338032
0.007955377737109321,-2.9016370275797017,0.42408364638456525,-3.1635354304700787
-0.021060992538687696,-2.809743536175058,0.3924482920798645,-3.321945888998719
-0.04915842790043827,-2.7134506338605893,0.3592288331898773,-3.4793258787491363
-0.07629293423904417,-2.6131141768322244,0.32443557440238596,-3.6351029744597616
-0.10242407600736642,-2.5091567323826394,0.2880845446577883,-3.788701161814867
-0.1275156433311928,-2.402082405158764,0.25019753303963965,-3.939523622877141
-0.15153646738278045,-2.292492358856776,0.21080229681086823,-4.086932576348009
-0.17446139097134822,-2.181100721153006,0.16993297104738814,-4.230226389924874
-0.19627239818287828,-2.068750201391352,0.1276307071481394,-4.368614671832298
-0.21695990019679182,-1.9564262028461104,0.0839445604298164,-4.501192797717804
-0.2365241622252529,-1.8452674546000682,0.03893263245263836,-4.62691837005648
-0.2549768367712536,-1.7365702495170836,-0.007336551247926447,-4.744593413728608
-0.27234253926642443,-1.6317823734207275,-0.05478248538521253,-4.852857538238633
-0.2886603630006317,-1.5324820099941945,-0.10331106076759886,-4.950198506805188
-0.30398518310057365,-1.4403367507463716,-0.15281304583565075,-5.0349870623225605
-0.3183885506080374,-1.357038925392252,-0.20316291645887635,-5.105541674318927
-0.3319589398619599,-1.2842163776726558,-0.2542183332020656,-5.16022529311953
-0.34480110363868643,-1.2233227723982383,-0.3058205861332609,-5.197569882588066
-0.3570343313626688,-1.1755179508960354,-0.35779628495914156,-5.216416165227617
-0.3687895108716292,-1.1415550587539345,-0.40996044661141773,-5.216047847407552
-0.38020506145916855,-1.1216945792047806,-0.46212092508549324,-5.196294971334391
-0.39142200725121634,-1.1156635995269568,-0.5140838747988371,-5.157583154088319
-0.4025786432464859,-1.1226708594018433,-0.5656597063397203,-5.100915330718516
-0.4138053518405043,-1.1414762855573233,-0.6166688596469054,-5.027787719498552
-0.42522011469607757,-1.1705018784320853,-0.666946736841891,-4.940056742551878
-0.4369251334803984,-1.2079632281141828,-0.7163473042674098,-4.839783055220855
-0.44900476576154025,-1.2519998049748922,-0.7647451348196184,-4.729079881595634
-0.46152476381128915,-1.3007867788113474,-0.8120359336355747,-4.609986584067297
-0.4745326315994026,-1.3526187100966227,-0.8581357994762476,-4.484378494365461
-0.4880588187003688,-1.4059629720951545,-0.9029795844199022,-4.353914479936516
-0.5021184484213204,-1.4594862019172512,-0.9465187292192674,-4.220017032742787
-0.5167133104404928,-1.512059861338063,-0.9887188995466952,-4.083876485244857
-0.5318339090538735,-1.5627515570023982,-1.0295576643991438,-3.946470605532405
-0.5474614246238975,-1.6108079702536817,-1.069022370454468,-3.8085921463461614
-0.5635695043264343,-1.6556338684966334,-1.1071082919179296,-3.670878884781426
-0.5801258430114006,-1.6967702473891062,-1.143817080765744,-3.5338426135963994
-0.5970935454852916,-1.7338734583951474,-1.179155506901708,-3.397895106154764
-0.6144322800692431,-1.7666962937534534,-1.2131344579632555,-3.2633701929347136
-0.6320992430067777,-1.7950714113992317,-1.2457681598926027,-3.130541804423884
-0.65004995712077,-1.818897124665755,-1.2770735779368416,-2.9996382462084865
-0.6682389283674275,-1.8381253884004125,-1.3070699603989264,-2.87085317207819
-0.6866201822514316,-1.8527517271359837,-1.3357784921197082,-2.744353787739007
-0.7051476995227914,-1.8628068293371214,-1.3632220299970983,-2.62028680762328
-0.7237757678161627,-1.8683495451955963,-1.389424898073331,-2.4987826378342723
-0.7424592632681186,-1.8694610553002369,-1.4144127244516738,-2.37995819270838
-0.761153873821121,-1.8662400126422236,-1.4382123063787575,-2.263918684205725
-0.7798162739475433,-1.8587984947343767,-1.4608514932208148,-2.150758659378681
-0.7984042588948871,-1.8472586331698184,-1.4823590798146016,-2.040562504684827
-0.8168768452265853,-1.8317498136293684,-1.5027647048614499,-1.933404587864878
-0.835194343362879,-1.8124063601092963,-1.5220987507400987,-1.829349168284128
-0.853318406963972,-1.7893656334411028,-1.54039224242294,-1.7284501742690765
-0.871212063298383,-1.7627664866868837,-1.5576767441656307,-1.6307509200839823
-0.8888397281652518,-1.732748029435765,-1.5739842533664705,-1.5362838147870643
-0.9061672084596094,-1.6994486600728065,-1.589347091514341,-1.4450700993512795
-0.9231616950603375,-1.6630053303314989,-1.603797792507854,-1.357119636299773
-0.9397917483636525,-1.6235530103675047,-1.6173689888708516,-1.2724307669704082
-0.9560272784673276,-1.5812243256029985,-1.6300932965405557,-1.1909902447708867
-0.9718395217233576,-1.5361493390003735,-1.6420031989882646,-1.1127732478942045
-0.9872010151133613,-1.4884554544694435,-1.6531309314672067,-1.0377434714960234
-1.0020855696580557,-1.4382674189692244,-1.663508366182167,-0.9658532969279648
-1.016468243847748,-1.3857074026575171,-1.6731668991514466,-0.8970440339773329
-1.030325317874323,-1.3308951382497027,-1.6821373394912198,-0.8312462309475565
-1.0436342692568201,-1.2739481026181783,-1.6904498018006953,-0.7683800466420376
-1.056373750283002,-1.2149817256129247,-1.6981336022671156,-0.7083556777533139
-1.0685235675391311,-1.1541096131059367,-1.7052171590446488,-0.651073834719493
-1.0800646636701905,-1.091443773333561,-1.7117278973918437,-0.5964262587391972
-1.0909791014035262,-1.0270948376933995,-1.7176921599792356,-0.5442962723155971
-1.1012500497804603,-0.961172269199218,-1.7231351227023917,-0.49455935543628876
-1.1108617724724525,-0.8937845537561058,-1.7280807162567546,-0.4470837393144178
-1.1197996180100136,-0.8250393712361407,-1.7325515536498988,-0.4017310095547483
-1.128050011722375,-0.7550437449625553,-1.7365688637454462,-0.3583567107077066
-1.1356004491720006,-0.683904169605674,-1.7401524308525231,-0.31681094447352426
-1.1424394908680573,-0.6117267186249689,-1.7433205402972585,-0.27693895434748106
-1.148556758054307,-0.5386171332397255,-1.7460899298407333,-0.2385816902724307
-1.1539429293867043,-0.4646808954718372,-1.7484757467434575,-0.2015763478860083
-1.1585897383414228,-0.39002328808899656,-1.7504915102223175,-0.1657568781985613
-1.1624899712223127,-0.3147494443102806,-1.752149079004303,-0.13095446497709073
-1.1656374656654156,-0.23896438995683605,-1.753458623654074,-0.09699796868711905
-1.168027109564984,-0.16277308038623706,-1.754428603340945,-0.06371433749192276
-1.1696548403688463,-0.0862804340952315,-1.7550657467158643,-0.030928987451467292
-1.1705176447097985,-0.009591364370359526,-1.755375036590379,0.0015338443780470654
-1.170613558353502,0.06718919013292979,-1.7553596981465986,0.033850768847604795
-1.1699416664521727,0.1439562354411415,-1.7550211904581225,0.06619892936563208
-1.1685021040977612,0.22060469283581557,-1.7543592011644662,0.09875569517724911
-1.166296057169403,0.2970293700345816,-1.7533716442126936,0.1316983556386929
-1.1633257634690573,0.3731249330972601,-1.7520546606563068,0.16520380771313967
-1.1595945141380846,0.44878587903562095,-1.7504026225791753,0.19944822916118593
-1.1551066553477283,0.5239065088045858,-1.7484081402875635,0.23460673052400172
-1.1498675902596824,0.5983808999116322,-1.7460620729823235,0.27085297997055136
-1.1438837812605662,0.67210287733563,-1.743353543182618,0.3083587963548706
-1.1371627524872099,0.7449659808436062,-1.7402699552190692,0.3472937073420961
-1.1297130926787737,0.8168634261900782,-1.7367970181456482,0.387824471137672
-1.121544458416873,0.8876880571400575,-1.7329187734342715,0.43011456211037774
-1.1126675778454724,0.9573322848365633,-1.7286176278131677,0.474323622351744
-1.1030942549971068,1.025688010796795,-1.7238743915896504,0.5206068828805396
-1.092837374889139,1.0926465298215693,-1.718668322760845,0.5691145597085048
-1.0819109095909232,1.158098409383375,-1.71297717716376,0.6199912312732354
-1.0703299254970895,1.2219333426489822,-1.7067772648510278,0.673375204774567
-1.0581105920705998,1.2840399732068368,-1.700043512803282,0.7293978797007288
-1.0452701923385315,1.344305690804553,-1.6927495340062748,0.7881831172998315
-1.031827135430486,1.4026163989382208,-1.6848677028332766,0.849846624960995
-1.0178009714411038,1.4588562569384298,-1.6763692365836667,0.9144953644548139
-1.0032124088717196,1.5129074012207924,-1.6672242829391186,0.9822269927944887
-0.9880833348595116,1.564649652555359,-1.6574020130111737,1.0531293441722882
-0.972436838333958,1.6139602184989088,-1.6468707195694507,1.127279961054975
-0.9562972361489689,1.6607134024658452,-1.635597919958901,1.2047456821304203
-0.9396901021243105,1.7047803332311369,-1.6235504631375968,1.2855822944116
-0.9226422987919991,1.7460287309155538,-1.6106946401934807,1.369834256422653
-0.9051820114828436,1.7843227276664753,-1.5969962976292542,1.4575344989795411
-0.8873387842061788,1.819522763302416,-1.5824209526394588,1.548704309558498
-0.8691435565731547,1.8514855781451964,-1.566933909543874,1.6433533054942535
-0.8506287007917027,1.8800643271582689,-1.5505003764889314,1.741479500087984
-0.83182805752012,1.9051088414165722,-1.5330855814880515,1.8430694638921539
-0.8127769691059543,1.9264660649698249,-1.51465488684913,1.9480985806676012
-0.7935123084562561,1.9439806974996396,-1.495173901042454,2.056531393391529
-0.7740725014812597,1.9574960760522353,-1.4746085871085388,2.1683220297582646
-0.7544975407207374,1.9668553328799299,-1.452925366810956,2.2834146882776287
-0.734828987391938,1.9719028714801692,-1.43009121992818,2.4017441546336404
-0.7151099586771363,1.9724862098457134,-1.4060737783818436,2.5232363025649343
-0.6953850965786792,1.9684582494550933,-1.3808414153561943,2.6478085131356526
-0.6757005140841282,1.9596800415386693,-1.3543633302248377,2.775369919642744
-0.6561037136687415,1.9460241397439468,-1.3266096310284103,2.9058213510839814
-0.636643472271302,1.9273786517654707,-1.2975514175175706,3.03905480339197
-0.6173696857536474,1.9036521331912832,-1.267160869483651,3.1749522126444614
-0.5983331644217346,1.8747795061126822,-1.2354113473572064,3.313383236284948
-0.5795853693606078,1.840729233974279,-1.202277514994357,3.4542016654417504
-0.561178077020865,1.8015120428232074,-1.1677354983399395,3.5972399931307004
-0.5431629565926329,1.7571915457391127,-1.1317630984086324,3.7423015511317086
-0.5255910411352418,1.7078971963465726,-1.0943400828973153,3.889149508734651
-0.508512069171776,1.6538400571142107,-1.0554485878099689,4.037491913447816
-0.49197366860063396,1.5953318962748757,-1.0150736686754906,4.1869618748122495
-0.4760203496378852,1.5328080848384544,-0.9732040499273682,4.337091996976818
-0.46069226878950065,1.4668545894603724,-0.9298331299576,4.487282335213257
-0.44602372289489695,1.3982389531282635,-0.8849603066054674,4.636761611383597
-0.43204133336361433,1.3279443930204566,-0.8385926904916314,4.784542349739157
-0.41876188943340975,1.2572048656449393,-0.7907472669942399,4.929372205273372
-0.40618984077696035,1.1875370071748357,-0.7414535449415062,5.069686263569199
-0.394314470705212,1.120762210183479,-0.6907566823058142,5.20356857721964
-0.3831068486033772,1.059008981955044,-0.6387209965336178,5.32873539652434
-0.37251675878382673,1.0046829018754462,-0.5854336425683744,5.442556489905307
-0.36246992976507225,0.960390462855236,-0.5310080776693213,5.542132668267436
-0.3528660251365199,0.928806058675844,-0.475586750986647,5.624444196868131
-0.3435779645497614,0.9124805844104302,-0.41934230901796565,5.686573219941219
-0.3344531587056571,0.9136061369812352,-0.36247657681855344,5.72598278643854
-0.32531709733584474,0.9337709750984553,-0.30521674895416806,5.740809654981963
-0.31597938758486016,0.9737544148836369,-0.24780865240434843,5.730108034769611
-0.3062418434360238,1.0334128221615047,-0.19050757205665234,5.693979758798986
-0.29590771521440873,1.111689667280052,-0.13356777446866247,5.633550363940459
-0.2847908185416082,1.2067492882259327,-0.07723227082925788,5.5507938794506835
-0.27272332565934887,1.316199801496336,-0.02172433203475104,5.448252846018119
-0.2595613276443855,1.4373509111528027,0.032758196425430146,5.328724102036269
-0.24518781853285748,1.567453819725455,0.08604543744579284,5.194977073681946
-0.22951328033560292,1.7038880002707522,0.1379952081826123,5.049547022126645
-0.21247440033289539,1.8442820707424061,0.18849067840387873,4.894615984765695
-0.19403157962547132,1.9865739088834447,0.23743683825153566,4.731971348998064
-0.17416584053663686,2.1290245803122594,0.2847565517415163,4.563020752923938
-0.15287559473351425,2.270202602023493,0.33038675927075567,4.3888405747185075
-0.13017356871327931,2.408952565115524,0.3742751650179407,4.210239394246933
-0.10608404306212407,2.5443580465487856,0.41637755896041007,4.027823678507651
-0.08064046259663621,2.6757048215871175,0.4566557957454866,3.8420582955901907
-0.053883414380765035,2.802447387986246,0.4950763787013885,3.653318432544083
-0.025858940500902573,2.9241798288415484,0.5316095630268293,3.461932045881629
0.003382857787512912,3.0406108871507986,0.5662288834856456,3.268213417661231
0.0337889666590209,3.1515425497217837,0.5989110176622578,3.0724890895618255
0.06530439215623873,3.256851222516891,0.6296359085578761,2.875117700655374
0.09787290438140764,3.3564705665445134,0.6583870855644298,2.6765052666874007
0.13143761004685278,3.4503751529008584,0.6851521382313038,2.4771173328052853
0.16594136157586137,3.5385642312891217,0.7099233115593567,2.2774892712176262
0.20132700388875258,3.6210450629198423,0.732698204271533,2.0782358032619217
0.237537454517951,3.6978154421868257,0.7534805623041522,1.880060598127766
0.27451560893981924,3.768845233475105,0.7722811682854298,1.683766515992594
0.3122040612745703,3.8340570032183705,0.7891188334453557,1.4902666862977956
