th1 (rad),w1 (rad/s),th2 (rad),w2 (rad/s),a1 (rad/s^2),a2 (rad/s^2)
3.2882256321071535,0.9505299238731688,5.37176910906749,-2.7095833291706524,7.204396112597992,10.492612619365422
3.2977309313458854,1.0225738849991488,5.344673275775783,-2.6046572029769983,6.857924519235853,10.119493179874643
3.307956670195877,1.0911531301915074,5.318626703746013,-2.5034622711782517,6.536152896868706,9.75959899754582
3.318868201497792,1.1565146591601945,5.29359208103423,-2.4058662812027936,6.239258064977997,9.413211992066534
3.330433348089394,1.2189072398099745,5.269533418222203,-2.311734161282128,5.967113029797352,9.080190883840338
3.3426224204874937,1.278578370107948,5.246416076609381,-2.2209322524437245,5.719371018071806,8.760061483732466
3.3554082041885733,1.3357720802886661,5.2242067540849435,-2.1333316376063998,5.495533552276802,8.452090514188443
3.36876592499146,1.3907274158114342,5.202873437708879,-2.0488107324645153,5.295004931077033,8.155345195979939
3.3826731991495746,1.4436774651222046,5.182385330384234,-1.967257280504716,5.117135329531974,7.868740735523101
3.397109973800797,1.4948488184175244,5.162712757579187,-1.8885698731494849,4.961254516802288,7.591077664224103
3.412058461984972,1.5444613635855473,5.143827058847692,-1.8126590965072438,4.82669794592975,7.321070758451071
3.4275030756208276,1.592728343044845,5.12570046788262,-1.739448388922733,4.71282672661935,7.0573710356136425
3.443430359051276,1.6398566103110384,5.108305983993392,-1.6688746785665967,4.619042763124107,6.798582096299816
3.4598289251543863,1.6860470379422794,5.091617237207727,-1.6008888576035984,4.54480013329731,6.543271874560828
3.476689395533809,1.7314950392752524,5.0756083486316905,-1.5354561388579901,4.489613604803726,6.289980673190051
3.4940043459265615,1.7763911753232897,5.060253787243111,-1.4725563321260897,4.453065030510672,6.037226199917362
3.5117682576797944,1.8209218256283963,5.04552822392185,-1.4121840701269162,4.434808235532876,5.783506183662035
3.5299774759360782,1.8652699079837252,5.031406383220581,-1.3543490082902958,4.434572900577739,5.527299036253895
3.5486301750159157,1.9096156369895025,5.0178628931376785,-1.299076017927757,4.45216785688034,5.26706293298391
3.5677263313858107,1.954137315558306,5.004872132958401,-1.2464053885979178,4.487484133589644,5.001233613850686
3.587267704541394,1.9990121568942023,4.992408079072423,-1.196393052459411,4.5404980352159345,4.728221155914109
3.607257826110336,2.0444171372463615,4.980444148547829,-1.14911084090027,4.611274470651015,4.446405936213328
3.6277019974827995,2.0905298819528717,4.9689530401388255,-1.1046467815381367,4.69997070184503,4.154133996086723
3.648607296302328,2.137529588971322,4.957906572323444,-1.0631054415772694,4.806840624204345,3.8497120351506546
3.6699825921920413,2.1855979952133655,4.947275517907672,-1.0246083212257628,4.93223962563483,3.531402312910132
3.691838572144175,2.2349203914697138,4.937029434695414,-0.9892942980966615,5.076629988396233,3.197417827762523
3.714187776058872,2.285686691353676,4.927136491714447,-0.9573201198190362,5.240586686090908,2.845918291681568
3.737044642972409,2.3380925582145853,4.917563290516257,-0.9288609369022205,5.424803271333325,2.47500764565049
3.760425568554555,2.3923405909279185,4.908274681147234,-0.9041108604457155,5.630097325701063,2.0827341971017392
3.784348974463834,2.4486415641849293,4.899233572542777,-0.8832835184746981,5.857414621026177,1.6670949509117894
3.8088353901056835,2.507215710395191,4.89040073735803,-0.8666125689655803,6.107830675427058,1.2260464135576559
3.8339075472096353,2.5682940171494617,4.881734611668374,-0.8543521048300037,6.382547715758884,0.7575251658785199
3.85959048738113,2.6321194943070507,4.873191090620074,-0.8467768531712184,6.682884091915794,0.25948294958465506
3.8859116823242004,2.6989483352262087,4.864723322088362,-0.8441820236753719,7.0102518046751126,-0.27005692943864024
3.9129011656764625,2.76905085327296,4.856281501851608,-0.8468825929697583,7.366115839520934,-0.8329121753532955
3.940591674209192,2.8427120116681692,4.847812675921911,-0.8552117147232913,7.751926220798155,-1.4306092895494038
3.9690187943258737,2.920231273876151,4.8392605587746775,-0.8695178076187853,8.169009829811985,-2.064187200082719
3.9982211070646354,3.001921372174271,4.83056538069849,-0.8901596796196125,8.618403733947279,-2.733909759443942
4.028240320786378,3.0881054095137435,4.821663783902293,-0.9174987772140519,9.100604720428517,-3.4388501082926917
4.059121374881515,3.1791114567180285,4.812488796130153,-0.9518872782969788,9.615200728114074,-4.176297252127793
4.090912489448695,3.275263463999169,4.802969923347184,-0.9936502508182568,10.160339191335627,-4.940920425679895
4.123665124088687,3.3768668559125254,4.793033420839001,-1.0430594550750558,10.731976325462991,-5.7236120707952365
4.157433792647812,3.4841866191671556,4.782602826288251,-1.1002955757830082,11.322843802798799,-6.509921090612445
4.192275658839484,3.5974150571951435,4.771599870530421,-1.1653947866891325,11.921073255922321,-7.277996495799448
4.228249809411436,3.716625789754367,4.75994592266353,-1.238174751647127,12.50845047482653,-7.996010751062903
4.265416067308979,3.841710294502632,4.747564175147058,-1.3181348591577562,13.05835753996476,-8.619161818466957
4.303833170254006,3.9722938699022796,4.734382826555481,-1.4043264773424258,13.533643652932147,-9.086622205387837
4.343556108953028,4.107630306431601,4.7203395617820565,-1.495192699396304,13.884991657697498,-9.319279895645515
4.3846324120173445,4.246480223008576,4.705387634788093,-1.5883854983527592,14.050838475608574,-9.219828721745264
4.42709721424743,4.386988607764662,4.689503779804566,-1.680583785570212,13.96047804374376,-8.677588236132069
4.470967100325077,4.5265933882021,4.672697941948864,-1.7673596679315327,13.542296326808398,-7.580889794513592
4.516233034207098,4.662016351470184,4.655024345269549,-1.8431685658766686,12.7384787944395,-5.838974866674324
4.5628531977218,4.789401139414579,4.636592659610782,-1.9015583145434118,11.525141248786426,-3.41188893823079
4.610747209115946,4.904652551902443,4.6175770764653485,-1.9356772039257197,9.932503469428028,-0.34058177200032347
4.65979373463497,5.003977586596724,4.598220304426091,-1.9390830216457229,8.05538099375208,3.236896499910802
4.709833510500937,5.084531396534245,4.578829474209634,-1.906714056646615,6.04422807142154,7.097383961466049
4.76067882446628,5.14497367724846,4.559762333643168,-1.8357402170319546,4.0746710471386764,10.976072525286625
4.812128561238764,5.185720387719847,4.541404931472849,-1.7259794917790883,2.3059625858047554,14.626733977541887
4.863985765115963,5.208780013577895,4.524145136555058,-1.5797121520036694,0.8463819002888381,17.8727930710523
4.916073565251742,5.217243832580784,4.508348015035021,-1.4009842212931465,-0.26087182220360183,20.629386362865567
4.96824600357755,5.214635114358748,4.49433817282209,-1.1946903576644907,-1.0303598041579747,22.894471638368767
5.020392354721138,5.204331516317168,4.482391269245445,-0.965745641280803,-1.5148396296843527,24.72172388497156
5.072435669884309,5.189183120020325,4.4727338128326375,-0.7185284024310874,-1.7843528954759305,26.190757262487754
5.124327501084513,5.171339591065566,4.465548528808327,-0.4566208298062099,-1.9105769560315131,27.38434927759353
5.176040896995168,5.152233821505251,4.460982320510265,-0.1827773370302746,-1.95799751569256,28.375192288904696
5.227563235210221,5.132653846348326,4.4591545471399625,0.10097458585877239,-1.98051998457018,29.220440377031785
5.278889773673704,5.112848646502624,4.4601642929985506,0.39317898962909026,-2.021372939968862,29.961129864464652
5.33001826013873,5.092634917102936,4.464096082894842,0.6927902882737368,-2.1145349642946827,30.62401193067235
5.3809446093097595,5.071489567459989,4.471023985777579,0.9990304075804604,-2.2865761848819486,31.224231454989205
5.431659504984359,5.04862380561117,4.481014289853384,1.3112727221303524,-2.5583508787421465,31.76804295035964
5.482145743040471,5.023040296823749,4.494127017074687,1.6289531516339488,-2.94632162624436,32.25523759642602
5.532376146008708,4.993577080561305,4.510416548591027,1.9515055275982092,-3.4634779075703293,32.681211704987476
5.582311916814321,4.958942301485602,4.529931603867009,2.2783176446480837,-4.119894134515645,33.03871888275578
5.631901339829177,4.917743360140446,4.55271478031349,2.6087048334756417,-4.923001459905766,33.31938141761165
5.681078773430582,4.8685133455413885,4.578801828648246,2.941898647651758,-5.877653247290048,33.51503209459702
5.729763906885996,4.809736813068488,4.608220815124764,3.2770489685977284,-6.986060858028856,33.61893822164324
5.777861275016681,4.7398762044881995,4.640991304810742,3.613238350814161,-8.247671018237408,33.62693635426658
5.825260037061563,4.6573994943058254,4.677123688318884,3.9495077143568267,-9.659050489708076,33.53848435926246
5.871834032004621,4.560808989408745,4.716618765462452,4.284892557949451,-11.213837850900788,33.35761950961479
5.917442121898708,4.448670610899737,4.759467691041946,4.618468753045599,-12.90281465693332,33.09379839992221
5.961928828007705,4.319642464330403,4.805652378572402,4.949406737044821,-14.714137493478166,32.76258700491085
6.005125252651009,4.172501089395622,4.85514644594285,5.27703260709393,-16.63375679987297,32.386166783825125
6.0468502635449655,4.006163521396893,4.907916772013789,5.600894274932181,-18.64602608909387,31.993623746799862
6.086911898758935,3.819703260505954,4.963925714763111,5.92083051240018,-20.734474252555863,31.620988162662783
6.125108931363994,3.6123585179803954,5.023134019887112,6.237040394026807,-22.882670730130194,31.310985951145685
6.161232516543798,3.3835318106790933,5.0855044238273805,6.550150253538264,-25.075052253150865,31.112435803403073
6.1950678346505885,3.1327812881475845,5.151005926362763,6.861274611572294,-27.297488252408836,31.079155842704328
6.2263956475320645,2.859806405623496,5.219618672478486,7.172066169999337,-29.53721552162628,31.268090107078564
6.254993711588299,2.564434250407233,5.291339334178479,7.484747071070123,-31.781525345378984,31.73605831582715
6.280638054092371,2.246618996953443,5.366186804889181,7.8021076542283945,-34.014155639359686,32.533951765975694
6.303104244061906,1.9064774405598461,5.444207881431465,8.127447171888152,-36.207590411492355,33.696145981259036
6.322169018467505,1.5444015364449226,5.5254823531503465,8.464408631700742,-38.308207078886475,35.22109151297784
6.337613033831953,1.161319465656058,5.610126439467354,8.81661954683052,-40.20928168889978,37.036212340688884
6.349226228488514,0.7592266487670601,5.698292634935659,9.186981670237408,-41.70457714382334,38.936710618444955
6.356818494976185,0.3421808773288267,5.790162451638033,9.576348776421858,-42.41486901093051,40.486562805578295
6.360240303749474,-0.08196781278047843,5.885925939402251,9.98121440447764,-41.68945757504608,40.88181098509664
6.359420625621669,-0.4988623885309392,5.9857380834470275,10.390032514328606,-38.52525276333286,38.82963605553359
6.35443200173636,-0.8841149161642679,6.0896384085903135,10.778328874883941,-31.647788761383566,32.63426143820655
6.345590852574717,-1.2005928037781035,6.197421697339153,11.104671489266007,-20.031027777547624,20.863795411703087
6.333584924536936,-1.4009030815535797,6.308468412231813,11.313309443383037,-4.000841075403338,3.8011178779594355
6.3195758937214,-1.440911492307613,6.421601506665643,11.351320622162632,13.822458823342076,-15.31419300791998
6.305166778798324,-1.3026869040741922,6.535114712887269,11.198178692083433,29.379918823135775,-31.43625325683589
6.292139909757583,-1.0088877158428344,6.647096499808104,10.883816159515074,39.79041661791797,-41.151833370720325
6.2820510325991545,-0.6109835496636546,6.755934661403255,10.472297825807871,44.851043988254965,-44.54122629773583
6.275941197102518,-0.16247310978110496,6.8606576396613335,10.026885562830513,46.0722279228388,-43.78265345883546
6.274316466004707,0.298249169447283,6.960926495289638,9.589059028242158,45.12513566044542,-41.101085853014354
6.27729895769918,0.7495005260517373,7.05681708557206,9.178048169712014,43.15556898506013,-37.937006909487756
6.2847939629596965,1.1810562159023386,7.148597567269181,8.798678100617137,40.786963424245116,-35.01509852706165
6.2966045251187195,1.5889258501447898,7.236584348275352,8.44852711534652,38.31004751390076,-32.625033622127845
6.312493783620168,1.9720263252837975,7.321069619428817,8.122276779125242,35.84007603301499,-30.836465196824278
6.3322140468730055,2.3304270856139473,7.402292387220069,7.813912127156999,33.410221549461504,-29.620113241494646
6.355518317729145,2.6645293011085625,7.480431508491639,7.517710994742052,31.020182307202624,-28.90735142311856
6.382163610740231,2.9747311241805887,7.555608618439059,7.228637480510867,28.659769622237526,-28.617270422914824
6.411910921982037,3.261328820402964,7.627894993244168,6.942464776281718,26.319667666382124,-28.668181299715645
6.444524210186067,3.524525497066785,7.6973196410069855,6.655782963284562,23.99582199035132,-28.98217466847524
6.479769465156735,3.7644837169702985,7.763877470639831,6.36596121659981,21.69068085310621,-29.48681946079186
6.517414302326437,3.9813905255013604,7.827537082805829,6.071093021991891,19.41287388947853,-30.11583476236722
6.557228207581451,4.175519264396145,7.888248013025748,5.769934674368219,17.176119777066177,-30.809492842469513
6.598983400225412,4.3472804621668075,7.945947359769431,5.461839745943524,14.997780281885468,-31.515009723596872
6.642456204847081,4.497258264985662,8.000565757228866,5.1466896487075555,12.897302146957866,-32.186954564180496
6.687428787496938,4.626231286455241,8.052032653715942,4.8248201030657505,10.894702347991357,-32.78761893999927
6.73369110036149,4.735178309935154,8.1002808547466,4.496943913665758,9.00920444540641,-33.28726396898981
6.781042883460842,4.825270354389218,8.145250293883258,4.16407127397586,7.258100439041635,-33.664173509322026
6.829295587004734,4.897851358779635,8.186891006623016,3.8274295388826394,5.655883984883918,-33.90446748566999
6.87827410059253,4.954410198628474,8.225165302011842,3.4883848640259396,4.213674178956396,-34.0016603226427
6.927818202578814,4.996546940418038,8.260049150652101,3.1483682607995127,2.938924546503077,-33.95597891376811
6.977783671982995,5.025936185883069,8.291532833260096,2.808808471661832,1.8353906633710535,-33.77347833360558
7.028043033841826,5.044290092516779,8.319620917976714,2.471073688325776,0.9033132510159948,-33.465009167501364
7.078485934766993,5.053323225026939,8.344331654859971,2.1364235966507623,0.13976236260435956,-33.04509688128166
7.129019167017263,5.054720848652983,8.365695890826478,1.8059726278379458,-0.4609175903018504,-32.53079124933898
7.179566375503793,5.050111672749964,8.383755617104857,1.480664715344556,-0.9066234786148151,-31.940533545539495
7.230067492231292,5.041045437963816,8.398562264258302,1.161259379889161,-1.2070292726798462,-31.29307253551884
7.28047794661093,5.028975145237017,8.410174858057195,0.8483286545339727,-1.373198038183696,-30.606438989650098
7.3307676980633,5.01524316485518,8.418658144602535,0.5422642646374717,-1.417323000003114,-29.896963980529794
7.3809201297118525,5.001069934855149,8.42408078724891,0.24329462483217373,-1.3526495975006878,-29.17829981691983
7.430930829060404,4.9875434388801425,8.42651373349723,-0.04848837333702455,-1.193632876837521,-28.460375102154025
7.480806263449206,4.975607110111767,8.42602884976386,-0.3330921243585648,-0.9563904829638031,-27.748188640297766
7.530562334550323,4.966043205282129,8.422697928520273,-0.6105740107615425,-0.6595187418959507,-27.04032453661782
7.5802227666031445,4.95944801786317,8.416592188412658,-0.8809772561277207,-0.3253411534309968,-26.327062213809054
7.629817246781776,4.95619460632886,8.407782415851381,-1.1442478782658112,0.01836023563646926,-25.587981067448148
7.679379192845065,4.956378208685225,8.396339937068722,-1.4001276889402927,0.33614996601793995,-24.789061803596294
7.728942974931917,4.959739708345404,8.38233866017932,-1.6480183069762557,0.582474468386683,-23.879538969943326
7.778540372015372,4.965564453029271,8.365858477109557,-1.886813696675689,0.6994797313782757,-22.7892722506618
7.8281960165456645,4.972559250343053,8.3469903401428,-2.114706419182307,0.6162915963223254,-21.428294463293568
7.877921609049095,4.978722166306277,8.325843275950977,-2.328989363815243,0.2518377437626682,-19.691457741872952
7.927708830712158,4.981240543743903,8.302553382312825,-2.525903941233972,-0.47584239805469375,-17.47230090527328
7.977521236149597,4.9764821197633555,8.277294342900484,-2.700626950286705,-1.6309647883557137,-14.690055499715863
8.027286057347231,4.960172471879798,8.250288073397618,-2.8475275052838636,-3.2320126319395945,-11.329676887626565
8.076887782066029,4.927852345560402,8.221812798344779,-2.9608242741601294,-5.221283995263631,-7.484937756188049
8.126166305521632,4.875639505607766,8.192204555603178,-3.0356736517220098,-7.447958750963884,-3.3817760301664506
8.17492270057771,4.8011599180981275,8.161847819085958,-3.0694914120236745,-9.683661439048999,0.6449890873603433
8.222934299758691,4.704323303707637,8.131152904965722,-3.0630415211500712,-11.676352341486046,4.229572590520345
8.269977532795767,4.587559780292777,8.100522489754221,-3.020745795244868,-13.222092141387785,7.078295461381542
8.315853130598695,4.455338858878899,8.070315031801773,-2.9499628406310525,-14.217485062764233,9.044598415504456
8.360406519187483,4.313164008251257,8.040815403395461,-2.859516856476008,-14.667995504656135,10.140594402656555
8.403538159269996,4.166484053204695,8.012220234830702,-2.7581109124494425,-14.657729314201646,10.493217679191028
8.445202999802042,4.019906760062679,7.984639125706207,-2.6531787356575323,-14.305656341721976,10.280776621300324
8.485402067402669,3.8768501966454596,7.958107338349632,-2.550370969444529,-13.730100395892066,9.681280339732663
8.524170569369124,3.739549192686539,7.932603628655187,-2.4535581660472023,-13.029441635325812,8.84407215368196
8.56156606129599,3.6092547763332807,7.908068046994715,-2.365117444510383,-12.276456782760755,7.881191871630593
8.597658609059323,3.486490208505673,7.884416872549611,-2.2863055257940768,-11.520423789098928,6.870080856927673
8.63252351114438,3.3712859706146836,7.861553817291671,-2.2176047172248,-10.792168120559614,5.860686445773115
8.666236370850527,3.2633642894090875,7.839377770119422,-2.158997852767069,-10.1093246516364,4.8830023592350384
8.698870013744617,3.1622710428927236,7.817787791591751,-2.1101678291747183,-9.480700063982653,3.9533930552051357
8.730492724173544,3.067464042252897,7.796686113300004,-2.070633898622667,-8.909503447569104,3.0793290709001298
8.761167364596073,2.978369007777206,7.775979774313778,-2.0398406079136655,-8.395582431455018,2.2627048856566097
8.790951054673846,2.8944131834626554,7.755581368234641,-2.017213559057099,-7.936901565160969,1.5020646802483277
8.819895186508472,2.815044167811046,7.73540923264407,-2.002192912254616,-7.530485618735635,0.7940487353792923
8.848045628186583,2.7397393116236897,7.715387303521524,-1.9942524249008229,-7.173002252333345,0.13430852731309217
8.87544302130282,2.668009289100356,7.695444779272516,-1.992909339627692,-6.86110922068124,-0.4819297080115737
8.902123114193824,2.5993981968935436,7.675515685876239,-1.9977286367078078,-6.591651521030048,-1.0595290518949911
8.92811709616276,2.5334816816832433,7.655538399509161,-2.0083239272267575,-6.361764946993857,-1.603250809931971
8.953451912979592,2.4698640322133047,7.635455160236893,-2.024356435326077,-6.168922560257469,-2.1176539721923864
8.978150553301726,2.40817480661073,7.615211595883633,-2.0455329750480007,-6.010947278309268,-2.6070501181174714
9.002232301367833,2.348065333827637,7.594756266133152,-2.0716034762291753,-5.886005065664586,-3.0754912642263346
9.02571295470611,2.2892052831709915,7.57404023137086,-2.1023583888714388,-5.792587585283533,-3.526776320549272
9.04860500753782,2.2312794073181563,7.553016647482146,-2.1376261520769315,-5.729489549848494,-3.9644670471703582
9.070917801611001,2.1739845118196715,7.531640385961376,-2.177270822548635,-5.6957836899742915,-4.39190769818426
