th1 (rad),w1 (rad/s),th2 (rad),w2 (rad/s)
3.786572653916419,-2.3670640658330577,5.641075558129983,-0.6570041008261419
3.7629020132580884,-2.302875613135313,5.634505517121721,-0.6341359664388385
3.7398732571267352,-2.239876882431333,5.628164157457333,-0.6069158591016347
3.7174744883024218,-2.1780392245320823,5.622094998866317,-0.575574667674139
3.695694096057101,-2.1173323880825263,5.616339252189576,-0.5403334925670574
3.6745207721762756,-2.0577236964462293,5.610935917263905,-0.5014035202773179
3.6539435352118135,-1.9991773880935844,5.605921882061132,-0.4589859178440657
3.6339517613308776,-1.9416541011544146,5.6013320228826915,-0.41327175735950405
3.6145352203193335,-1.8851104844837454,5.597199305309096,-0.36444197717993665
3.595684115474496,-1.8294989192227966,5.593554885537297,-0.31266738379685877
3.577389126282268,-1.7747673364375571,5.5904282116993285,-0.25810869633682215
3.559641452917892,-1.7208591179964907,5.58784712473596,-0.20091663426309148
3.542432861737927,-1.667713069412455,5.58583795839333,-0.14123204796268096
3.5257557310438026,-1.615263454923741,5.584425637913703,-0.0791860914399072
3.509603096494565,-1.56344008662575,5.583633776999304,-0.014900436232478428
3.4939686956283076,-1.5121684609884911,5.583484772636979,0.05151247414194664
3.4788470110184226,-1.4613699376067533,5.583999897378399,0.11994912946341514
3.464233311642355,-1.4109619565313605,5.585199388673033,0.19031461742694833
3.4501236920770415,-1.3608582920241972,5.587102534847302,0.2625222464101685
3.4365151091567996,-1.3109693420701516,5.589727757311404,0.3364931242627105
3.4234054157360982,-1.261202454469204,5.593092688554031,0.41215568994105034
3.4107933911914063,-1.2114622918241573,5.597214245453442,0.48944519367941114
3.398678768273165,-1.1616512392344638,5.602108697390236,0.5683031201914521
3.3870622558808203,-1.11166986000127,5.60779172859215,0.6486765481617134
3.3759455572808075,-1.0614174061348565,5.614278494073767,0.7305174380368737
3.365331383219459,-1.0107923919173283,5.621583668454136,0.8137818388975677
3.355223459300286,-0.9596932401848284,5.629721486843112,0.8984290040239163
3.3456265268984375,-0.9080190123156984,5.63870577688335,0.9844204037171441
3.3365463367752803,-0.8556702340882016,5.648549980920522,1.0717186230777305
3.3279896344343984,-0.8025498305273415,5.659267167151299,1.160286131860915
3.319964136129125,-0.7485641834937409,5.670870028469908,1.2500839133524289
3.3124784942941874,-0.6936243259480337,5.683370867603433,1.341069939580933
3.3055422510347072,-0.6376472863880274,5.696781566999242,1.4331974812931045
3.299165778170827,-0.5805575957029133,5.711113541812173,1.5264132431840465
3.2933602022137975,-0.5222889663812822,5.726377674244014,1.6206553181585854
3.288137312549985,-0.4627861503741241,5.7425842274256,1.7158509591910567
3.2835094510462435,-0.4020069766476793,5.75974273701751,1.8119141739704117
3.2794893812797667,-0.3399245622456256,5.777861878757214,1.9087431562902004
3.2760901356573107,-0.2765296812044493,5.796949310320116,2.006217579376238
3.2733248388452663,-0.21183326366065885,5.817011486113878,2.104195790285681
3.2712065062086597,-0.1458689827754403,5.838053444016735,2.202511961290604
3.2697478163809053,-0.07869586965922284,5.860078563629641,2.3009732737178483
3.268960857684313,-0.010400876520370111,5.88308829636682,2.3993572317159266
3.2688568489191097,0.058898713665087546,5.907081868683979,2.4974092271377812
3.2694458360557603,0.12905315558543112,5.932055960955356,2.5948405009563005
3.270736367611615,0.19987853516286871,5.95800436596492,2.691326669578206
3.2727351529632434,0.27115565511909434,5.984917632660702,2.7865070036651423
3.2754467095144344,0.34262969394967724,6.012782702697353,2.8799846595572096
3.278873006453931,0.41401082581908943,6.041582549292925,2.971328065563261
3.283013114712122,0.48497598303753636,6.071295829948557,3.060073653420988
3.287862874542497,0.5551719215349866,6.101896566482767,3.145730095496112
3.293414593757847,0.6242197102211854,6.133353867437728,3.2277841579064623
3.299656790860059,0.691720705630697,6.165631709016793,3.305708207338718
3.3065739979163657,0.7572639940259634,6.198688791090181,3.378969315756699
3.3141466378566253,0.8204351869521175,6.232478484247748,3.4470397963130965
3.3223509897261465,0.8808263488693475,6.266948882210879,3.5094088827507894
3.33115925321484,0.9380467256996892,6.302042971038387,3.5655951438563904
3.340539720471837,0.991733842150915,6.33769892247695,3.6151591170803377
3.350457058893346,1.041564456062962,6.373850513647754,3.657715565341941
3.360872703453976,1.0872648118921537,6.410427669301173,3.692944721455761
3.3717453515728977,1.128619632482703,6.447357116515731,3.720601895478818
3.383031547897725,1.1654793337193967,6.484563135470519,3.740524886131118
3.3946863412349186,1.1977650398639876,6.52196838433183,3.752638755965045
3.4066639916335584,1.2254711112828276,6.5594947718914804,3.756957691609584
3.4189187027463865,1.2486650580203993,6.597064348807576,3.75358385941016
3.4314053533265905,1.2674848853875518,6.634600187401678,3.742703363324847
3.444080202180466,1.2821340830912953,6.672027221034926,3.7245795952519134
3.456901543011379,1.292874610506454,6.709273016987446,3.6995444195313456
3.4698302891164436,1.300018334452891,6.746268461182759,3.667987739627237
3.4828304724609724,1.3039174348432536,6.782948338579032,3.6303460490311483
3.495869646809405,1.3049543064857219,6.8192517990693435,3.5870905702958793
3.508919189874262,1.3035314564358467,6.8551227047723025,3.53871554201312
3.5219545044386207,1.3000618340674719,6.8905098601924335,3.485727134066626
3.5349551227792952,1.2949599463228065,6.9253671315331,3.428633369424542
3.5479047222425235,1.2886340147653863,6.959653465227345,3.367935319005221
3.5607910623901775,1.2814793344166668,6.9933328184173975,3.304119726139125
3.573605855734344,1.273872905140243,7.026374015678789,3.237653117628628
3.5863445847857465,1.266169330197932,7.058750546855075,3.1689773751192836
3.599006278087726,1.2586979165960792,7.090440320606268,3.0985066762522995
3.611593257253687,1.2517608687675896,7.121425387368791,3.0266256702139613
3.6241108659413626,1.245632440066349,7.15169164407093,2.95368872535696
3.636567190342026,1.2405588934148006,7.1812285313245,2.880020074918235
3.648972779276174,1.236759120571466,7.210028732073682,2.805914687330961
3.6613403704818888,1.2344257760418251,7.238087878946992,2.731639696984893
3.673684628242307,1.2337267939664658,7.265404275916841,2.6574362465421633
3.6860218961819715,1.234807172056464,7.291978638382262,2.5835216105190355
3.6983699679025364,1.2377909239202847,7.3178138544874525,2.510091489773218
3.7107478771417393,1.2427831185096225,7.342914769385184,2.437322386287188
3.7231757083268353,1.2498719418987745,7.367287993248056,2.3653739861774716
3.735674427745823,1.2591307315622735,7.390941733109831,2.294391495549709
3.748265735061446,1.2706199463790366,7.413885648065328,2.2245078883317113
3.7609719345252364,1.2843890466382153,7.436130726948646,2.1558460374528154
3.7738158249916185,1.30047826737718,7.457689187323174,2.0885207107567316
3.78682060766539,1.3189202755712095,7.4785743944307415,2.0226404209949767
3.800009810421102,1.3397417072009787,7.4988007986406915,1.9583091253608738
3.8134072274931117,1.3629645842572993,7.5183838898943005,1.8956277745222279
3.8270368733356848,1.3886076145156405,7.537340167639523,1.8346957142236238
3.840922949480841,1.416687378627122,7.555687124781759,1.7756119444684475
3.8550898232671122,1.4472194099088762,7.573443244226444,1.7184762422413618
3.869562017366201,1.4802191723308473,7.590628006648857,1.6633901538485152
3.8843642090895094,1.515702941717578,7.6072619081873425,1.6104578623580217
3.899521238506685,1.5536885942157395,7.623366486810923,1.5597869344094142
3.9150581244488425,1.5941963047003416,7.638964356155017,1.511488948891901
3.9310000874958457,1.6372491560626001,7.654079245643936,1.4656800077065075
3.9473725790564718,1.6828736582799693,7.668736045721001,1.42248112604472
3.9642013156392713,1.7311001738388183,7.682960856981448,1.3820184963374562
3.9815123173776596,1.78196324347667,7.696781041944822,1.3444236162425498
3.9993319498124262,1.8355018033411563,7.710225278107248,1.3098332667294577
4.017686967845838,1.8917592815320967,7.723323610774543,1.2783893214695616
4.036604560661159,1.9507835586098152,7.736107503989238,1.2502383633398682
4.056112396247257,2.0126267730347935,7.748609887622637,1.225531077904751
4.0762386639776045,2.0773449486854,7.760865198401684,1.2044213872907685
4.097012113464459,2.1449974176411275,7.772909412274592,1.1870652809919946
4.11846208764087,2.215646007412568,7.784780065084512,1.1736192929752158
4.140618547714995,2.2893539578857975,7.796516258014264,1.1642385672115971
4.163512087293853,2.3661845296245723,7.8081586436863795,1.1590744467599354
4.187173932590099,2.4461992621040856,7.819749388153979,1.1582715152057779
4.21163592521114,2.5294558382796377,7.831332103306037,1.161964014206371
4.2369304835939365,2.6160055110536993,7.842951743448101,1.170271557856426
4.263090538704474,2.705890048215821,7.854654459026665,1.183294064507256
4.290149439186632,2.799138155894505,7.866487399671737,1.2011058306574418
4.318140820745578,2.8957613471459474,7.878498457978311,1.2237486808680584
4.347098434217037,2.9957492327099553,7.890735944786991,1.2512241437451537
4.377055926544137,3.0990642258668135,7.903248186224443,1.2834846283331716
4.408046568802805,3.2056356733190667,7.916083032507775,1.3204236091735455
4.440102925535996,3.315353449513258,7.92928726859951,1.3618648729966483
4.473256460031128,3.4280610829557765,7.942905917329477,1.4075509363468888
4.5075370708606854,3.543548519659729,7.956981426692946,1.4571308116358754
4.542972556057283,3.6615446702742163,7.971552734809304,1.5101473786809954
4.579588002760024,3.781709932674231,7.986654208596114,1.5660247083568906
4.617405102086766,3.903628929485028,8.002314455679683,1.6240557823162867
4.656441391381617,4.0268037486974775,8.018555013502846,1.6833911547920681
4.6967094288685916,4.150648023868052,8.035388925050766,1.74302920570778
4.738215909107272,4.274482237557195,8.052819217107844,1.8018087349558574
4.780960731482844,4.397530677640479,8.070837304457402,1.8584047421935967
4.824936038259249,4.518920521911448,8.089421351879338,1.9113283216562766
4.8701252434783635,4.637683573733507,8.1085346350959,1.9589316741677072
4.916502079215698,4.752761222079105,8.128123951837576,1.9994192946263984
4.964029691436489,4.863013253093468,8.14811814478384,2.0308664255504936
5.012659823967424,4.967231193021838,8.168426809039346,2.0512458622202527
5.062332135897643,5.0641569019569035,8.18893926766155,2.0584641285454848
5.112973704917212,5.152507141063002,8.209523908947004,2.0504078764319553
5.164498776327842,5.231004765117121,8.230027987711324,2.0250010396282465
5.216808823979013,5.298416995083914,8.250277998107606,1.9802727254092147
5.269792993929853,5.3536008394900545,8.270080725361698,1.9144349785578454
5.323329002324753,5.395555097875855,8.289225075147277,1.8259683426072215
5.377284553303512,5.423477457376136,8.307484758573349,1.7137115641994352
5.4315193278772735,5.4368240017442275,8.324621874215342,1.5769499237616542
5.485887567894716,5.435367097375858,8.34039137345296,1.4154947553344817
5.540241238868474,5.4192463251693175,8.354546321006305,1.2297451301169309
5.594433702120168,5.389006226387299,8.366843772307474,1.0207219507868674
5.648323764384041,5.345614524697514,8.377050991815343,0.7900654034548509
5.701779909631016,5.290455529352434,8.384951645849892,0.5399892633186301
5.754684464924541,5.225295772984843,8.390351538483078,0.27319000038679714
5.806937422654389,5.1522224097982825,8.393083438486945,-0.007285516692081162
5.858459646752372,5.073558920276255,8.393010583320024,-0.29820373967367
5.909195235955135,4.991766364005416,8.390028545923286,-0.5963245188948789
5.959112899595189,4.909340873766438,8.384065300734337,-0.8985798355488235
6.008206308332853,4.828718647140332,8.37507950237885,-1.2022340664288709
6.056493494804256,4.75219824289215,8.363057161714561,-1.5050123666666604
6.104015477233178,4.681886974107024,8.348007038047895,-1.8051896255653517
6.150834346974248,4.619674448214238,8.32995514179224,-2.1016390191775702
6.197031091456391,4.56723276001811,8.308938751600465,-2.39384500470987
6.242703419056572,4.526040211750768,8.285000301553366,-2.6818896876144316
6.28796382117408,4.497424055405715,8.258181404677222,-2.9664235055306096
6.332938061728138,4.482617597672591,8.228517169621917,-3.2486313569577887
6.377764237704864,4.482827792228296,8.196030856052339,-3.5302042400203972
6.422592515627147,4.4993107747573875,8.160728813652135,-3.813324807653121
6.467585623374721,4.533454274754404,8.122595565575603,-4.100673486383549
6.5129201661222655,4.586867080309259,8.081588830711768,-4.3954601370228445
6.558788836925358,4.6614762716683025,8.03763422934154,-4.7014843929872425
6.605403599642041,4.759631968316993,7.990619385411668,-5.023224793845503
6.652999919325211,4.884215134810742,7.940387137473213,-5.365950218622107
6.701842070673318,5.038732713599035,7.8867276352869915,-5.735831476797239
6.752229397809308,5.227357372372073,7.829369320519019,-6.139994155355599
6.8045029715330285,5.454807456236984,7.767969378965463,-6.586369415795578
6.859051046095399,5.725826008002722,7.702105684807508,-7.083011067392107
6.9163093061754255,6.043728332560488,7.631275574133587,-7.636146048517478
6.9767465895010305,6.40693408417663,7.554914113648413,-8.245453805269227
7.040815930342797,6.801606193714028,7.47245957559572,-8.893955717094615
7.108831992279937,7.188530597629175,7.383520018424774,-9.52988789010657
7.180717298256228,7.4877883965386305,7.288221139523708,-10.045446311603095
7.255595182221614,7.5837895972700355,7.187766676407677,-10.283781175143812
7.331433078194315,7.389038150713874,7.08492886465624,-10.12754098228311
7.405323459701453,6.935038819428977,6.983653454833409,-9.624458047502548
7.474673847895743,6.354583168637144,6.887408874358383,-8.96117030506011
7.538219679582115,5.767806552412611,6.797797171307781,-8.304634698673997
7.595897745106241,5.2306422329890205,6.714750824321041,-7.731920983116848
7.6482041674361305,4.754874344707824,6.637431614489873,-7.2591274289989185
7.695752910883209,4.334566000387607,6.564840340199884,-6.878299948580979
7.7390985708870845,3.9593380313460687,6.496057340714074,-6.575755478037444
7.778691951200545,3.6191039767750826,6.4302997859337,-6.338513478998356
7.814882990968296,3.3053066817830263,6.366914651143716,-6.155909730967986
7.847936057786126,3.0109837518834435,6.305355553834036,-6.01961791867021
7.87804589530496,2.730519343690228,6.245159374647334,-5.923253795650855
7.905351088741862,2.4593633561912247,6.185926836690825,-5.861939775886326
7.929944722303775,2.193796999090079,6.127307438931962,-5.831931034122466
7.951882692294675,1.930758000801993,6.068988128590737,-5.830315354491828
7.971190272302695,1.6677199311631221,6.010684975045819,-5.854774241092817
7.987867471614326,1.4026166184516682,5.9521372326348905,-5.903388854286584
8.001893637798842,1.1338035213923565,5.893103344092024,-5.974476495533172
8.013231673012765,0.8600494865545679,5.833358579136693,-6.066446931303925
8.02183216787831,0.5805533693975811,5.772694109823654,-6.177671536372417
8.027637701572287,0.294980141104102,5.71091739445993,-6.306361883227132
8.030587502983328,0.003510245868125983,5.647853775627659,-6.4504581392742715
8.03062260544201,-0.29310583194326956,5.583349194234916,-6.607531551886745
8.027691547122577,-0.5934983480259945,5.517273878716049,-6.774709276857907
8.021756563642317,-0.8956476955871222,5.449526785947469,-6.948633354525081
8.012800086686445,-1.1968877151747792,5.380040452402219,-7.12546784043209
8.000831209534697,-1.4939583111600478,5.308785773997898,-7.300967658784115
7.985891626423096,-1.7831195674498022,5.235776097410057,-7.47061830323677
7.968060430748598,-2.060332048283679,5.1610699143776895,-7.629846246415067
7.947457110265761,-2.321496255258113,5.0847714519135385,-7.774286396325754
7.92424214771318,-2.5627301472614183,5.007028587950281,-7.900077740080113
7.898614846240566,-2.780650915801857,4.92802781054948,-8.004145947656408
7.870808337082547,-2.972620436870923,4.847986351072916,-8.084427277613507
7.841082132713837,-3.1369165611455028,4.767142078296781,-8.139995030686347
7.809712967102382,-3.2728051764145323,4.685742127989918,-8.171067547652136
7.776984915338237,-3.3805074212850874,4.6040314525133965,-8.178900441706368
7.743179841125386,-3.461076490882563,4.522242448096333,-8.16558793100318
7.70856907621656,-3.516213089139613,4.440586568786301,-8.133812136219825
7.673406945325164,-3.5480542876953445,4.359248447424103,-8.086582031597738
7.63792640244821,-3.558967525848415,4.278382627108126,-8.026996762117673
7.6023367271897255,-3.5513726854757457,4.19811265948695,-7.958055530799585
7.566823000334968,-3.527604468981676,4.1185321041789535,-7.8825229776210834
7.531546955645151,-3.4898178258574646,4.039706874402743,-7.802848318093294
7.496648777386577,-3.43993254723006,3.96167839122181,-7.721129900495466
7.462249451914277,-3.379609622709671,3.8844670922168554,-7.639114074199144
7.4284533556871795,-3.3102509274498515,3.808075951474864,-7.5582172901655715
7.395350846412681,-3.233014388612544,3.732493778573208,-7.479561968528366
7.363020702526556,-3.148838157270565,3.6576981588879245,-7.404018885886799
7.33153232095385,-3.058468905401817,3.5836579700290563,-7.332251026550877
7.300947631899832,-2.962490842402102,3.5103354597635477,-7.264755691195025
7.27132272347581,-2.8613532525930294,3.4376879028515974,-7.201903064082232
7.24270919094988,-2.7553952632510628,3.365668872210775,-7.143970429549581
7.21515523831737,-2.64486719141716,3.294229167915279,-7.091171876331939
7.188706566403198,-2.5299482401589346,3.22331744915196,-7.043683722638578
7.163407084001609,-2.4107605761836957,3.152880611925574,-7.0016661147515515
7.139299478239772,-2.287379968233211,3.082863950778058,-6.96528135991269
7.116425678557439,-2.159843236325787,3.0132111371789314,-6.934709596203988
7.094827246194181,-2.028152782109054,2.9438640412168917,-6.910162409599181
7.07454571837309,-1.8922784582271273,2.8747624171209,-6.891895002220708
7.055622933790819,-1.752157001055872,2.805843467098693,-6.880217509404629
7.03810136378026,-1.6076892031743313,2.7370412920046467,-6.875506064871376
7.022024471748517,-1.4587349432424401,2.668286231355933,-6.878214228525807
7.007437122316093,-1.3051061235405608,2.599504089070675,-6.888885423775126
6.994386061080687,-1.146557490743531,2.530615234832924,-6.90816708310337
6.982920486173251,-0.9827752357839774,2.4615335640018903,-6.93682727276476
6.973092733815411,-0.8133631888684556,2.392165291274243,-6.975774657571279
6.964959101926727,-0.6378263569097904,2.32240754469853,-7.026082765847113
6.958580838357629,-0.455551516325586,2.2521467170400586,-7.089019599304934
6.954025323194373,-0.2657846224714209,2.1812565210470094,-7.166083649539332
6.951367476969659,-0.06760502457108483,2.109595684551616,-7.259047217670596
6.950691426723948,0.1401029261593985,2.03700521237491,-7.37000734884226
6.952092455985541,0.3586789378681742,1.9633051388864873,-7.501443203707226
6.955679245364223,0.5897117220960993,1.888290706849415,-7.656275313924042
6.961576362585184,0.8350492091929586,1.8117279537101747,-7.837914939126646
6.969926854677114,1.096771737421238,1.7333488043189083,-8.050276743695548
6.9808945720513265,1.3770828131605315,1.6528460368819529,-8.297697600103088
6.994665400182932,1.6780272379207333,1.569869060880922,-8.584644164531227
7.011445672562139,2.000862597774714,1.4840226192356099,-8.914977406524319
7.031454298539885,2.3447649879519727,1.3948728451703667,-9.290340706568745
7.054901948419405,2.704342141367704,1.3019694381046794,-9.706942889959597
7.0819453698330825,3.065290957176398,1.2049000092050834,-10.149794051439304
7.112598279404846,3.3980779086300568,1.1034020686906905,-10.584142857898364
7.146579058491147,3.652319111424143,0.9975606401117069,-10.947632695480403
7.183102249605389,3.7610000473461795,0.8880843131569028,-11.155515136053936
7.220712250078851,3.6671222242471746,0.7765291617963634,-11.136004911608133
