th1 (rad),w1 (rad/s),th2 (rad),w2 (rad/s)
3.475069776970509,1.3889782194910565,2.062665006688344,-0.18531453956571306
3.488959559165419,1.4266659464490163,2.060811861292687,-0.25859020664533583
3.5032262186299095,1.4647960567679608,2.0582259592262337,-0.33033186768676276
3.517874179197589,1.5033271209001242,2.054922640549366,-0.400466303858857
3.5329074504065905,1.5422256286053881,2.0509179775107773,-0.46892258004985543
3.5483297066926442,1.5814663600206769,2.0462287517102786,-0.535631973660649
3.564144370292851,1.621032743952676,2.040872431973672,-0.6005277924493609
3.5803546977323775,1.660917205616142,2.0348671540491785,-0.6635450754589483
3.596963869788539,1.7011215074237738,2.028231703294589,-0.7246201722303864
3.6139750848627767,1.7416570877943724,2.020985501572285,-0.7836901966299682
3.6313916557407206,1.7825454042190079,2.0131485996059855,-0.8406923526633253
3.649217109782911,1.8238182879419775,2.004741676079352,-0.8955631305950318
3.6674552926623307,1.8655183185024549,1.995786044773402,-0.948237372554253
3.686110475847355,1.9076992269651816,1.9863036710478594,-0.9986472076347045
3.705187468117007,1.950426336854245,1.9763171989715125,-1.0467208573889946
3.7246917314855494,1.9937770514837723,1.9658499903976225,-1.0923813137289473
3.7446295020003872,2.037841395414703,1.954926177260333,-1.1355448928017027
3.765007915954534,2.08272261597576,1.943570728332316,-1.1761196707314565
3.785835142114292,2.128537847926585,1.9318095316250015,-1.2140038106238815
3.807120520593558,2.1754188400864063,1.9196694935187626,-1.2490837954878027
3.8288747089944217,2.223512736668955,1.9071786555638846,-1.2812325894727052
3.851109836361111,2.27298289758177,1.8943663296691575,-1.3103077610023657
3.873839665336929,2.3240097303229854,1.881263252059134,-1.3361496172188918
3.8970797626401588,2.3767914903954592,1.867901755886945,-1.3585794211661189
3.9208476775441135,2.4315449861812914,1.8543159616752838,-1.3773977932232258
3.9451631274059262,2.4885060965647217,1.8405419837430514,-1.392383438715724
3.9700481883715733,2.547929973629355,1.8266181493558942,-1.4032923970022664
3.9955274881078666,2.6100907567343268,1.8125852253858714,-1.4098580765141424
4.02162839567521,2.6752805665188517,1.79848664462073,-1.411792428006191
4.048381201340399,2.7438074766786866,1.784368720340668,-1.4087887168465247
4.075819276107185,2.815992077592576,1.7702808331722026,-1.4005264851265506
4.1039791968831105,2.892162151087058,1.7562755683209372,-1.3866794431555458
4.132900818393981,2.9726448755388977,1.7424087738893819,-1.366927189429596
4.16262726714937,3.0577558866852166,1.728739501995086,-1.340971811475197
4.193204826016222,3.147784452057006,1.715329783880334,-1.3085605369181625
4.224682670536792,3.242974007551176,1.7022441785111524,-1.2695156364828666
4.2571124106123035,3.3434973990758796,1.6895490221463236,-1.223772657687265
4.290547384603062,3.44942643080166,1.677311295569451,-1.171427695068879
4.325041648911079,3.5606958152506563,1.665597018618762,-1.1127936663386915
4.3606486070635855,3.677062418782147,1.6544690819553751,-1.0484643489034216
4.397419231251407,3.798061843706472,1.643984438466341,-0.9793831565940507
4.435399849688471,3.922965868788676,1.6341906069004004,-0.9069113117528383
4.474629508376358,4.050745959965899,1.625121493782872,-0.8328873671101708
4.515136967976017,4.18004969090708,1.6167926201117702,-0.7596673655263944
4.556937464885087,4.309198045110358,1.6091959464565062,-0.690132972938612
4.600029445336191,4.436211658551138,1.6022946167271201,-0.6276545715021984
4.644391561921703,4.558872567759003,1.5960180710120981,-0.5759984691823854
4.689980287599293,4.674824628256957,1.5902580863202742,-0.5391726869871655
4.7367285338818625,4.7817105639857225,1.5848663594504027,-0.5212141825453958
4.78454563952172,4.877337255200154,1.5796542176249486,-0.525930893264805
4.833319012073721,4.959854532272525,1.5743949086923006,-0.5566227514057649
4.882917557396446,5.027927840961199,1.568828681178243,-0.6158143824192933
4.933196835806058,5.080883010020794,1.5626705373540501,-0.7050361237573732
4.984005665906266,5.118802873196469,1.5556201761164765,-0.8246875727841271
5.035193694638231,5.14256088588553,1.5473733003886352,-0.974008616634019
5.086619303497086,5.1537855464166045,1.537633214222295,-1.151167903525349
5.138157158961252,5.154759985552593,1.5261215351870416,-1.3534606483559144
5.189704758816777,5.148271460438193,1.5125869287034825,-1.5775903670236575
5.241187473421159,5.137433359793277,1.496811025033246,-1.819996720996926
5.292561807019092,5.125505804499836,1.4786110578232767,-2.0771872376782454
5.34381686506409,5.115739274762259,1.4578391854464943,-2.346035182730162
5.394974257811713,5.1112596915220205,1.4343788336191927,-2.624017621504088
5.446086854726933,5.115005051497578,1.408138657404152,-2.909383102934805
5.497236905241909,5.129715533249729,1.3790448263748039,-3.2012533397430087
5.548534060574406,5.157972973659656,1.3470322929773737,-3.4996746689159837
5.600113790311003,5.202282774413646,1.3120355462882138,-3.8056417125981388
5.652136618055139,5.265191620693676,1.2739791291622324,-4.121118028540598
5.704788534262076,5.349437182848439,1.2327679488768264,-4.449078201502252
5.75828290609056,5.4581302698443634,1.188277166861804,-4.793594532026562
5.812864208789004,5.5949746966064415,1.1403412215415383,-5.159990397226392
5.868813955755068,5.764534075553817,1.0887413175692744,-5.55508127295916
5.926459296510607,5.972555010797319,1.0331905048396828,-5.987520143015292
5.986184846618579,6.226345185419339,0.9733153034095299,-6.468246221035706
6.048448298472773,6.535161592365559,0.9086328411991729,-7.010975271804448
6.113799914396429,6.910431007336181,0.8385230884811283,-7.632485889905261
6.182904224469791,7.365246570460802,0.7621982295820757,-8.35193224704118
6.256556690174399,7.911564545395395,0.6786789071116639,-9.18699526626718
6.335672335628353,8.551002857861747,0.5868089544489921,-10.141161857960883
6.421182364206971,9.250270670860093,0.4853973358693832,-11.169592247250963
6.513685070915572,9.890730904844853,0.37370141339687357,-12.10883334364397
6.6125923799640205,10.22204689449105,0.25261307996043386,-12.612145233903071
6.714812848908931,9.982515282479486,0.12649162762140315,-12.317649813877
6.814638001733726,9.238135030950406,0.0033151294826331418,-11.320645345823317
6.907019352043229,8.347874972901364,-0.10989132397560003,-10.121944811462312
6.990498101772243,7.550368023807155,-0.21111077209022316,-9.052247883911209
7.066001782010314,6.896968825813916,-0.30163325092933524,-8.182038931071155
7.134971470268454,6.369207425914917,-0.3834536402400468,-7.4857250518472
7.198663544527603,5.938454582160488,-0.45831089075851883,-6.924173331110787
7.258048090349208,5.580729269198574,-0.5275526240696267,-6.464964343167888
7.313855383041194,5.278124451727417,-0.5922022675013056,-6.084235364758636
7.366636627558468,5.017548088040827,-0.653044621148892,-5.764888115560702
7.416812108438877,4.78934862463083,-0.710693502304499,-5.494672750358665
7.464705594685185,4.586274510182166,-0.7656402298080857,-5.264745686416104
7.510568339787007,4.402752446674379,-0.8182876866722467,-5.068666911294548
7.55459586425375,4.234399778423811,-0.8689743557851922,-4.901710875698894
7.596939862037988,4.077699356007119,-0.9179914645421812,-4.760383949018608
7.637716855598059,3.9297877610774776,-0.9655953040323673,-4.642072292108617
7.677014733208834,3.7883254795173924,-1.0120160269534535,-4.544768293954429
7.714897988004008,3.6514291039042344,-1.0574637098929978,-4.466840947052322
7.75141227904305,3.517651796069814,-1.102132119363521,-4.406828575815182
7.786588797003748,3.385999810337243,-1.1462004051216728,-4.363244042268599
7.82044879510712,3.2559704528808053,-1.1898328455443588,-4.3343948633402
7.853008499635928,3.1275914828695828,-1.2331767941777607,-4.318233860717282
7.884284414464624,3.0014360240457094,-1.2763591327849335,-4.312267784576321
7.914298774705081,2.8785847257708292,-1.3194818106306967,-4.313556685215543
7.9430846219627895,2.7605132873273206,-1.362617377482852,-4.318829105555272
7.970689754836063,2.6489016501997993,-1.4058056685384048,-4.324713652688505
7.997178771338061,2.545388311387282,-1.4490528050652898,-4.328050695434639
8.022632654451934,2.4513187938413816,-1.4923333120196363,-4.326213795394376
8.047145842390348,2.3675473903402016,-1.53559544997358,-4.31735826858624
8.07082131629375,2.294337858854715,-1.5787690326594424,-4.300534541504279
8.093764694882298,2.2313768917212733,-1.621774378074485,-4.275648931164959
8.11607846379951,2.1778797355307606,-1.6645308673861348,-4.2433019004804455
8.137857261154819,2.1327460707778187,-1.7069638863909393,-4.204562208882639
8.159184721862598,2.0947221716126783,-1.7490095084797657,-4.1607370859927375
8.180131943578724,2.0625376205328183,-1.790616879339693,-4.11318087357759
8.200757319784053,2.035001889440026,-1.831748688075469,-4.063160903626656
8.221107338678452,2.0110602348831685,-1.8723802971117356,-4.01178015742398
8.241217941027283,1.989816478345952,-1.9124980986859754,-3.9599455012828013
8.261116105810743,1.9705328822531272,-1.9520975536988034,-3.908367072384777
8.280821434633275,1.9526165340510242,-1.9911812244226512,-3.8575757759388805
8.300347599973785,1.9355993935293898,-2.02975698218204,-3.8079491182894136
8.319703593909079,1.9191167301976904,-2.067836473364934,-3.7597390008925555
8.338894761211057,1.9028866815409582,-2.1054338633738596,-3.713097847684963
8.357923628026466,1.8866922542832172,-2.1425648418507093,-3.668101352000718
8.376790550569298,1.8703662050941547,-2.1792458553707164,-3.624767316818084
8.39549421262024,1.8537787396902012,-2.215493528538897,-3.583070718835991
8.414032000017142,1.8368277284119112,-2.251324235727257,-3.54295543720338
8.432400277301262,1.8194310499726536,-2.286753790099291,-3.504343192429894
8.450594587800989,1.8015206732341469,-2.32179722202359,-3.4671402352552176
8.46860979453333,1.783038125741447,-2.356468624376142,-3.4312422679806227
8.486440175790745,1.7639310519067095,-2.390781047055948,-3.3965380057310894
8.504079486309813,1.7441506195863474,-2.424746427113259,-3.3629117100458252
8.521520992505677,1.7236495849007267,-2.458375544213717,-3.3302449602796766
8.538757488354683,1.7023808690698785,-2.4916779938165137,-3.2984178724183533
8.555781297045382,1.68029653745329,-2.524662172540697,-3.267309930209381
8.572584262419914,1.657347100533925,-2.5573352718427906,-3.236800558871694
8.589157733425253,1.6334810802767126,-2.5897032774315076,-3.2067695454918557
8.60549254422802,1.6086448041467551,-2.6217709728864262,-3.1770973909006996
8.62157899226949,1.5827824039873695,-2.6535419467954333,-3.1476656638100486
8.637406816309364,1.5558360086280285,-2.6850186034335337,-3.118357417883292
8.652965176395643,1.5277461279916582,-2.7162021776123666,-3.0890577249584577
8.66824263767556,1.4984522328546486,-2.747092754861951,-3.0596543716757227
8.683227160004106,1.4678935383313025,-2.777689298578708,-3.030038761173721
8.69790609538742,1.4360100004760217,-2.8079896861904454,-3.0001070552235385
8.71226619539218,1.4027435338456058,-2.837990756742681,-2.9697615840941163
8.726293630730636,1.3680394530757278,-2.867688372583622,-2.9389125405583973
8.739974025261393,1.3318481331266947,-2.8970774979892058,-2.9074799598401997
8.75329250659266,1.294126870574526,-2.926152297587608,-2.8753959682884487
8.766233775298405,1.2548419121428505,-2.9549062572704923,-2.842607259880356
8.778782194419833,1.2139705969851604,-2.9833323298692958,-2.8090777316569544
8.790921900389684,1.1715035370219413,-3.0114231071858653,-2.7747911780932295
8.802636935759903,1.127446736630288,-3.0391710189667975,-2.7397539124469152
8.813911403126205,1.081823531677875,-3.0665685580912667,-2.703997153666647
8.824729638442983,1.034676211487386,-3.093608529627933,-2.6675789948005235
8.835076400557858,0.9860671794167672,-3.1202843195759384,-2.630585757934138
8.844937072352026,0.9360795118451339,-3.14659017715528,-2.5931325462738903
8.854297867470478,0.884816794159947,-3.172521502618019,-2.555362829748141
8.863146035412077,0.8324021469624832,-3.1980751309155004,-2.517446947921811
8.871470056881702,0.7789764050037907,-3.2232496003947184,-2.4795794814996333
8.87925982093174,0.7246954715847994,-3.2480453952097146,-2.441975526033161
8.886506775647588,0.6697269361179743,-3.272465150470046,-2.4048659901021456
8.893204045008767,0.6142461044074161,-3.2965138103710676,-2.3684921243946104
8.899346506052842,0.5584316417451668,-3.320198731615014,-2.333099556465652
8.904930822470293,0.502461061110092,-3.3435297271796705,-2.298932148879935
8.909955433081393,0.44650629815658804,-3.36651904866847,-2.2662260099213434
8.91442049606296,0.39072960035682014,-3.389181308767683,-2.235203964919593
8.918327792066528,0.3352799223083221,-3.4115333484168793,-2.206070746348296
8.921680591289611,0.28028996850988547,-3.4335940558803624,-2.1790090901293317
8.92448349097471,0.2258739662460977,-3.4553841467816557,-2.1541768443220617
8.92674223063717,0.1721261922671385,-3.4769259152248764,-2.13170511517536
8.928463492559843,0.11912022430278885,-3.49824296637663,-2.1116974034422467
8.92965469480287,0.06690884674458142,-3.5193599404110527,-2.094229627214857
8.930323783270316,0.015524511393707148,-3.540302236683201,-2.07935088942616
8.930479028384253,-0.035019760829562575,-3.561095745577463,-2.0670848286868155
8.930128830775958,-0.08472915438665005,-3.581766593864331,-2.057431389092725
8.929281539232091,-0.1336256206566048,-3.6023409077552584,-2.050368854477336
8.927945283025526,-0.18174632448401123,-3.6228445963000317,-2.0458560112066126
8.926127819780685,-0.22914205717343472,-3.643303156412098,-2.043834327114701
8.923836399208952,-0.2758756795078098,-3.663741499683245,-2.0442300592643394
8.921077642413874,-0.32202064099479166,-3.684183800275888,-2.046956227420605
8.917857436003926,-0.3676596058552396,-3.7046533625500944,-2.0519144118237254
8.914180839945374,-0.4128832029310792,-3.7251725066683314,-2.0589963521504435
8.910052007916063,-0.45778890595677807,-3.745762470189836,-2.0680853391580505
8.905474118856494,-0.5024800424638892,-3.7664433235814165,-2.0790574015132006
8.900449318431855,-0.5470649237400337,-3.7872338975965487,-2.091782298074386
8.894978669194455,-0.5916560844139729,-3.8081517205772926,-2.10612433090699
8.889062108350315,-0.6363696180267613,-3.8292129638863623,-2.1219429970868737
8.882698412170047,-0.6813245940255782,-3.850432393857231,-2.1390934983974255
8.875885166229791,-0.726642541666756,-3.871823328841205,-2.157427127799138
8.868618740813124,-0.7724469870686795,-3.8933976001191963,-2.1767915504371786
8.860894270942438,-0.8188630308925733,-3.9151655156235683,-2.1970309952700124
8.852705640633513,-0.8660169556735157,-3.9371358255762683,-2.217986371406719
8.844045471076777,-0.9140358535381471,-3.9593156892903356,-2.2394953211334863
8.834905112541396,-0.9630472668246436,-3.9817106425016706,-2.2613922195473504
8.825274639873149,-1.013178835885703,-4.004324564697144,-2.283508128818362
8.815142851514292,-1.0645579500479259,-4.027159645985328,-2.3056707134630794
8.804497272013812,-1.1173113992781782,-4.050216353119958,-2.327704121704345
8.79332415802103,-1.1715650255385162,-4.073493394337001,-2.349428837070068
8.781608507765645,-1.2274433740745088,-4.096987682707702,-2.3706615038899033
8.7693340740249,-1.2850693459627913,-4.120694297746601,-2.3912147303163307
8.756483380565273,-1.3445638541326868,-4.144606445049765,-2.41089687295154
8.743037742023946,-1.4060454857666513,-4.16871541377928,-2.4295118081249543
8.728977287166279,-1.4696301744679507,-4.193010531860529,-2.446858696357741
8.714280985421599,-1.5354308858507928,-4.217479118824106,-2.462731748591824
8.698926676563092,-1.6035573202398907,-4.242106436310024,-2.47692000537996
8.682891103360692,-1.6741156359317901,-4.266875636363824,-2.489207143471554
8.666149947001374,-1.7472081959181025,-4.291767707798539,-2.4993713281475958
8.648677865042194,-1.8229333400215888,-4.316761421080015,-2.507185134349444
8.630448531641978,-1.9013851829318797,-4.34183327242351,-2.512415565244517
8.611434679812659,-1.9826534364794548,-4.366957428075955,-2.5148242035692565
8.591608145447864,-2.0668232514191227,-4.392105670111648,-2.5141675391541645
8.570939912933673,-2.153975069688044,-4.417247345503189,-2.5101975258341995
8.549400162236791,-2.2441844721326927,-4.442349320761531,-2.502662432973463
8.526958317515465,-2.337521998507278,-4.467375945091266,-2.491308071736669
8.503583097530392,-2.434052905416825,-4.492289025808633,-2.4758794948651683
8.479242568476224,-2.5338368129061193,-4.517047820757285,-2.4561232921340337
8.453904200347163,-2.6369271704604658,-4.541609053678625,-2.4317906332067585
8.427534928642558,-2.7433704469347826,-4.565926960010693,-2.4026412468554326
8.400101224173211,-2.8532049147967498,-4.589953372479248,-2.368448572287105
8.371569175025243,-2.96645885534602,-4.613637858202119,-2.329006376504841
8.341904586471783,-3.0831479565813753,-4.6369279219671675,-2.284137202901069
8.311073106905969,-3.2032716078725807,-4.659769293996178,-2.233703101458923
8.279040390827243,-3.326807715417035,-4.682106325010768,-2.177619188901856
8.245772313673072,-3.4537055718485172,-4.703882516899786,-2.1158706929030657
8.211235257954588,-3.5838762189614126,-4.725041223828817,-2.0485342360990835
8.175396495764973,-3.7171796586147203,-4.745526566189808,-1.9758041894322889
8.138224699178826,-3.8534082201848334,-4.765284608084131,-1.898024927839322
8.099690616976977,-3.992265428927159,-4.784264857362524,-1.8157296841839814
8.059767962687705,-4.13333990989634,-4.802422154204364,-1.7296863111401397
8.018434563588741,-4.276074310261812,-4.819719017315765,-1.640949471313971
7.975673820486123,-4.419730062987874,-4.836128512028905,-1.5509173874771784
7.931476519856244,-4.563350191109395,-4.851637685903677,-1.4613890924544037
7.885843017945151,-4.705724361640609,-4.866251576828221,-1.3746149948872273
7.838785774328745,-4.845362978453142,-4.879997726777093,-1.2933296439374755
7.790332144544213,-4.980489853848703,-4.892931023216468,-1.22075146421045
7.740527246005726,-5.109064984297839,-4.905138537858572,-1.1605313710440084
7.689436596162748,-5.2288486325803545,-4.916743851569012,-1.1166328972631154
7.637148109836945,-5.33751343656792,-4.927910180541644,-1.0931335404129148
7.583772975471265,-5.4328014094689046,-4.938841515945772,-1.0939522944381825
7.529444961376576,-5.512708380244861,-4.949781038890154,-1.122530413090931
7.474317877574128,-5.575663883620673,-4.961006343021063,-1.1815150565437953
7.418561238737921,-5.620666690962925,-4.972821493586501,-1.2725082004116228
7.362354571828292,-5.6473413387299125,-4.985546575590617,-1.3959365114048987
7.305881158440993,-5.655900009002188,-4.999505940704666,-1.55107018005567
7.249322158350971,-5.647020153052139,-5.015016642505223,-1.7361796653114476
7.19285195682045,-5.62167009710883,-5.032378439158338,-1.9487855248105408
7.136635255849361,-5.580923743445784,-5.051866294406443,-2.185941373872566
7.0808260184149034,-5.525800040471785,-5.073725708145169,-2.444496178737467
7.025568018010185,-5.457148637377263,-5.098170669932544,-2.7213019770500875
6.970996531636413,-5.375587694613985,-5.125383689703044,-3.013355619955913
6.917240654690273,-5.281488548032449,-5.155517245902604,-3.3178801146349084
6.864425769209949,-5.174996441371153,-5.1886960470489525,-3.632359828955633
6.812675804796237,-5.056075778904626,-5.2250196453385085,-3.954545436020723
6.762115047007191,-4.924570307007538,-5.264565099698716,-4.282441795087736
6.712869343937116,-4.780271595716824,-5.307389517649593,-4.6142874955419275
6.6650666279799475,-4.622992155344075,-5.353532392605012,-4.948530097902699
6.618836706426507,-4.452642118998372,-5.403017693584039,-5.283796864392094
6.574310285236523,-4.269310667887986,-5.45585566222796,-5.618857080170505
6.531617178557643,-4.0733554447222815,-5.512044233029665,-5.952568762232102
6.49088362411042,-3.865505233705482,-5.571569920651986,-6.283799457182242
6.452228571773365,-3.6469831226900356,-5.634407915223808,-6.611307973009475
6.415758740546465,-3.419658703048607,-5.700520994953903,-6.933571827490627
6.381562153515979,-3.1862372790194375,-5.769856713228809,-7.248545526386029
