th1 (rad),w1 (rad/s),th2 (rad),w2 (rad/s)
0.31253585592097943,-1.5597593410194477,3.993988373088305,2.6017179165104976
0.296938262510785,-1.5764053137617622,4.02000555225341,2.6737247704951512
0.28117420937316734,-1.5934382917227892,4.046742799958362,2.748573643174219
0.26523982645593946,-1.6112802742221632,4.074228536390104,2.8260073161548824
0.24912702371371784,-1.6303427183359083,4.102488609551653,2.905817041188457
0.23282359653035875,-1.6510237741245333,4.1315467799635375,2.987849771217507
0.21631335878911342,-1.6737072129950392,4.161425277675712,3.0720136990151317
0.19957628665916302,-1.698762986638277,4.192145414665863,3.1582823632034063
0.18258865679278025,-1.726549305152623,4.223728238297897,3.24669767596043
0.16532316374125403,-1.7574161015424907,4.2561952150575015,3.337372287768554
0.1477490027258291,-1.7917097536407462,4.289568937935187,3.43049173787571
0.12983190518942164,-1.8297789599123897,4.323873855313945,3.5263168530126205
0.11153411559029774,-1.8719817082302102,4.359137023844071,3.6251868605752926
0.09281429850799564,-1.918693332436488,4.395388892449824,3.7275236849231677
0.07362736518363075,-1.9703157167916572,4.432664129299056,3.8338379044856885
0.05392420801571418,-2.027287780341664,4.471002508343913,3.944736869026823
0.03365133021229754,-2.0900974489823527,4.510449877034182,4.060935514167444
0.012750355722474013,-2.1592953985884558,4.551059232175856,4.183270463796806
-0.008842598263410547,-2.235510920470086,4.592891936813824,4.312718073599507
-0.03119770746811141,-2.319470304950519,4.636019117549819,4.4504171220272735
-0.0543924105176166,-2.412018127552966,4.680523288770091,4.597696857245814
-0.07851259179314626,-2.5141416892533766,4.72650025734255,4.756110973687827
-0.10365400868568003,-2.626998476079658,4.774061367079428,4.927477645535283
-0.12992399344647662,-2.7519456046099813,4.823336143534781,5.11392463901583
-0.15744344949257644,-2.890568299616745,4.874475389924939,5.317936072121292
-0.18634913248874388,-3.0447005136825793,4.927654750646152,5.542392232376543
-0.21679613762556968,-3.216422915738103,4.983078672969917,5.79058334714087
-0.2489603667829507,-3.4080079530053142,5.040984506441326,6.066157214670725
-0.28304044631300385,-3.6217516872790343,5.1016460785880335,6.37291961302832
-0.3192579631857942,-3.859575839805043,5.165375274718317,6.7143288585206085
-0.3578537215838446,-4.12218409790237,5.232518563303523,7.09238781142913
-0.3990755625628683,-4.407403485729167,5.303442441417814,7.505421697460181
-0.44314959742015997,-4.707185325870696,5.378496658392415,7.944006206112585
-0.4902214506788669,-5.002874655656733,5.457936720453541,8.384481506867463
-0.5402501972354342,-5.2596885936361595,5.541781535522216,8.781312401081324
-0.5928470831717958,-5.425337747540865,5.629594659533029,9.065076528214911
-0.6471004606472044,-5.442962098603689,5.720245424815178,9.160124831400726
-0.7015300816332413,-5.282696245451812,5.811846673129185,9.027822496608538
-0.7543570440877594,-4.967960028222033,5.902124898095271,8.70221450666866
-0.8040366443699797,-4.561720010534071,5.989147043161958,8.270391824719523
-0.8496538444753203,-4.126506444694678,6.071850961409153,7.817377622587204
-0.8909189089222671,-3.7011955857159826,6.150024737635024,7.394907074733362
-0.9279308647794269,-3.3023820911909403,6.223973808382358,7.024077238459409
-0.9609546856913362,-2.9337019956044803,6.294214580766952,6.70851567914207
-0.990291705647381,-2.593042520956015,6.361299737558372,6.444327011467557
-1.0162221308569412,-2.276365393416733,6.425743007673048,6.22526236547799
-1.0389857847911086,-1.979391838146654,6.487995631327828,6.044931600500379
-1.0587797031725752,-1.6982386667897367,6.548444947332832,5.897589010158008
-1.0757620898404725,-1.4295990639145795,6.607420837434412,5.778312744083164
-1.0900580804796183,-1.1707443438599647,6.665203964875244,5.682953929138643
-1.101765523918218,-0.919465676021218,6.72203350416663,5.608014537231346
-1.1109601806784302,-0.6740039098004931,6.778113649538944,5.55051675101314
-1.1177002197764352,-0.43298514526089504,6.833618817049075,5.507885954967288
-1.122030071229044,-0.19536704509542516,6.888697676598748,5.477853128578425
-1.1239837416799983,0.03960410291745503,6.943476207884532,5.4583763305401725
-1.1235877006508237,0.27242732694234606,6.998059971189934,5.4475790836081766
-1.1208634273814002,0.5033741164810346,7.052535762026016,5.4437032223438635
-1.11582968621659,0.7325109082364747,7.1069727942494545,5.445074069305067
-1.1085045771342252,0.9597187998219815,7.1614235349425055,5.4500762160313645
-1.0989073891360055,1.1847120695520528,7.215924297102819,5.457138531427662
-1.0870602684404849,1.4070567499940658,7.270495682417096,5.464727245143203
-1.0729897009405442,1.6261901587913745,7.325142954868528,5.471346050741226
-1.0567277993526305,1.8414419334387768,7.37985641537594,5.475542160212624
-1.0383133800182427,2.0520567524019544,7.434611836978067,5.475917148584041
-1.017792812494223,2.2572185670647724,7.489371008463907,5.471141294662584
-0.9952206268235754,2.4560758401696194,7.544082421410533,5.459969995929245
-0.9706598684218791,2.6477670153890913,7.5986821213698255,5.441260756865369
-0.9441821982679882,2.8314452589561556,7.653094728938479,5.413989259034334
-0.9158677456784267,3.0063014418172704,7.707234621528822,5.377263143686525
-0.8858047312602539,3.171584381704717,7.761007252965687,5.330332380764953
-0.8540888874432068,3.3266175348455422,7.8143105767733365,5.272595448044539
-0.8208227120947513,3.4708115953819987,7.867036531253782,5.203600966860449
-0.7861145961409314,3.6036727908308968,7.919072540922387,5.1230448880417185
-0.7500778682326225,3.724807009012749,7.970302989802804,5.030763738913299
-0.7128297981424949,3.8339202097153,8.020610627191937,4.926724779150709
-0.6744905960453419,3.9308158235683464,8.069877874983444,4.811014132154935
-0.6351824378096584,4.015389994632026,8.117988016304993,4.6838240401347235
-0.5950285378633382,4.08762557123973,8.164826256706341,4.545440335905696
-0.5541522821509409,4.147585696331971,8.210280660065399,4.3962310509084075
-0.5126764251876212,4.195407710944467,8.254242970574483,4.236636818135908
-0.4707223480781766,4.231297887662872,8.296609338755841,4.067163418047539
-0.4284093692015479,4.255527282882826,8.337280972936316,3.888376493310949
-0.3858540963727196,4.2684287649467265,8.376164737869425,3.700898158816269
-0.34316980872325237,4.270395063450399,8.413173719457587,3.505404984920328
-0.30046585808874837,4.261877512025613,8.44822776930679,3.302626654861686
-0.25784708296849224,4.243385036059908,8.481254035855407,3.0933445046150214
-0.21541323260789316,4.21548287605871,8.512187480901558,2.878389150539553
-0.17325840384730606,4.178790539388285,8.540971372406954,2.658636495161885
-0.1314704984534232,4.133978535505529,8.567557737358573,2.435001565245205
-0.09013071309836793,4.081763564901458,8.591907753011025,2.2084298627683885
-0.04931307744935335,4.022901987354563,8.613992051638709,1.9798861758942978
-0.00908405757580772,3.9581815739362334,8.633790913397652,1.7503410757104179
0.030497758163554614,3.888411729843767,8.651294324154756,1.5207555852252217
0.06938187546199229,3.8144125410316607,8.666501880007008,1.2920647205622062
0.1075260008723089,3.7370031280096523,8.67942252721263,1.065160746302649
0.14489603215240543,3.65698987075065,8.690074134675656,0.8408770420217708
0.18146593085991192,3.5751550916672103,8.698482905095874,0.619973441045292
0.217217481776584,3.492246749040473,8.704682639506327,0.40312378306106733
0.25213994926698874,3.4089696085661183,8.708713877336939,0.1909062376654601
0.28622964535264994,3.325978239197176,8.710622939713593,-0.016203268402607912
0.3194894277446217,3.243872038028094,8.710460907029567,-0.21783442350570884
0.35192814812490264,3.1631923449536044,8.70828256279451,-0.4137228270420005
0.38356007157443867,3.0844215765551293,8.70414533452409,-0.6037075183911949
0.41440428733998996,3.007984201457686,8.698108259340179,-0.7877261839413816
0.4444841293545668,2.934249302727233,8.690230997500766,-0.9658085684397001
0.47382662238183915,2.863534428391235,8.68057291181637,-1.138068645636257
0.5024619666657515,2.796110416502264,8.669192225360007,-1.304696087062708
0.5304230708307741,2.732206891179459,8.65614526448938,-1.4659475175776864
0.5577451397425687,2.672018154142598,8.641485789313604,-1.6221379737714756
0.5844653212839946,2.6157092354713343,8.62526440957589,-1.7736328974081585
0.610622413638708,2.5634219112741263,8.607528080601808,-1.9208409097695882
0.6362566327514492,2.515280539230334,8.588319671504113,-2.0642075304338987
0.6614094381437525,2.471397601298353,8.567677596199774,-2.2042099293072956
0.6861234141567361,2.4318788729773164,8.545635496906701,-2.3413527346523386
0.7104422028865092,2.3968281577341677,8.522221969560178,-2.476164861064448
0.7344104844638508,2.366351531086954,8.497460320949534,-2.6091972662969085
0.7580739997747203,2.3405610284430782,8.471368348286564,-2.741021488784541
0.7814796100591511,2.319577680003785,8.443958133398718,-2.872228750418174
0.8046753868591889,2.303533738606595,8.415235845894536,-3.0034293200725064
0.8277107242452549,2.292573852691364,8.385201552693811,-3.135251706533091
0.8506364627721685,2.286854792130613,8.35384903562848,-3.2683410622095224
0.8735050106934746,2.2865431179942886,8.321165625006385,-3.403355899453025
0.8963704418734175,2.291809867560582,8.287132066011855,-3.54096180469725
0.9192885405490233,2.3028208603697418,8.251722447964882,-3.6818202208390267
0.9423167491527207,2.3197205644108205,8.214904245756491,-3.8265694757535176
0.9655139547968289,2.342606529552872,8.176638550998955,-3.975793971510853
0.9889400200923576,2.371490142956721,8.136880611283846,-4.129975730966796
1.0126549215219247,2.406237891072455,8.095580853974178,-4.289420316904006
1.0367173004326493,2.446485599760566,8.05268665080514,-4.454146715000269
1.061182156430255,2.491516853724808,8.008145183655136,-4.623728884351948
1.0860973249675032,2.540097405895216,7.961907894811617,-4.797077272954402
1.1114982990264555,2.590262841970124,7.913937122082073,-4.972155722938169
1.1374009274461567,2.639072233171081,7.8642155648526915,-5.145649963335641
1.1637916497778675,2.6823729533860305,7.8127590652193355,-5.312647950274327
1.1906153793117278,2.7146757190407937,7.759632585716592,-5.466465955439023
1.2177621365021358,2.729303696422209,7.704967926162202,-5.598843200416378
1.245055173466358,2.719009060588961,7.648979494158038,-5.700768512849724
1.2722452640722475,2.6771557188434985,7.59197180902954,-5.764072377388528
1.2990168212606825,2.5992767765027107,7.534331085255655,-5.783519202140995
1.3250095890257096,2.484427600222897,7.476495893234245,-5.758604387744494
1.3498538650279386,2.3356131698948266,7.418909849356799,-5.694073413951171
1.373209996726887,2.1589707539802685,7.3619691152172875,-5.598743610873892
1.3947997042666895,1.9621133644213538,7.305981679108548,-5.483206612028179
1.4144208379109031,1.752450250202321,7.251149612988266,-5.357540250942099
1.4319453404129263,1.5360964189065984,7.197574210478845,-5.229858612487784
1.4473063046019923,1.3174921415411116,7.1452756243539675,-5.105845101321047
1.4604812260174034,1.099518520271705,7.094217173340757,-4.988957799265047
1.4714764112201204,0.8838330999820492,7.044327595348107,-4.8809210651149915
1.480314742219941,0.671235276339546,6.995518384696957,-4.782242840830232
1.4870270949833364,0.4619734827470533,6.947695956288654,-4.692640831531998
1.491646829810807,0.2559723619568339,6.900769547973334,-4.611351945294049
1.4942065534303752,0.05298833735254682,6.8546560285203935,-4.537339916518965
1.4947364368039007,-0.14728927001656403,6.809282629355204,-4.469426931555762
1.493263544103735,-0.34517518770927724,6.764588360039647,-4.406373191945028
1.4898117922266423,-0.5409504775047056,6.720524628120197,-4.346922766594742
1.4844022874515952,-0.7348412152964324,6.6770554004542495,-4.289828575673357
1.4770538752986309,-0.9270076298329775,6.634157114697516,-4.233865043596143
1.467783799000301,-1.1175399133690234,6.5918184642615545,-4.177833917629595
1.4566083998666108,-1.3064583634404685,6.550040125085259,-4.120566710827237
1.443543816232206,-1.4937164529380718,6.508834457976986,-4.0609258993822746
1.4286066517028253,-1.6792060165022902,6.468225198983164,-3.9978061475220947
1.4118145915378024,-1.8627641017162717,6.428247137507943,-3.9301362781827045
1.3931869505206398,-2.044181242996311,6.388945774726116,-3.8568823412475206
1.3727451380906768,-2.223211026811255,6.350376951313641,-3.7770518799448047
1.3505130278225643,-2.3995808631448354,6.312606432514193,-3.6896993144870613
1.3265172191911159,-2.573003882636903,6.275709439369322,-3.5939322228985207
1.3007871803647468,-2.7431918571911624,6.2397701171403375,-3.4889181868704084
1.2733552617928352,-2.9098690053860685,6.204880935271634,-3.3738917778458886
1.2442565717389744,-3.0727865016863842,6.171142017493175,-3.248161182814463
1.2135287067221106,-3.231737467693804,6.13866040566503,-3.111113911064733
1.1812113320451725,-3.3865721910018203,6.107549266554383,-2.9622209847780923
1.1473456101351542,-3.537213298289579,6.077927056706602,-2.801039001031847
1.1119734771522585,-3.683670608746767,6.049916666696284,-2.6272094637856225
1.0751367710647908,-3.826055415005726,6.023644572058427,-2.440454824599826
1.0368762169147334,-3.9645939826791876,5.999240023812429,-2.2405707424340835
0.9972302770879415,-4.09964012464328,5.976834316388088,-2.0274141778886974
0.9562338758415088,-4.231686786397554,5.956560174609201,-1.800887078604189
0.9139170079775332,-4.361376661932795,5.93855130382316,-1.5609155967156916
0.8703032413582052,-4.489511923715061,5.922942147856003,-1.307425021412789
0.8254081221210546,-4.6170631585508195,5.909867897641875,-1.0403109427479167
0.7792374905355465,-4.7451774907600806,5.899464788214396,-0.759407653791436
0.7317857156279457,-4.875185539209922,5.891870711676481,-0.4644555760178152
0.6830338602358464,-5.008606112963561,5.887226155916303,-0.1550707971867809
0.6329477991062108,-5.147146084498582,5.885675447944435,0.16927792330273483
0.581476338261225,-5.292690136487603,5.887368227177463,0.5092753267354302
0.528549436896349,-5.447270100626823,5.892460980444818,0.8657325715425297
0.4740767358900808,-5.612994779602829,5.901118306160243,1.2394980385551748
0.4179467880940525,-5.7919058924698685,5.913513286545795,1.6312558194837645
0.3600277291693538,-5.985700512613827,5.929825844740633,2.0411264508853733
0.30017072404321554,-6.19522170496099,5.950237109249487,2.467930865837147
0.23821850699360564,-6.4195697291645635,5.974916417907859,2.9079110005075575
0.17402280970196,-6.654653639169112,6.0039955279129344,3.3526588769504064
0.10747627331026886,-6.8910852008484085,6.037522116682439,3.7861300385052123
0.03856542130178478,-7.111752472158176,6.075383417067491,4.1812455652666465
-0.032552103419796974,-7.290544491892981,6.117195872720158,4.498205805070757
-0.10545754833872678,-7.395363740507735,6.1621779307708655,4.68899999943262
-0.17941118574380413,-7.398481779359999,6.209067930765192,4.712451541310822
-0.2533960035374041,-7.291355690084874,6.2561924461783,4.555646806110999
-0.3263095604382529,-7.091963788135321,6.30174891423941,4.244649328655772
-0.3972291983196061,-6.83576775760421,6.344195407525968,3.8316802179822407
-0.46558687589564823,-6.558509067457712,6.38251220970579,3.370340961437822
-0.5311719665702254,-6.285299853091075,6.416215619320168,2.8995882679747256
-0.5940249651011361,-6.0294311190089465,6.445211501999915,2.441595320795487
-0.6543192762912255,-5.795824030353585,6.46962745520787,2.006416837834266
-0.7122775165947614,-5.584712720902231,6.4896916235862125,1.5971539566053243
-0.7681246438037836,-5.3941294725584275,6.505663163152266,1.2135060357409797
-0.8220659385293679,-5.2212836353747205,6.517798223509676,0.8537793898799121
-0.8742787748831151,-5.063241401743828,6.526336017408474,0.5159018849378461
-0.9249111889005533,-4.91722693892708,6.531495036257853,0.19788805967143702
-0.9740834582898241,-4.7807354536636,6.533473916854567,-0.101976406247553
-1.02189081282646,-4.651559149989152,6.532454152792091,-0.3850860367148832
-1.0684064043263517,-4.52777633992731,6.528603292424942,-0.652528945017611
-1.1136841677256248,-4.407727567154933,6.522078002974767,-0.9051259256796582
-1.1577614433971741,-4.289989427336425,6.51302674371797,-1.143477842977354
-1.2006613376705384,-4.173350377863753,6.501591965288196,-1.368013246687403
-1.242394841449176,-4.05678982614632,6.4879118328213226,-1.5790326645460144
-1.2829627397106391,-3.9394604482977598,6.472121506175863,-1.776748158069717
-1.3223573441936167,-3.8206731630064446,6.454354024595165,-1.961317709024197
-1.3605640758236812,-3.6998840457758977,6.434740847504924,-2.132874436880187
-1.3975629162814402,-3.576682508085987,6.413412103136122,-2.2915508322682667
-1.4333297413623,-3.4507801813162136,6.390496594813439,-2.437498271607509
-1.4678375431754622,-3.322000085330632,6.366121612097364,-2.5709021198588546
-1.5010575440287686,-3.190265800946215,6.340412590898775,-2.6919927593077158
-1.5329602020382307,-3.055590491458567,6.313492663305698,-2.801052911383729
-1.5635161069528163,-2.9180657250016537,6.28548213419186,-2.8984216463929835
-1.592696764202833,-2.7778501344119744,6.2564979177279305,-2.984495500145793
-1.6204752655469528,-2.63515801419509,6.226652962726472,-3.059727133732569
-1.6468268456889037,-2.4902479961965533,6.196055691389147,-3.1246219806717095
-1.6717293256508692,-2.3434119685392556,6.16480947158243,-3.1797333229084424
-1.6951634453362618,-2.194964408720311,6.133012138353346,-3.225656223343063
-1.717113089423465,-2.0452322942015866,6.100755576119915,-3.2630207183079754
-1.737565412365481,-1.8945457352777906,6.068125368936835,-3.2924846400183942
-1.7565108697182588,-1.7432294483909307,6.035200522536651,-3.3147263983202233
-1.7739431642021681,-1.5915951562194637,6.002053258553449,-3.330438005178661
-1.7898591157643629,-1.4399349664561347,5.968748878501662,-3.340318576535691
-1.8042584654289242,-1.2885157465751378,5.9353456927363055,-3.345068496609618
-1.8171436228946756,-1.1375744791020617,5.901895007770209,-3.3453843814240387
-1.8285193676856961,-0.9873145525642631,5.868441163955969,-3.341954933042245
-1.8383925132113388,-0.837902918617959,5.835021614625546,-3.3354577349565977
-1.8467715423975184,-0.6894680266141253,5.801667037275981,-3.326557003192029
-1.8536662226636595,-0.5420984335075832,5.76840146724406,-3.315902277279717
-1.8590872069987354,-0.39584197968034085,5.735242444471263,-3.304128010169838
-1.8630456267955389,-0.25070541992244444,5.702201164369565,-3.2918539956713335
-1.8655526809947633,-0.10665440345084096,5.669282624412851,-3.279686554856835
-1.8666192250292717,0.036386292435702045,5.636485758864283,-3.268220387153372
-1.8662553621049147,0.17853235318369873,5.60380355499275,-3.2580409749115073
-1.8644700385730777,0.3199393954376437,5.571223145243635,-3.249727408505026
-1.8612706446187013,0.4608023314902323,5.538725871158585,-3.243855467542782
-1.8566626213037989,0.6013545999881831,5.5062873164831565,-3.241000745788899
-1.850649075303917,0.7418671660965015,5.4738773090252675,-3.2417415334202353
-1.843230403642952,0.8826470998469678,5.441459893691065,-3.2466610570032906
-1.8344039326444823,1.0240354070593525,5.408993283121032,-3.2563485063864244
-1.8241635785738888,1.1664035953279464,5.376429798057168,-3.271398022678546
-1.8124995426206094,1.3101481838265108,5.3437158178303825,-3.2924044475511085
-1.7993980607823443,1.4556819785020967,5.310791773354872,-3.3199540959033675
-1.7848412409973233,1.6034203961044429,5.277592232395838,-3.3546080577350996
-1.768807037036279,1.7537603950290062,5.244046151818487,-3.3968745085095806
-1.7512694330859888,1.9070486424046107,5.210077406733391,-3.4471651868787867
-1.7321989466619427,2.06353446548554,5.175605754864603,-3.5057296536735154
-1.7115636020070872,2.2233021105643864,5.140548458327868,-3.5725594701242156
-1.6893305809014434,2.386176403768232,5.104822863626626,-3.6472537862401944
-1.665468816863761,2.55159721558233,5.068350325764224,-3.728839622246309
-1.6399528447079377,2.718463239689487,5.031061929541761,-3.8155472784959374
-1.6127682123110427,2.8849576042126044,4.992906456756802,-3.904558216614192
