th1 (rad),w1 (rad/s),th2 (rad),w2 (rad/s)
1.4406100648846072,-2.4413682151426364,2.757157723764981,2.759008964023192
1.416196382733181,-2.491407888626512,2.7847478134052133,2.6771546818124428
1.3912823038469158,-2.5446628266717357,2.8115193602233375,2.5928126216887732
1.3658356755801984,-2.6013087430398656,2.837447486440225,2.505525433297081
1.3398225881497996,-2.661531800008413,2.8625027407731958,2.4148045261256215
1.3132072701497155,-2.7255298376436263,2.886650786034452,2.32013002083832
1.2859519717732792,-2.7935128721029514,2.9098520862428354,2.2209506511766213
1.2580168430522498,-2.8657028378927434,2.9320615927546014,2.1166839103061927
1.2293598146733224,-2.942332503548546,2.953228431857663,2.006716752812794
1.199936489637837,-3.0236434471285625,2.973295599385791,1.8904071930394521
1.1697000551665515,-3.1098829378073307,2.9921996713161856,1.7670871794445877
1.138601225788478,-3.201299534398878,3.0098705431106314,1.6360671691128132
1.1065882304444894,-3.2981371839569356,3.0262312148017596,1.4966428704642365
1.0736068586049201,-3.4006275886455235,3.041197643506402,1.3481046569070037
1.039600582718465,-3.508980613911469,3.054678690075472,1.1897501676048794
1.0045107765793502,-3.6233725448977645,3.066576191751521,1.0209005877448953
0.9682770511303725,-3.7439320722074116,3.0767851976289697,0.840921019869796
0.9308377304082984,-3.8707240147150737,3.0851944078276676,0.6492451972572193
0.8921304902611477,-4.003730977301537,3.0916868598002396,0.4454045268329051
0.8520931804881323,-4.142833402143923,3.0961409050685686,0.22906106370518223
0.8106648464666931,-4.287788801790003,3.0984315157056206,4.350427730709372e-05
0.7677869584487931,-4.438211344650186,3.0984319507483935,-0.24161534741545693
0.7234048450022912,-4.59355336294881,3.096015797274239,-0.49564189196007147
0.6774693113728031,-4.753090710532276,3.0910593783546383,-0.7614887761559319
0.6299384042674803,-4.915914132276621,3.083444490593079,-1.0383091837943785
0.580779262944714,-5.080928824428631,3.073061398755135,-1.3249421813382958
0.5299699747004277,-5.246864078214219,3.059811976941752,-1.6199127671267914
0.47750133391828553,-5.41229425256191,3.043612849270484,-1.9214495471219009
0.4233783913926664,-5.575671323467792,3.024398353799265,-2.227521623660913
0.3676216781579885,-5.7353679993583455,3.002123137562656,-2.5358944199641695
0.3102679981644051,-5.889729051917387,2.9767641933630142,-2.844201999867599
0.25137070764523123,-6.037127327790632,2.948322173364338,-3.1500313263515416
0.19099943436732492,-6.176020121394148,2.9168218601008227,-3.4510122298365618
0.12923923315338343,-6.305001384070295,2.882311737802457,-3.7449059719224005
0.06618921931268047,-6.4228456827562,2.844862678083233,-4.029685385599809
0.001960762485118478,-6.528540822477144,2.804565824227235,-4.303600632146426
-0.06332464573965296,-6.621307409907807,2.761529817905771,-4.565226414992137
-0.12953771983873102,-6.70060509464908,2.7158775537558495,-4.813488669215499
-0.19654377078522184,-6.766126524549764,2.6677426670636946,-5.047670902410411
-0.2642050360307195,-6.8177810058450925,2.6172659580395905,-5.267402162448933
-0.3323828460891704,-6.85567038475986,2.564591936415101,-5.472629844050892
-0.400939549936769,-6.880059780651752,2.5098656379745923,-5.663581160836776
-0.46974014774328654,-6.891345589262438,2.4532298263662247,-5.840717168234974
-0.538653603635911,-6.890022758931337,2.394822654683875,-6.00468286686916
-0.6075538312252243,-6.876652842259093,2.3347758260151834,-6.15625631281955
-0.6763203596478152,-6.851833836467605,2.273213262886988,-6.296298963356032
-0.7448386980124913,-6.816172410405201,2.2102502732534277,-6.42570881115035
-0.8130004221165432,-6.770258805929875,2.1459931851419243,-6.5453772809945265
-0.880703010175842,-6.714644502943214,2.080539412331979,-6.6561504173765575
-0.9478494552052741,-6.649822641770541,2.0139779081582136,-6.758794587689261
-1.0143476816229795,-6.576211187309404,1.946389962281321,-6.853966755794855
-1.0801097934960735,-6.4941388775367175,1.8778502947233724,-6.9421893267491495
-1.1450511822714406,-6.403834106207031,1.808428401455881,-7.023829605058282
-1.209089523333511,-6.3054170285307425,1.7381901054052982,-7.099084024502334
-1.2721436936188184,-6.198895331820493,1.6671992651602747,-7.167967475173691
-1.3341326469370234,-6.0841642608979525,1.5955195904085377,-7.230308248312709
-1.3949742895460029,-5.961011606380316,1.5232165079254107,-7.28574931201933
-1.454584405609806,-5.829128422594361,1.4503590148052175,-7.33375678353944
-1.5128756898357496,-5.6881262042542815,1.377021446969823,-7.373636530176181
-1.5697569518782923,-5.537561076751202,1.3032850816680612,-7.40455975701626
-1.6251325626458044,-5.376965205693507,1.2292394840978986,-7.425598169693291
-1.6789022147027395,-5.205885081532334,1.1549835024009658,-7.435768787443105
-1.7309610655180627,-5.023925585782401,1.0806258145265348,-7.434087704239184
-1.7812003213758867,-4.830797839958183,1.006284937484143,-7.419631077493653
-1.8295082997754686,-4.626367875009948,0.9320886267092064,-7.391600451682757
-1.875771978525568,-4.410702292665927,0.8581726221923789,-7.349388357393539
-1.9198790014522273,-4.184106517198663,0.7846787386184435,-7.292639186077229
-1.961720066624214,-3.947151158540077,0.7117523467576712,-7.221299876140484
-2.001191578209615,-3.700682578159788,0.6395393479962663,-7.135655174518536
-2.038198403991213,-3.4458150122738456,0.5681827962510809,-7.036343275215593
-2.0726565541139514,-3.183903456133728,0.49781936349892497,-6.924349436496095
-2.1044955886752885,-2.9164986856745703,0.428575869133964,-6.800977511546334
-2.1336605755320344,-2.6452879152636846,0.36056609401850065,-6.66780181263932
-2.160113454684671,-2.3720262670567602,0.2938880758921074,-6.526603920811176
-2.1838337173552387,-2.0984651455412178,0.22862203668399567,-6.379300556959948
-2.204818368810651,-1.8262836240925369,0.16482903111439617,-6.227869205516234
-2.2230812050515762,-1.5570281126173533,0.10255033905923383,-6.074277797795704
-2.2386514861777496,-1.2920641124068206,0.04180756108127679,-5.920423588642134
-2.251572127301818,-1.0325420992916892,-0.01739667480514455,-5.768084701552246
-2.2618975482947348,-0.779377838542126,-0.07507752182066701,-5.6188860205642355
-2.269691326680156,-0.5332459846354182,-0.13126638202630936,-5.47427947398066
-2.27502378652651,-0.2945848053664579,-0.18600917676611595,-5.335537488416722
-2.2779696345801748,-0.06360932840834982,-0.23936455165028317,-5.203757579278327
-2.2786057278642584,0.15966991392785024,-0.2914021274430664,-5.079875673659191
-2.27700902872498,0.375425174104533,-0.3422008841796583,-4.964685755781396
-2.2732547769839346,0.5839890593681343,-0.3918477417374723,-4.858863675664442
-2.2674148863902532,0.7858331578795936,-0.4404363784941167,-4.762993360337157
-2.259556554811457,0.9815490241604697,-0.4880663120974883,-4.677594122825283
-2.2497410645698523,1.1718324071307604,-0.5348422533257411,-4.603148211481671
-2.2380227404985447,1.3574712631022168,-0.5808737354405578,-4.540128139281823
-2.2244480278675223,1.5393378390195989,-0.6262750168333759,-4.489023656342323
-2.209054649477326,1.7183849264941473,-0.6711652533967992,-4.450368466395269
-2.1918708002123846,1.8956462501622497,-0.7156689380607519,-4.424766927332625
-2.172914337710762,2.0722408265228114,-0.7599166073340782,-4.412920994569928
-2.152191929445534,2.2493809540927625,-0.8040458172797774,-4.41565751486697
-2.1296981199046066,2.4283831811884253,-0.8482023924284471,-4.4339555577714345
-2.1054142880927222,2.610680991228673,-0.8925419480061614,-4.468972590915307
-2.0793074781804357,2.797836783028224,-0.9372316739153145,-4.522066610358511
-2.0513291103501534,2.9915485421136894,-0.9824523400188996,-4.594808189040333
-2.0214136249290164,3.193642590980285,-1.0284004219093028,-4.688970675737152
-1.9894771990192135,3.4060365954561327,-1.0752901286666743,-4.806476528577468
-1.9554168330646522,3.630644368420793,-1.123354893952449,-4.949259866027315
-1.9191103893804442,3.8691727597197905,-1.1728474926127221,-5.118975250651274
-1.8804186617832463,4.122727763999773,-1.224037245119235,-5.316435807708557
-1.8391913841432486,4.391102994772368,-1.2772016031963205,-5.540601435293646
-1.795280354195525,4.6715889105208435,-1.332607617549257,-5.786888118339689
-1.7485644650903165,4.957190957842779,-1.3904764987326539,-6.044637996957192
-1.6989925555118888,5.23446859968442,-1.450922878702226,-6.294043549444189
-1.6466478695150446,5.482097056957693,-1.5138633141966678,-6.504070181904248
-1.5918268989454676,5.672658989370137,-1.5789040160157102,-6.6349024880449825
-1.5351003090517663,5.780455793079657,-1.64525304089616,-6.6488518582863545
-1.4772957511209697,5.793925854711203,-1.7117415594790237,-6.527780120306219
-1.4193564925738575,5.723649134989503,-1.7770193606820859,-6.284414280007775
-1.3621200012239625,5.597339752517047,-1.8398635034821635,-5.955485837201994
-1.306146603698792,5.446157579224702,-1.8994183618541836,-5.582707982337722
-1.251685027906545,5.294193269512723,-1.9552454416775609,-5.198130449836331
-1.1987430952114178,5.155849132178567,-2.0072267461759243,-4.820463943020472
-1.147184603889632,5.037946244399439,-2.0554313856061293,-4.457969072725729
-1.0968051414456377,4.942704024506,-2.1000110763333866,-4.112558251231145
-1.0473781012005776,4.869973108127058,-2.141136658845698,-3.7828678086694483
-0.998678370119307,4.818564978118473,-2.1789653369323925,-3.466086618866667
-0.9504927203381224,4.7869492327646395,-2.213626203121059,-3.158917969202164
-0.902623228010476,4.7735836007914205,-2.2452153828130808,-2.858042073727611
-0.8548873920025618,4.777049155815358,-2.2737958035503567,-2.560317962762968
-0.8071169004444082,4.796087616528344,-2.299398983177986,-2.262858998450253
-0.7591560242791248,4.829591420177683,-2.322027573162489,-1.9630525447135152
-0.710860110077348,4.876571967907703,-2.341658098609624,-1.658559435782848
-0.6620943903982709,4.936118350408964,-2.358243692967452,-1.3473106798811905
-0.6127332068941813,5.007352365165316,-2.371716799766264,-1.027509487119429
-0.5626596832425281,5.089382599726577,-2.3819918946374585,-0.6976418475213251
-0.5117658572452624,5.181259124298246,-2.388968313112672,-0.35649619535491855
-0.45995326600227987,5.281930049724296,-2.392533275066221,-0.0031910010847767123
-0.4071339655050369,5.390201399985638,-2.392565185077069,0.36279213538064625
-0.3532319515051805,5.504702143697099,-2.3889372637232626,0.7415733830391245
-0.2981849300682095,5.623856625770143,-2.3815215298928716,1.1328419486677752
-0.24194636381050807,5.745866866134183,-2.370193110406194,1.5358306912388933
-0.18448769514916624,5.868707094605305,-2.354834803493805,1.9493031819982762
-0.1258006242031132,5.9901323554416726,-2.3353417716738223,2.3715577754936787
-0.06589930064869647,6.1077020013979855,-2.3116261939188854,2.8004519406547974
-0.004822280634716611,6.218817475624506,-2.283621674512337,3.233448026408174
0.05736589412152845,6.3207721509618215,-2.2512871942482553,3.6676790247290296
0.12057361563114666,6.41080947281526,-2.214610404000965,4.100030167878728
0.18468171035929926,6.486184596094562,-2.173610102322178,4.527229910359601
0.24954355632024489,6.544224432553304,-2.128337803218582,4.9459425523783
0.3149858006457779,6.5823816946718585,-2.078878377694799,5.352854848698963
0.3808096175924965,6.598280077344575,-2.0253498292078094,5.74475050599094
0.44679241836594225,6.589749872738701,-1.9679023241479,6.1185692462618455
0.5126899170933292,6.554855613832497,-1.9067166316852815,6.471450550219112
0.5782384732316542,6.491919274584406,-1.8420021261830903,6.800765575407275
0.6431576659774982,6.399543658414121,-1.7739944704290176,7.10414335345559
0.7071531025616394,6.276640562936631,-1.7029530368944616,7.379498636822175
0.7699195081910057,6.12246699509538,-1.62915805052624,7.625068355038593
0.8311441781419595,5.936670226308214,-1.552907366975854,7.83946150691189
0.8905108804050417,5.719339153634221,-1.4745127519067351,8.02172371641395
0.9477042719413838,5.471055830353203,-1.3942955147425957,8.17141317969819
1.0024148302449158,5.192937898140188,-1.3125813829456139,8.288680168778543
1.0543442092263178,4.88666082990762,-1.2296945812578284,8.374338656138933
1.103210817525394,4.554449111304962,-1.1459511946964391,8.429916998376868
1.1487553086384437,4.199028131714306,-1.0616520247126704,8.457675695381742
1.1907455899555868,3.8235334257778346,-0.977075267758853,8.460584179580696
1.2289809242133651,3.431380143996274,-0.892469425963046,8.442254794942551
1.2632947256533278,3.026101861376353,-0.8080468780136205,8.406839322185522
1.2935557442670913,2.6111725468753817,-0.7239784847917653,8.358899972114402
1.319667469735845,2.1898275493086543,-0.6403894850706213,8.303271237684749
1.3415657452289316,1.764898368540217,-0.5573567726937738,8.244930528247984
1.3592147289143337,1.3386721716050771,-0.47490746741129397,8.18889412613673
1.3726014506303845,0.9127815209636283,-0.39301852614992666,8.140151492159456
1.3817292658400209,0.4881238983939109,-0.3116170112283321,8.10364650392877
1.38661050482396,0.0648054874054963,-0.2305805461890444,8.084310010879593
1.3872585596980151,-0.3578998844742358,-0.14973744608024847,8.087144887599637
1.3836795608532728,-0.7815872626109956,-0.0688659972042521,8.117362617082344
1.3758636882271629,-1.2087621204932837,0.012307628966571352,8.180568390783826
1.36377606702223,-1.6428916214556495,0.0941133128744096,8.282987180487424
1.3473471508076735,-2.0884578731775787,0.17694318467928385,8.431710315004675
1.3264625720758978,-2.550976562388697,0.26126028782933064,8.634907469823457
1.3009528064520108,-3.0368775800355055,0.3476093625275652,8.901862443933474
1.2705840306516558,-3.5529915926325284,0.4366279869668999,9.24248533230561
1.2350541147253304,-4.105048659348287,0.529052840289956,9.665488800373105
1.1940036281318476,-4.693907493368075,0.625707728293687,10.173457403837874
1.147064553198167,-5.307130742801215,0.7274423023320657,10.751477655124056
1.0939932457701547,-5.9031046152528885,0.8349570788833063,11.345331508246574
1.0349621996176257,-6.390999106534996,0.948410393965772,11.833563621184899
0.9710522085522757,-6.634607727938507,1.066746030177621,12.031944196849693
0.9047061312728906,-6.531733284419952,1.187065472146118,11.801670065700511
0.8393887984286911,-6.127701271223504,1.3050821728031232,11.203894384221396
0.778111785716456,-5.5843217611621165,1.4171211166453372,10.455208712235097
0.7222685681048349,-5.03745876818441,1.521673203767688,9.733418398582574
0.6718939804229908,-4.545571557091076,1.6190073877535138,9.110694551586716
0.62643826485208,-4.11945103499811,1.710114333269381,8.596219750089725
0.5852437545020989,-3.752382042929426,1.7960765307702782,8.177390337719823
0.5477199340728046,-3.4338011220715083,1.8778504341474764,7.83787011087642
0.5133819228520895,-3.153791871624705,1.9562291352562406,7.563202064954162
0.48184400413584244,-2.9041298976825147,2.031861155905782,7.341883835683422
0.45280270515901727,-2.6782498075442667,2.1052799942626166,7.165102306527273
0.4260202070835746,-2.4709527895073427,2.1769310173278895,7.026192522817587
0.40131067918850116,-2.2781076503856976,2.2471929425560653,6.920128934585304
0.3785296026846442,-2.096410422196847,2.3163942319019184,6.84311312403085
0.3575654984626757,-1.9232101833235582,2.3848253631422267,6.792250837291905
0.3383333966294401,-1.7563942061802487,2.452747871515146,6.765294587661397
0.3207694545676376,-1.594324355059941,2.52040081739176,6.7604275779785326
0.3048262110170382,-1.435818899111301,2.5880050931715455,6.776068060304524
0.2904680220259252,-1.2801761440123243,2.6557657737745908,6.810677303468958
0.27766626058580196,-1.1272370278293435,2.72387254680928,6.862559013226491
0.26639389030750854,-0.9774819295509181,2.792498136941545,6.92964458657924
0.2566190710119994,-0.8321511468878175,2.8617945828073372,7.009268848172068
0.24829755954312122,-0.6933676546798702,2.931887271289058,7.097956741843929
0.24136388299632253,-0.5642247800617282,3.0028668387074973,7.191263260198151
0.23572163519570524,-0.44878324679294546,3.074779471309479,7.28373323358695
0.2312338027277758,-0.3519099512190004,3.1476168036453482,7.369064070201521
0.2277147032155858,-0.2788992936540106,3.2213074443473633,7.440544826084531
0.22492571027904568,-0.23486269584447161,3.2957128926082087,7.491789092267619
0.22257708332060097,-0.22395677338235653,3.370630783530885,7.517672725092464
0.22033751558677742,-0.24862022028434402,3.4458075107818096,7.515263039610301
0.217851313383934,-0.3090476219842935,3.5209601411779126,7.48445519385573
0.21476083716409106,-0.4030893745624375,3.5958046931164698,7.428083662080961
0.21072994341846668,-0.5266269436604343,3.670085529737279,7.351454117487683
0.20546367398186233,-0.6743009134709906,3.743600070912156,7.261454477644741
0.19872066484715242,-0.8403617625180614,3.816214615688603,7.165533060266923
0.19031704722197182,-1.0194186452608243,3.8878699462912722,7.070819377748452
0.18012286076936357,-1.2069519923924863,3.9585781400687567,6.983547414600558
0.16805334084543871,-1.3995647869499763,4.028413614214762,6.908806651190713
0.15405769297593896,-1.595023278056758,4.097501680726669,6.850555420883645
0.13810746019537137,-1.7921666192378953,4.166007234935505,6.811799590950655
0.12018579400299242,-1.9907591832363885,4.234125230845012,6.794849845048143
0.10027820217062854,-2.1913385721603955,4.302073729295493,6.8015986682038
0.07836481644902459,-2.3950907318792907,4.370089715977532,6.833786472996174
0.05441390913023168,-2.603767509586256,4.4384275807074935,6.893247822427036
0.028376234034369126,-2.819652546087938,4.507360058931764,6.982142496207239
0.00017970857348974592,-3.045577209405538,4.5771814838938365,7.1031839999058315
-0.030276063520565635,-3.2849873115067783,4.648213323892895,7.259882070315505
-0.06312593663563341,-3.5420613789123565,4.72081214459605,7.456816712480391
-0.09854655042475699,-3.8218792399368313,4.795380311720854,7.699957862732546
-0.1367653428241253,-4.130629704080412,4.87237989034818,7.997030424482665
-0.1780716398649294,-4.47581400899451,4.952350194593007,8.357880743313165
-0.22282977995487452,-4.8663121098008935,5.035929002026139,8.79467936858582
-0.2714929010528835,-5.311943524037292,5.123875795711997,9.321474172022016
-0.3246123362932564,-5.821563233079919,5.217090537432217,9.951794542183592
-0.3828279686240556,-6.39735539022987,5.316608482854052,10.691095138242972
-0.4468015225263543,-7.020363187698276,5.423519434236482,11.517149876669835
-0.517005154403337,-7.62043034751448,5.53869093300318,12.338794277818069
-0.5932094578784819,-8.037965475461336,5.662078875781361,12.942945399875208
-0.6735891126330953,-8.050136049550176,5.791508329780114,13.030162485293934
-0.754090473128597,-7.5667330500671675,5.921809954633053,12.483763642164698
-0.8297578036292687,-6.780813154474087,6.0466475910547,11.573206545232146
-0.8975659351740095,-5.952291803723616,6.162379656507022,10.652166925141344
-0.9570888532112457,-5.203098506328511,6.268901325758435,9.881308237922685
-1.0091198382745308,-4.551526631234159,6.367714408137662,9.28082510521923
-1.0546351045868723,-3.9817776723091924,6.460522659189854,8.826870074336458
-1.094452881309964,-3.4733154994973092,6.548791359933219,8.491048667028233
-1.129186036304937,-3.0085124708644146,6.633701846603501,8.250125968257324
-1.1592711610135813,-2.573572336797444,6.716203106286074,8.086772682957724
-1.1850068843815558,-2.1579076603500744,6.797070833115652,7.9883663012389015
-1.2065859609850564,-1.753380835774205,6.87695449612804,7.945685537064687
-1.2241197693427985,-1.3537178956423963,6.956411351498687,7.951861144113568
-1.2376569482992226,-0.9541207213507297,7.035929962939822,8.001581414017984
-1.2471981555127298,-0.5510437573533613,7.115945777080002,8.090484080909635
-1.2527085930862634,-0.14209738140004413,7.1968506178890985,8.214672453611064
-1.254129566900264,0.27395431257479297,7.2789973424252095,8.370313581544558
-1.251390023774516,0.6971302968144124,7.362700478240655,8.5532966821745
-1.2444187208063717,1.12613442734835,7.4482334450624,8.758948948032504
-1.2331573765328883,1.5582584454296287,7.5358229345427254,8.981823098489748
-1.217574792078592,1.9893298833325816,7.625641165527623,9.215585395209667
