th1 (rad),w1 (rad/s),th2 (rad),w2 (rad/s),a1 (rad/s^2),a2 (rad/s^2)
6.089300582696029,3.038493301564454,3.429099710132601,-2.6576858063328768,5.564969702694504,11.986173510548246
6.119685515711674,3.094142998591399,3.4025228520692723,-2.5378240712273943,5.501682340934238,11.484207611598782
6.150626945697588,3.1491598220007413,3.3771446113569983,-2.4229819951114067,5.2602928837805205,10.763758886043853
6.182118543917595,3.2017627508385464,3.352914791405884,-2.315344406250968,4.82811747922516,9.800580229445579
6.214136171425981,3.250043925630798,3.3297613473433745,-2.217338603956512,4.201227381433562,8.583279957435975
6.246636610682289,3.292056199445134,3.3075879613038093,-2.131505804382152,3.386941722071431,7.117119318903339
6.279557172676741,3.325925616665848,3.2862729032599876,-2.060334611193119,2.405349632994536,5.426417272358103
6.3128164288434,3.3499791129957934,3.2656695571480565,-2.006070438469538,1.2893765659552818,3.55479586865814
6.346316219973358,3.362872878655346,3.245608852763361,-1.9705224797829564,0.08312970161785922,1.5628212226330669
6.379944948759911,3.3637041756715247,3.2259036279655313,-1.9548942675566257,-1.1614092427050127,-0.4768971097104824
6.413581990516626,3.3520900832444744,3.206354685289965,-1.9596632386537305,-2.3889166942730857,-2.4865234478211757
6.44710289134907,3.3282009163017436,3.1867580529034276,-1.9845284731319421,-3.545781250674564,-4.390657849249367
6.480384900512088,3.292743103794998,3.166912768172108,-2.028435051624436,-4.584863582904292,-6.123577464749718
6.513312331550038,3.246894467965955,3.146628417655864,-2.089670826271933,-5.46922980666247,-7.634908648040595
6.545781276229698,3.19220216989933,3.1257317093931447,-2.166019912752339,-6.174369842160993,-8.892959933601238
6.577703297928691,3.1304584714777204,3.104071510265621,-2.254949512088351,-6.688739226958355,-9.885464032138808
6.609007882643469,3.063571079208137,3.0815220151447376,-2.3538041524097393,-7.012781385834461,-10.617984334214665
6.63964359343555,2.9934432653497924,3.0579839736206402,-2.459983995751886,-7.1568223278012315,-11.11061329820804
6.669578026089048,2.9218750420717803,3.0333841336631213,-2.5710901287339665,-7.138341413058848,-11.393761192493262
6.698796776509766,2.850491627941192,3.0076732323757818,-2.685027740658899,-6.979110617003738,-11.503806370026586
6.727301692789178,2.7807005217711542,2.980822954969193,-2.8000658043591646,-6.702592507001848,-11.479207159066934
6.7551086980068895,2.7136745967011358,2.9528222969256013,-2.914857875949834,-6.331840686024789,-11.35743822645813
6.782245443973901,2.650356189840888,2.923673718166103,-3.028432258214415,-5.888000081745378,-11.172882592936903
6.8087490058723095,2.591476189023434,2.893389395583959,-3.1401610841437844,-5.389388436318292,-10.955631471393499
6.834663767762544,2.537582304660251,2.8619877847425212,-3.2497173988577193,-4.851067324111749,-10.731035673561962
6.860039590809147,2.4890716314191335,2.829490610753944,-3.357027755593339,-4.2847791172263445,-10.51980930186159
6.884930307123338,2.44622384024687,2.7959203331980107,-3.462225848611955,-3.6991253589780317,-10.338491143422397
6.909392545525807,2.40923258665709,2.761298074711891,-3.565610760046179,-3.099879529468343,-10.200101185803122
6.933484871392378,2.3782337913624065,2.725641967111429,-3.66761177190421,-2.4903524164268385,-10.114871910840352
6.957267209306002,2.353330267198138,2.688965849392387,-3.7687604910126136,-1.8717538303888037,-10.090975127709736
6.980800511977983,2.3346127288942498,2.651278244482261,-3.869670242289711,-1.2435162141649665,-10.135199152762192
7.004146639266925,2.3221775667526,2.612581542059364,-3.971022233817333,-0.6035623863101641,-10.253556179916547
7.027368414934451,2.316141942889498,2.572871319721191,-4.073557795616499,0.051488533739891734,-10.451816069302224
7.0505298343633465,2.316656828226897,2.532135741765026,-4.178075956309521,0.7261749376312089,-10.735971822836493
7.0736964026456155,2.323918577603209,2.490354982201931,-4.285435674537886,1.426098435833149,-11.112645037460146
7.096935588421648,2.3381795619615406,2.447500625456552,-4.396562124912487,2.1578684119823617,-11.58943735785158
7.120317384041263,2.3597582460813644,2.403535004207427,-4.5124564984910025,2.929065681206607,-12.175226055137182
7.143914966502076,2.3890489028934305,2.358410439222517,-4.634208759042374,3.7481946126063614,-12.880386396249556
7.167805455531011,2.4265308490194943,2.3120683516320932,-4.76301262300487,4.6245738793990965,-13.716896027033439
7.192070764021206,2.4727765878134855,2.2644382254020448,-4.900181583275204,5.5680818374903716,-14.698228760371565
7.21679852989934,2.528457406188389,2.2154364095692927,-5.0471638708789195,6.588612199239572,-15.83886189786561
7.242083103961225,2.5943435281807847,2.1649647708605033,-5.205552489857576,7.694990321749649,-17.153076558067745
7.268026539243032,2.671293431398281,2.1129092459619274,-5.3770832554382535,8.89291920166667,-18.65248130234142
7.294739473557015,2.760222623414948,2.059138413407545,-5.563608068461668,10.181219728936249,-20.34126854929648
7.322341699791164,2.8620348207043103,2.0035023327229284,-5.7670207539546325,11.545139217847684,-22.207530542163283
7.350962047998207,2.9774862128827873,1.945832125183382,-5.989096059376266,12.944776258552013,-24.207940872725814
7.380736910127035,3.106933975468307,1.8859411645896194,-6.231175468103523,14.295791342209904,-26.241848522661382
7.411806249881718,3.249891888890406,1.8236294099085841,-6.493593953330137,15.439127115725627,-28.11011956233807
7.444305168770622,3.404283160047662,1.7586934703752828,-6.774695148953518,16.098475350198907,-29.456669086362187
7.478348000371099,3.5652679135496514,1.6909465188857475,-7.06926183981714,15.833910262074442,-29.7037511327536
7.514000679506595,3.723607016170396,1.6202539004875762,-7.366299351144677,14.026825806433674,-28.028753176270857
7.551236749668299,3.863875274234733,1.5465909069761294,-7.6465868829073855,9.979651959618892,-23.49704605667194
7.589875502410647,3.9636717938309216,1.4701250381470556,-7.881557343474105,3.2436432520270393,-15.507060295669959
7.629512220348956,3.996108226351192,1.3913094647123145,-8.036627946430805,-5.8419775267014185,-4.524577897896058
7.669473302612468,3.9376884510841776,1.3109431852480065,-8.081873725409766,-15.814047585939312,7.465335903819549
7.708850187123311,3.7795479752247845,1.2301244479939089,-8.00722036637157,-24.585130831110938,17.655334449682627
7.746645666875558,3.533696666913675,1.150052244330193,-7.830667021874744,-30.633113025500002,24.04540561506089
7.781982633544695,3.2273655366586746,1.0717455741114457,-7.590212965724135,-33.72100105201779,26.40192879007021
7.814256288911282,2.890155526138497,0.9958434444542044,-7.326193677823433,-34.55984278061747,25.762739529620763
7.843157844172667,2.544557098332322,0.92258150767597,-7.068566282527225,-34.081390562453564,23.430491429336293
7.86860341515599,2.2037431927077864,0.8518958448506978,-6.834261368233863,-33.00948453717644,20.396706537001585
7.890640847083068,1.873648347336022,0.7835532311683592,-6.630294302863847,-31.7825682496609,17.251102939140143
7.9093773305564286,1.555822664839413,0.7172502881397207,-6.457783273472446,-30.62465032678147,14.289126112742043
7.924935557204822,1.2495761615715981,0.6526724554049962,-6.314892012345025,-29.630916229493316,11.63398063215324
7.937431318820538,0.9532669992766649,0.589523535281546,-6.198552206023493,-28.827978955858775,9.320632136378947
7.946963988813304,0.6649872097180771,0.5275380132213111,-6.1053458846597035,-28.208976138451003,7.343901235259824
7.953613860910485,0.3828974483335671,0.4664845543747141,-6.031906872307105,-27.752137402408476,5.683421102792658
7.95744283539382,0.10537607430948231,0.406165485651643,-5.975072661279178,-27.429994405271653,4.315673579629963
7.958496596136915,-0.1689238697432342,0.3464147590388512,-5.931915925482879,-27.21367503643019,3.2193016142172803
7.956807357439483,-0.4410606201075361,0.28709559978402244,-5.899722909340706,-27.07474236484628,2.37706872911712
7.952396751238408,-0.7118080437559989,0.22809837069061537,-5.875952222049535,-26.985873135423834,1.7762004371851408
7.945278670800848,-0.9816667751102373,0.16933884847012,-5.858190217677683,-26.921039237056462,1.4079704033439182
7.935462003049746,-1.250877167480802,0.11075694629334318,-5.844110513644244,-26.855525902947033,1.2669484598276262
7.922953231374938,-1.5194324265102723,0.05231584115690074,-5.831441029045968,-26.76595041209459,1.3501067373766116
7.907758907109835,-1.7870919306312183,-0.005998569133558944,-5.817939961672202,-26.6303567619009,1.6558749232161036
7.889887987803522,-2.0533954982502274,-0.06417796875028098,-5.801381212440042,-26.42841437194424,2.1831891193138673
7.86935403282102,-2.31767964196967,-0.1221917808746814,-5.779549321246903,-26.141721638808985,2.9305616428871546
7.846177236401323,-2.57909685835776,-0.17998727408715043,-5.750243704818032,-25.754197961137923,3.895196081620918
7.820386267817746,-2.836638837969139,-0.23748971113533074,-5.711291744001823,-25.25253612115675,5.072174692321244
7.792019879438055,-3.089164199180707,-0.29460262857534897,-5.6605699970786105,-24.626678961553484,6.453749075763171
7.761128237446248,-3.335430988796242,-0.3512083285461351,-5.596032506320979,-23.870279852481065,8.028767199126188
7.727773927558285,-3.5741337873210526,-0.4071686536093449,-5.515744834329717,-22.98110571198758,9.782268805534434
7.692032589685075,-3.8039448444409283,-0.46232610195264207,-5.417922146274373,-21.96134443468231,11.695276650810904
7.653993141240666,-4.0235582887877515,-0.5165053234153858,-5.300969379766264,-20.817785154566003,13.74480337300091
7.613757558352789,-4.231736140333411,-0.5695150172130484,-5.163521346036255,-19.561848904534,15.904084366121081
7.571440196949454,-4.427354629378751,-0.621150230673411,-5.004480502375044,-18.20945758221853,18.14303734294765
7.5271666506556665,-4.609449205200937,-0.6711950356971614,-4.823050128945567,-16.78073923600001,20.428940670034482
7.4810721586036575,-4.777256597560937,-0.7194255369866172,-4.618760722245223,-15.299576441824714,22.727315660017013
7.433299592628048,-4.930252361979184,-0.7656131442090693,-4.391487565645052,-13.793011584205875,25.0029924115788
7.383997069008256,-5.068182477821242,-0.8095280198655199,-4.141457641529264,-12.290528707395703,27.221333167600548
7.333315244230043,-5.191087764895199,-0.8509425962808126,-3.8692443098532587,-10.823237481181547,29.349579806963163
7.281404366581091,-5.299320139707015,-0.8896350393793452,-3.575748511783627,-9.422992095616085,31.35828179817826
7.228411165184021,-5.393550060663175,-0.9253925244971815,-3.2621656938018444,-8.121487347130463,33.222747985582544
7.174475664577389,-5.4747649341344795,-0.9580141814351999,-2.929938213946019,-6.9493853751340415,34.92445226470836
7.119728015236044,-5.54425878788582,-0.98731356357466,-2.5806936912989356,-5.935537559139703,36.4523137666186
7.064285427357186,-5.603614163477217,-1.0131205004876493,-2.2161705536327494,-5.106373969845605,37.803771755803076
7.008249285722414,-5.654677903175673,-1.0352822060239768,-1.8381328360747187,-4.4855342275493815,38.98558840109199
6.9517025066906575,-5.699533245451168,-1.053663534384724,-1.4482769520637988,-4.093806322221565,40.01434057111359
6.894707174236146,-5.740471308673383,-1.068146303905362,-1.0481335463526629,-3.9494233935659655,40.91660241984988
6.837302461149412,-5.779965542609043,-1.0786276393688887,-0.6389675221541641,-4.068744136736222,41.72886682314697
6.779502805723322,-5.820652983976405,-1.0850173145904303,-0.22167885392269432,-4.467312800215444,42.49729466982429
6.7212962758835575,-5.865326111978559,-1.0872341031296573,0.2032940927755486,-5.161260526546639,43.27740187228212
6.662643014763772,-5.916938717244026,-1.0852011622019018,0.6360681114983698,-6.168966067166976,44.13377478113698
6.603473627591331,-5.978628377915696,-1.078840481086918,1.0774058593097395,-7.5128226861081355,45.13981361357716
6.543687343812174,-6.053756604776777,-1.0680664224938208,1.5288039954455113,-9.22081515063795,46.37727948584371
6.483149777764406,-6.145964756283156,-1.0527783825393657,1.9925767903039484,-11.327298994597774,47.934934920983785
6.421690130201574,-6.259237746229134,-1.0328526146363262,2.471926139513786,-13.871687897283232,49.9045429678982
6.359097752739283,-6.397954625201966,-1.0081333532411882,2.970971569192768,-16.892265234776215,52.370337701403194
6.295118206487263,-6.566877277549728,-0.9784236375492605,3.4946749462068,-20.409177812315882,55.38359938391923
6.229449433711766,-6.770969055672887,-0.9434768880871925,4.048510940045992,-24.38424384636312,58.90493471716272
6.161739743155037,-7.014811494136518,-0.9029917786867326,4.637560287217619,-28.63323685026809,62.68011689562103
6.0915916282136715,-7.301143862639199,-0.8566161758145564,5.2643614561738294,-32.64874390105451,65.99090101382754
6.018580189587279,-7.627631301649744,-0.8039725612528181,5.924270466312105,-35.2862762873596,67.21522342312089
5.942303876570782,-7.980494064523341,-0.744729856589697,6.5964227005433145,-34.361640966979884,63.26656845817485
5.862498935925549,-8.324110474193139,-0.6787656295842639,7.229088385125063,-26.645836662448172,49.60081172630294
5.779257831183617,-8.590568840817621,-0.6064747457330133,7.725096502388093,-9.615255262097152,22.70500597041006
5.693352142775441,-8.686721393438592,-0.5292237807091323,7.952146562092193,14.303627861844367,-13.9004334594169
5.606484928841056,-8.543685114820148,-0.4497023150882104,7.813142227498024,36.042421511558175,-47.28545641048755
5.521048077692854,-8.183260899704566,-0.3715708928132302,7.340287663393148,47.45257730063144,-65.81559359328979
5.439215468695808,-7.708735126698251,-0.2981680161792987,6.68213172746025,48.6269012422142,-69.53054357246734
5.362128117428826,-7.222466114276109,-0.23134669890469622,5.986826291735577,44.33467120841048,-65.14676692681148
5.289903456286065,-6.779119402192005,-0.17147843598734047,5.335358622467462,38.433268465136166,-58.15436746630832
5.222112262264145,-6.394786717540643,-0.11812484976266585,4.753814947804378,32.725355003192135,-51.162767107896364
5.158164395088738,-6.067533167508722,-0.07058670028462206,4.2421872767254145,27.786440549756787,-45.042603543989195
5.097489063413651,-5.7896687620111535,-0.028164827517367916,3.7917612412855224,23.684601548178943,-39.93413766015549
5.039592375793539,-5.5528227465293645,0.00975278489548731,3.3924198646839674,20.323708154584573,-35.73273682250077
4.984064148328246,-5.349585664983518,0.043676983542326984,3.03509249645896,17.575103939379428,-32.27781786039817
4.93056829167841,-5.173834625589724,0.07402790850691658,2.712314317854978,15.32073335603203,-29.41660117382454
4.878829945422513,-5.020627292029404,0.10115105168546637,2.4181483061167324,13.463534152324351,-27.020991649812053
4.82862367250222,-4.885991950506161,0.1253325347466337,2.147938389618612,11.926928224718592,-24.98846727207955
4.779763752997158,-4.766722668258975,0.1468119186428198,1.8980537168978164,10.651364966114608,-23.238362430781848
4.732096526314568,-4.660209018597829,0.16579245581179797,1.6656700925899979,9.590614460083417,-21.70749178489179
4.6854944361285895,-4.564302873996995,0.18244915673769796,1.44859517474108,8.708597180503302,-20.346323094998017
4.63985140738862,-4.477216902191962,0.19693510848510876,1.2451319437910997,7.9768772419538445,-19.11594195100503
4.5950792383667,-4.397448129772424,0.20938642792301976,1.0539725242810494,7.3727434864031345,-17.985740318299932
4.551104757068976,-4.323720694908392,0.21992615316583025,0.87411512109805,6.87776051375657,-16.931684570451726
4.507867550119892,-4.254943089770826,0.22866730437681076,0.7047982753935327,6.476681058333368,-15.935021041667051
4.465318119222184,-4.190176279187493,0.2357152871307461,0.5454480649768622,6.156632805488777,-14.981301309822097
4.423416356430309,-4.128609951132605,0.24116976778051472,0.3956350518786412,5.906513806244189,-14.059635874270088
4.382130256918983,-4.069544813070163,0.24512611829930112,0.2550386931359403,5.716547554333857,-13.162107830740487
4.341434808788281,-4.012379337526824,0.2476765052306605,0.12341761482853542,5.5779612956753,-12.28329659573718
4.301311015413013,-3.9565997245700713,0.24891068137894587,0.0005846488711636066,5.4827599893020755,-11.419876193965985
4.261745018167312,-3.9017721246770507,0.2489165278676575,-0.11361411306849624,5.423574448470751,-10.570263863977482
4.222727296920542,-3.8475363801923432,0.24778038673697253,-0.21931675170827106,5.393566386501134,-9.734303419755193
4.1842519331186185,-3.7936007163273318,0.24558721921988982,-0.316659785905823,5.386376039660469,-8.912974408362022
4.146315925955345,-3.739736955930727,0.2424206213608316,-0.40578952998944323,5.396100241279774,-8.10812295694789
4.108918556396038,-3.6857759535179295,0.23836272606093717,-0.4868707595589221,5.417290630822803,-7.322213548563025
4.072060796860859,-3.6316030472097016,0.23349401846534795,-0.5600928950445524,5.444963323461079,-6.5581030118301875
4.035744766388762,-3.5771534139750907,0.22789308951490242,-0.6256739251628542,5.4746129577462685,-5.818838961030239
3.9999732322490105,-3.522407284397628,0.22163635026327388,-0.6838623147731566,5.502225616635128,-5.107485002541453
3.9647491594050344,-3.4673850282312766,0.21479772711554232,-0.7349371647985712,5.524286658953769,-4.426974466977653
3.9300753091227216,-3.412142161641739,0.2074483554675566,-0.7792069094683477,5.537780951172207,-3.7799934711282384
3.8959538875063044,-3.356764352130017,0.19965628637287314,-0.8170068441796301,5.540184290399092,-3.1688929804523744
3.862386243985004,-3.301362509226026,0.19148621793107684,-0.8486957739841539,5.529445903911962,-2.5956284180032374
3.829372618892744,-3.2460680501869064,0.1829992601912353,-0.8746520581641862,5.50396276230157,-2.061724389764975
3.796911938390875,-3.1910284225638907,0.17425273960959345,-0.895269302061836,5.462547040034691,-1.568261358880646
3.765001654165236,-3.136402952163544,0.1653000465889751,-0.9109519156506425,5.404388409483653,-1.1158806424927072
3.7336376246436007,-3.0823590680687074,0.15619052743246867,-0.9221107220755695,5.329012991275576,-0.7048039238415827
3.7028140339629134,-3.0290689381559517,0.14696942021171297,-0.9291587613139853,5.236240746272079,-0.3348635372910793
3.672523344581354,-2.9767065306932308,0.1376778325985731,-0.9325073966868961,5.126142928967987,-0.0055400448199979324
3.6427562792744217,-2.9254451014035507,0.12835275863170414,-0.932562797135096,4.999000974328074,0.28399597880456634
3.6135018282603864,-2.87545509166027,0.11902713066035318,-0.9297228373470504,4.85526790080391,0.5348405556311979
3.5847472773437836,-2.826902412652231,0.10972990228688267,-0.9243744317907384,4.695533014624307,0.7483134026880636
3.556478253217261,-2.779947082505988,0.1004861579689753,-0.9168912977638578,4.520490418957253,0.9259171125968709
3.5286787823922015,-2.7347421783164156,0.09131724499133671,-0.9076321266378891,4.330911582345313,1.0692995492969635
3.5013313606090373,-2.6914330624929623,0.08224092372495782,-0.8969391311449194,4.127622012750419,1.180220187132417
3.4744170299841075,-2.6501568423654582,0.07327153241350863,-0.8851369292735952,3.9114819196003396,1.2605207829401106
3.447915461560453,-2.6110420231694547,0.06442016312077267,-0.8725317214441941,3.6833706251530822,1.3121004997344636
3.4218050413287586,-2.574208316917924,0.05569484590633073,-0.8594107164468495,3.4441744042579323,1.3368953937666403
3.3960629581595794,-2.5397665728753447,0.047100738741862234,-0.8460417625091832,3.194777382630969,1.3368620275418042
3.370665292430826,-2.507818799049035,0.038640321116770404,-0.8326731422337651,2.9360551019337224,1.3139648714913943
3.3455871044403356,-2.4784582480296975,0.030313589694432753,-0.8195334935188512,2.6688703591929035,1.270167097560007
3.3208025219600388,-2.4517695444377683,0.02211825475924424,-0.8068318225432511,2.394070942886508,1.207424340384307
3.2962848265156612,-2.4278288350089032,0.01404993653381173,-0.794757579139408,2.1124889135483578,1.1276809981910687
3.2720065381655723,-2.40670394587342,0.006102360742417649,-0.7834807691574973,1.8249411090316696,1.0328686592308365
