th1 (rad),w1 (rad/s),th2 (rad),w2 (rad/s)
0.6605081200700182,-1.465909995548119,0.5879104843883517,-2.8239528231010964
0.645849020114537,-1.5389045204371623,0.5596709561573407,-2.803945002161136
0.6304599749101654,-1.6132833172391057,0.5316315061357294,-2.7798327841232693
0.6143271417377744,-1.6888352584309843,0.5038331782944967,-2.7517616499915984
0.5974387891534645,-1.7653324210023913,0.47631556179458073,-2.719898947335424
0.5797854649434406,-1.842532522536686,0.4491165723212265,-2.6844327702944693
0.5613601397180737,-1.9201810986189798,0.4222722446182818,-2.6455713009280095
0.542158328731884,-1.9980133587937172,0.39581653160900165,-2.603542640738984
0.5221781951439468,-2.0757556860163606,0.36978110520161184,-2.5585951202159736
0.5014206382837832,-2.1531267703594574,0.3441951539994521,-2.5109980371243963
0.47988937058018866,-2.2298383910535025,0.31908517362820815,-2.4610427417341945
0.45759098666965364,-2.305595881826642,0.2944747462108662,-2.4090439590359813
0.4345350278513872,-2.3800983334434136,0.2703843066205064,-2.3553412135785448
0.41073404451695306,-2.4530386049978006,0.24683089448472095,-2.3003002009837266
0.3862036584669751,-2.5241032324774664,0.2238278924748837,-2.244313930755656
0.3609626261422004,-2.592972339650921,0.20138475316732712,-2.1878034474923322
0.3350329027456912,-2.65931967216808,0.1795067186924038,-2.131217922605586
0.3084397060240104,-2.7228128899247546,0.15819453946634796,-2.0750338977530545
0.28121157712476286,-2.7831142634117785,0.13744420048881742,-2.0197534571331595
0.25338043449064507,-2.8398819242891444,0.11724666591748582,-1.9659011124988697
0.22498161524775362,-2.8927718154110686,0.09758765479249712,-1.9140192070574185
0.19605389709364293,-2.941440467203006,0.07844746272192293,-1.8646616876138158
0.16663949242161286,-2.98554869207327,0.059800845845784774,-1.8183861631922993
0.13678400550088016,-3.024766233893974,0.041616984213861785,-1.7757442659954332
0.10653634316194041,-3.0587773350813037,0.023859541553907453,-1.7372704566901618
0.07594856981112738,-3.087287092226298,0.006486836987005834,-1.7034695654904324
0.045075698888864396,-3.1100283694167845,-0.01054785866789849,-1.6748035220780026
0.013975415194696552,-3.1267689374689644,-0.027295893888678518,-1.6516778834699015
-0.01729227417999309,-3.1373184218629495,-0.043812672723377535,-1.6344288968500733
-0.04866545839862259,-3.1415345883416803,-0.06015696169187827,-1.6233119095248671
-0.0800808042820394,-3.1393284873565404,-0.07639008078712695,-1.618491938690781
-0.1114740891556048,-3.1306680260398148,-0.09257500017403475,-1.620037126016672
-0.14278076941600296,-3.1155796399134306,-0.10877537143420146,-1.6279156255886225
-0.17393656581513725,-3.094147886748274,-0.12505452769008768,-1.641996223517246
-0.20487804468262,-3.0665129631050996,-0.14147448992526013,-1.662052692871119
-0.235543174313671,-3.032866325185736,-0.15809501685397132,-1.6877715875105943
-0.26587183756552835,-2.9934447536695292,-0.17497273272907726,-1.718762913639184
-0.2958062851022236,-2.948523315567908,-0.19216036186546911,-1.754572922732673
-0.3252915182579027,-2.8984077318933292,-0.20970609109279584,-1.7946981650232376
-0.35427559557683597,-2.843426655916268,-0.2276530727430282,-1.8385999336102614
-0.38270986213599867,-2.783924310770078,-0.2460390720791308,-1.8857183047782593
-0.4105491052436995,-2.7202538420219686,-0.2648962551269134,-1.9354851182453896
-0.43775164366391917,-2.652771628494642,-0.2842511063093673,-1.9873354146117839
-0.4642793599488656,-2.5818326802474285,-0.30412446045548513,-2.040717029604199
-0.4900976867513399,-2.507787149761523,-0.32453163075152713,-2.0950982141885004
-0.5151755582489551,-2.430977899603367,-0.34548261289341214,-2.1499732918626457
-0.5394853372449888,-2.3517390107385743,-0.3669823458120386,-2.204866472574496
-0.5630027273523746,-2.2703950797037207,-0.38903101053778355,-2.259334016173156
-0.5857066781494118,-2.187261136716154,-0.4116243506995151,-2.3129649809512727
-0.6075792895165734,-2.1026430158139275,-0.4347540005090278,-2.3653808109258057
-0.6286057196747127,-2.016838017295683,-0.45840780861828584,-2.4162340160069338
-0.6487740998476695,-1.9301357176044394,-0.4825701487783552,-2.4652061886023016
-0.668075457023714,-1.8428187988424387,-0.5072222106643782,-2.512005583786963
-0.6865036450121383,-1.7551637868999856,-0.5323422665022478,-2.556364471730831
-0.7040552828811382,-1.6674416024126664,-0.5579059112195561,-2.598036452881151
-0.7207296989052648,-1.579917842096681,-0.5838862757483676,-2.63679390931863
-0.7365288773262316,-1.4928527199409571,-0.610254214841554,-2.6724257494303796
-0.7514574045256412,-1.4065006093806736,-0.6369784723358578,-2.704735586325816
-0.765522410619448,-1.3211091404884878,-0.6640258281991159,-2.733540471364977
-0.7787335020243329,-1.2369178221301396,-0.6913612329127657,-2.7586702805445475
-0.7911026802456342,-1.154156179568864,-0.7189479357182113,-2.779967821127036
-0.8026442420413229,-1.0730414243493702,-0.7467476139294816,-2.797289687160746
-0.8133746562848166,-0.9937757057975217,-0.7747205108010891,-2.810507844833861
-0.8233124133427918,-0.9165430312799219,-0.8028255892494277,-2.819511872929298
-0.8324778436555911,-0.8415059831291853,-0.8310207079787207,-2.82421172299415
-0.840892903486883,-0.768802399930176,-0.8592628252086623,-2.824540803363934
-0.8485809274861847,-0.6985422234117659,-0.8875082332423017,-2.8204591379367216
-0.8555663497203024,-0.6308047335147358,-0.9157128246216689,-2.811956312718604
-0.8618743970554498,-0.5656363976204144,-0.9438323877488549,-2.79905390856873
-0.8675307610316539,-0.5030495412819408,-0.9718229268345422,-2.781807133255741
-0.8725612564444734,-0.4430220057216487,-0.9996409981670996,-2.760305412311158
-0.8769914765016898,-0.38549789407549195,-1.027244052290211,-2.7346717738652813
-0.8808464554424448,-0.33038942986766395,-1.054590770028864,-2.7050609602589195
-0.8841503497411214,-0.2775798665130534,-1.081641379631453,-2.6716563071481265
-0.886926148406252,-0.22692730633016317,-1.1083579427029342,-2.6346655352458477
-0.8891954214695535,-0.17826922173079038,-1.1347045980553927,-2.5943156873253765
-0.8909781136868614,-0.13142742771938232,-1.1606477549286465,-2.550847503117906
-0.8922923879640552,-0.08621323765783434,-1.1861562299598256,-2.50450955151803
-0.8931545203406336,-0.04243254330134271,-1.2112013254750058,-2.4555524327963805
-0.893578845773647,0.0001094085050076174,-1.2357568498029696,-2.4042233279919722
-0.8935777516885969,0.041603722860628474,-1.2597990830828893,-2.350761116471399
-0.8931617144599906,0.08223417252494077,-1.2833066942476032,-2.2953922154742266
-0.8923393727347412,0.12217419089208623,-1.3062606164023456,-2.2383272266405774
-0.8911176308258203,0.16158455940775035,-1.3286438886687513,-2.1797584116156004
-0.8895017852317428,0.20061176415327214,-1.3504414727849072,-2.1198579669332904
-0.8874956675902101,0.23938696473841364,-1.37164005245424,-2.0587770299886965
-0.8851017979428261,0.2780254981296043,-1.392227822754127,-1.9966453232694579
-0.88232154296153,0.31662682952685395,-1.4121942759868216,-1.9335713317759726
-0.8791552746662614,0.3552748600792131,-1.4315299893045812,-1.8696429064138038
-0.8756025260654693,0.39403850500130955,-1.4502264183687192,-1.804928191440449
-0.8716621410154561,0.432972463485284,-1.4682757002831237,-1.7394767842252985
-0.8673324163806033,0.47211811192637104,-1.4856704681253767,-1.6733210484248122
-0.8626112352613396,0.5115044629988509,-1.5024036786096249,-1.6064775154504871
-0.8574961906313512,0.5511491440202088,-1.5184684537641298,-1.53894832257429
-0.851984699191149,0.5910593581624518,-1.5338579369898726,-1.470722648376788
-0.8460741056095246,0.6312328010346535,-1.5485651634736406,-1.4017781170586396
-0.839761777599178,0.6716585128105638,-1.562582944644227,-1.3320821522359108
-0.8330451924710723,0.7123176524012674,-1.575903766166586,-1.2615932682370117
-0.8259220159470597,0.7531841852632126,-1.588519698848956,-1.1902622927405595
-0.8183901740944276,0.7942254804277491,-1.6004223217763616,-1.1180335190256043
-0.8104479192901501,0.8354028154037505,-1.6116026569666175,-1.0448457893567022
-0.8020938911361126,0.8766717899063887,-1.6220511148601846,-0.9706335133013301
-0.7933271732370487,0.9179826510589042,-1.631757449993198,-0.8953276262632853
-0.7841473467264597,0.9592805339395214,-1.6407107262558307,-0.8188564943747882
-0.7745545413870645,1.000505622222035,-1.6488992911995786,-0.741146772256005
-0.7645494851648441,1.0415932342856424,-1.6563107589221386,-0.6621242201305919
-0.7541335528219877,1.0824738406282688,-1.6629320011234445,-0.5817144864620069
-0.743308814415705,1.1230730187721398,-1.6687491459880646,-0.4998438617089718
-0.7320780842279836,1.1633113521504401,-1.6737475846051544,-0.416440008033322
-0.7204449707064792,1.2031042797468197,-1.6779119846854875,-0.33143266885940126
-0.7084139279090109,1.2423619035520064,-1.6812263113740815,-0.24475436110045662
-0.6959903088734909,1.280988761221445,-1.683673854985086,-0.15634105164597223
-0.6831804212612764,1.318883571674397,-1.6852372655015457,-0.06613281835157911
-0.6699915855445324,1.355938961770807,-1.6858985936850615,0.025925505705298293
-0.6564321959268243,1.3920411826333503,-1.6856393386280084,0.11988370754118576
-0.6425117841004908,1.4270698246379332,-1.6844405015525965,0.21578559370691702
-0.6282410858541114,1.4608975405597575,-1.6822826456155273,0.31366842022836
-0.6136321104485138,1.4933897868108748,-1.6791459614132438,0.41356236133794544
-0.5986982125804051,1.5244045931096963,-1.6750103377998644,0.515490027273701
-0.5834541666493082,1.5537923712477828,-1.6698554375271275,0.6194660434523521
-0.5679162429368303,1.5813957738231492,-1.663660777092604,0.7254967053601415
-0.5521022851985988,1.607049613845709,-1.6564058100390024,0.833579725503976
-0.5360317890601417,1.6305808559384434,-1.6480700127839627,0.9437040906717188
-0.5197259805007572,1.6518086894036723,-1.6386329718772454,1.055850049500144
-0.5032078936067205,1.6705446926430099,-1.628074471382244,1.1699892518699824
-0.48650244668029036,1.6865930972599747,-1.6163745788635442,1.2860850628599505
-0.4696365157076906,1.6997511585896803,-1.6035137282349448,1.4040930748101172
-0.4526390041217938,1.709809637355305,-1.5894727974868437,1.523961841380006
-0.4355409077482408,1.7165533946279274,-1.5742331790730435,1.645633857247117
-0.4183753738019615,1.7197620992710059,-1.5577768405005723,1.7690468061856464
-0.40117775280925144,1.71921104362295,-1.540086372438716,1.8941350986023275
-0.38398564237302196,1.7146720593950475,-1.5211450214526927,2.0208317170953047
-0.3668389217790715,1.7059145217794969,-1.5009367042817396,2.1490703851465938
-0.34977977656127657,1.6927064257903182,-1.4794460004302736,2.2787880695476526
-0.3328527123033734,1.6748155152116002,-1.4566581197347972,2.409927821445734
-0.3161045571512574,1.6520104416409092,-1.4325588415203399,2.5424419537752305
-0.2995844527348483,1.624061929592772,-1.4071344219825876,2.6762955439757983
-0.28334383343892056,1.5907439242892178,-1.3803714665428297,2.8114702397742586
-0.2674363941960284,1.551834702731793,-1.352256764145087,2.947968331580387
-0.25191804716871047,1.5071179374591257,-1.3227770808292831,3.0858170363808073
-0.2368468677941192,1.4563837181732049,-1.2919189104654751,3.2250729128089666
-0.22228303061238716,1.3994295621417585,-1.2596681813373856,3.3658262920629296
-0.2082887349909696,1.3360614841592597,-1.2260099184167563,3.508205559543547
-0.194928120149377,1.2660952568698285,-1.190927862821321,3.652381049933871
-0.1822671675806787,1.1893580810104518,-1.1544040523219823,3.7985682126173614
-0.17037358677057418,1.1056910149367316,-1.1164183701958086,3.947029548083921
-0.15931667662120685,1.014952701210977,-1.0769480747149693,4.098074584836826
-0.14916714960909708,0.9170251997948622,-1.0359673288666011,4.252056825208842
-0.13999689761114845,0.8118231264660087,-0.9934467606145128,4.409366088420743
-0.13187866634648837,0.6993078461074211,-0.9493530997303053,4.570413954543669
-0.12488558788541416,0.57950923747367,-0.9036489601848686,4.735608982136608
-0.11909049551067746,0.45255858319941566,-0.8562928703635025,4.905316948120733
-0.11456490967868331,0.3187374734698447,-0.8072397008822952,5.079799483055277
-0.11137753494398486,0.17854917760804653,-0.7564417060517424,5.259122207482688
-0.1095920431679044,0.032820431156844077,-0.7038504839769155,5.443021184816894
-0.10926383885633596,-0.1171578133637789,-0.6494202721287465,5.630715254170002
-0.11043541698997375,-0.2694442272075313,-0.5931131195870465,5.82065400179873
-0.11312985926204906,-0.42121734117951415,-0.5349065795690592,6.010201431801545
-0.1173420326738442,-0.5685238451991834,-0.47480456525104375,6.195281327180059
-0.12302727112583603,-0.7060644108517238,-0.4128517519792432,6.37006071025532
-0.13008791523435326,-0.8271336165083812,-0.34915114487668997,6.52682518445642
-0.13835925139943706,-0.9238898078290785,-0.28388289303212577,6.656281634902307
-0.14759814947772784,-0.988138228769581,-0.21732007668310271,6.748537079696753
-0.15747953176542365,-1.0126797330715027,-0.14983470588613518,6.794829307860273
-0.16760632909613868,-0.992962854437281,-0.08188641280753245,6.7896635267649845
-0.1775359576405115,-0.9284160532010101,-0.013989777539882606,6.732525482888451
-0.1868201181725216,-0.8227697444693496,0.0533354772890019,6.628256439930574
-0.19504781561721507,-0.6831291515434971,0.11961804168830764,6.4857888453536345
-0.20187910713265003,-0.5182495512071363,0.184475930141844,6.3158659018945045
-0.2070616026447214,-0.3368111286317472,0.24763458916078904,6.128813210094109
-0.21042971393103888,-0.14627140923097334,0.30892272126173015,5.93311423372856
-0.21189242802334862,0.04758729057872954,0.36825386359901574,5.7349162178898965
-0.21141655511756133,0.2406098809060357,0.4256030257779147,5.5381843767867664
-0.20901045630850096,0.42997963707130754,0.48098486954578235,5.345149697958165
-0.2047106599377879,0.6138756497575628,0.534436366525364,5.156803297223512
-0.19857190344021225,0.7911704525308069,0.5860043994975991,4.973319205997223
-0.19066019891490418,0.9611975056039225,0.6357375915575714,4.794373078375022
-0.18104822385886496,1.1235863220248994,0.6836813223413216,4.61936503271986
-0.16981236063861596,1.2781518000755736,0.7298749726685202,4.447567824751505
-0.1570308426378602,1.4248230842123069,0.7743506509160353,4.278221664025377
-0.14278261179573715,1.5635996870756717,0.817132867556289,4.110592757247545
-0.12714661492498042,1.6945257126459894,0.8582387951287644,3.944007922206818
-0.11020135779852053,1.8176757299586614,0.8976788743508326,3.7778736920399107
-0.0920246004989339,1.9331479023038485,0.9354576112712317,3.611685455366484
-0.07269312147589542,2.0410614356407155,0.9715744658248966,3.4450302052128032
-0.052282507119488265,2.1415564102629254,1.0060247678770247,3.277585168971971
-0.03086694301685901,2.2347947345067296,1.0388006195667443,3.1091137580133417
-0.008518995671791714,2.320961412216891,1.0698917571468778,2.9394597537091616
0.014690618450377196,2.4002656205596877,1.0992863546839695,2.768540327445631
0.03869327465597407,2.4729413015027433,1.1269717579584257,2.5963383018499204
0.06342268767100151,2.539247111603485,1.1529351409769248,2.4228939502284335
0.08881515878703636,2.59946567171141,1.1771640804792092,2.2482965693135974
0.11480981550415045,2.653902124166376,1.1996470461723452,2.0726760264538466
0.14134883674581422,2.7028820485257445,1.2203738064368836,1.8961944635059533
0.16837765723107168,2.746748813165115,1.2393357510719432,1.719038328099356
0.19584514536272282,2.78586045277742,1.2565261343529368,1.5414108942406124
0.22370374989049702,2.8205861632171585,1.2719402432953428,1.3635254263319725
0.2519096115226686,2.8513024969926297,1.2855754975586626,1.1855991330969702
0.2804226364925949,2.878389326266427,1.2974314888896323,1.007848051222349
0.3092065297552592,2.9022256164598677,1.307509969401856,0.8304829940350612
0.3382287859198579,2.9231850232234287,1.3158147993422065,0.65370669995787
0.3674606361520922,2.941631289204357,1.3223518663417853,0.4777123207324738
0.39687694904413573,2.957913375166522,1.32712898954911,0.30268340230603785
0.42645608279580094,2.9723602130567235,1.3301558235721704,0.1287955333173985
0.4561796849263682,2.9852749172916058,1.3314437789053444,-0.04378013204652398
0.48603243409928426,2.9969282363224297,1.331005977584879,-0.21487122927281097
0.5160017164625086,3.007550972428167,1.3288572652921509,-0.3842961230207102
0.5460772261867902,3.0173250495482486,1.3250143040619438,-0.5518530932519436
0.5762504766822727,3.026372877503227,1.3194957731294243,-0.7173064039083399
0.606514205457305,3.0347446645984895,1.3123227090903409,-0.8803689070085613
0.6368616521032898,3.042403399299195,1.3035190200202553,-1.040680937514638
0.6672856860962818,3.049207401084646,1.293112210645109,-1.197785506310059
0.6977777601071282,3.0548906953641155,1.2811343555820083,-1.3511002902295512
0.7283266670607694,3.059042079615674,1.2676233526797127,-1.4998877632215906
0.7589170878569261,3.0610847043616998,1.2526244750474969,-1.6432261306797797
0.7895279349005432,3.0602593485707907,1.236192213740699,-1.7799855939646116
0.8201305283862511,3.055616276246266,1.218392357801053,-1.908816812006864
0.8506866911487138,3.0460223511627396,1.1993041896809842,-2.0281608611092627
0.8811469146603411,3.0301913331706594,1.1790225810698916,-2.1362916412416704
0.9114488279920477,3.006744920172909,1.1576596646574748,-2.231401051470134
0.9415162771937768,2.97430879667962,1.1353456541427736,-2.311732497634152
0.971259365160573,2.9316406954500054,1.112228329166432,-2.3757580228857
1.000575772115073,2.8777766861787013,1.0884707489375751,-2.4223791983902507
1.02935353897686,2.812170487424449,1.0642469569536726,-2.4511160230328546
1.0574752438511046,2.7347938939151675,1.039735796723344,-2.462238982046168
1.0848231827902564,2.64616988692135,1.0151134069028824,-2.4568047424594814
1.1112848816594698,2.5473252790309537,0.9905453594782876,-2.4365778840821966
1.1367581344497792,2.439671938690494,0.9661795806374657,-2.4038525322481874
1.1611548538366843,2.3248451037335953,0.9421410553149838,-2.3612151034661557
1.1844033048740201,2.204535515625255,0.9185289042803223,-2.3113006322143432
1.2064486600302726,2.080347022341452,0.8954158979581789,-2.256587533093882
1.2272521302536872,1.9536976604622078,0.8728500226272401,-2.1992560181380254
1.2467891068583092,1.825767428364978,0.8508574624458598,-2.1411142566438057
1.265046781141959,1.6974854255245477,0.8294463198794217,-2.0835814040411367
1.2820216353972045,1.5695443907095337,0.8086105058390104,-2.027710104624278
1.2977170793042998,1.4424307115203618,0.7883334047927676,-1.9742312243045488
1.3121413864195035,1.3164605074855882,0.7685910925497221,-1.9236072542317801
1.3253059914943595,1.1918155646399924,0.7493550200074043,-1.876085412841591
1.3372241471407593,1.068575670114137,0.7305941658789884,-1.8317454669683038
1.3479099038419007,0.9467458881900271,0.7122767112093054,-1.7905401645799695
1.357377362723801,0.8262785563418987,0.6943713095635057,-1.7523279566848473
1.36564014828722,0.7070904389799629,0.6768480299966572,-1.7168986402327557
1.3727110526770196,0.5890757546429413,0.6596790435943296,-1.6839929596907037
1.378601810223449,0.47211584774833026,0.6428391139974226,-1.6533172898335302
1.3833229687009323,0.3560862175694302,0.6263059410990872,-1.6245544424584983
1.3868838308766267,0.24086151169223569,0.6100603966745022,-1.597371491295672
1.389292445993549,0.12631897588059132,0.5940866817615454,-1.5714253457681284
1.390555635752355,0.012340745260230906,0.5783724283038642,-1.546366651817654
1.3906790432049574,-0.10118472969895151,0.5629087617856876,-1.5218424673760318
1.3896671959079678,-0.21436190329799204,0.5476903371119273,-1.4974980534624358
1.3875235768749878,-0.327287840315324,0.532715356577303,-1.4729780375602446
1.3842506984718346,-0.44005229194973255,0.5179855762017005,-1.447927140560107
1.3798501755523374,-0.5527380608542918,0.5035063047960994,-1.4219906085540142
1.3743227949437944,-0.6654215996647336,0.48928639871055923,-1.3948144528322495
1.367668578947147,-0.7781738062234705,0.47533825418223674,-1.3660455727992467
