th1 (rad),w1 (rad/s),th2 (rad),w2 (rad/s),a1 (rad/s^2),a2 (rad/s^2)
1.5831328985162607,-1.024901832465764,2.5876689410648726,2.5341432620823565,-6.388213637598184,-2.614395708672019
1.572883880191603,-1.0887839688417458,2.613010373685696,2.507999304995636,-6.397451316346201,-2.7268261363947266
1.5619960405031854,-1.1527584820052077,2.6380903667356526,2.480731043631689,-6.414329160313719,-2.8526712872724445
1.5504684556831334,-1.216901773608345,2.6628976771719692,2.4522043307589647,-6.439576064070968,-2.9926674209383446
1.53829943794705,-1.2812975342490547,2.687419720479559,2.422277656549581,-6.473942610171,-3.1476422869380905
1.5254864626045594,-1.3460369603507647,2.711642497045055,2.3908012336802003,-6.518200316086569,-3.3185257657964233
1.5120260930010518,-1.4112189635116303,2.7355505093818566,2.357615976022236,-6.573141480886079,-3.506359457047762
1.4979139033659354,-1.4769503783204911,2.759126669142079,2.322552381451758,-6.639579373787388,-3.712305210579888
1.4831443995827305,-1.543346172058365,2.7823521929565964,2.285429329345959,-6.718348470669531,-3.937652541055522
1.467710937862147,-1.6105296567650602,2.805206486250056,2.2460528039354037,-6.810304405296994,-4.183824787508351
1.4516056412944962,-1.6786327008180302,2.82766701428941,2.2042145560603204,-6.916323256399003,-4.452383780542618
1.434819314286316,-1.74779593338202,2.849709159850013,2.159690718254894,-7.0372997370397075,-4.745032656406794
1.4173413549524958,-1.8181689307524171,2.871306067032562,2.1122403916908263,-7.17414378645945,-5.063616308600902
1.3991596656449716,-1.8899103686170116,2.8924284709494703,2.0616042286048173,-7.327774984853401,-5.410118791434092
1.3802605619588015,-1.9631881184655455,2.9130445132355183,2.0075030406904766,-7.4991141172973155,-5.786656784112618
1.3606286807741461,-2.0381792596385186,2.933119543642423,1.9496364728493505,-7.689071104385849,-6.195467987441414
1.340246888177761,-2.1150699706823772,2.9526159083709165,1.8876817929749363,-7.898528396106552,-6.6388930588886765
1.3190961884709371,-2.194055254643443,2.971492726300666,1.8212928623860496,-8.128318796694883,-7.119349399708031
1.2971556359245027,-2.2753384426103915,2.9897056549245264,1.7500993683889692,-8.379196560156466,-7.639294799358218
1.2744022514983988,-2.359130408211956,3.0072066486084164,1.673706420395387,-8.651800482491643,-8.201178634641341
1.2508109474162792,-2.4456484130368725,3.02394371281237,1.5916946340489737,-8.946607638084922,-8.807378041702362
1.2263544632859105,-2.5351144894177216,3.03986065915286,1.5036208536319502,-9.263876393854627,-9.46011627081192
1.2010033183917332,-2.6277532533562677,3.0548968676891795,1.409019690923831,-9.603577426148021,-10.161360357908821
1.1747257858581706,-2.723789027617748,3.0689870645984176,1.3074060873447428,-9.96531171503797,-10.912695386998832
1.1474878955819932,-2.8234421447681277,3.0820611254718653,1.1982791334747545,-10.348214964510667,-11.715173082682783
1.1192534741343119,-2.9269242944132343,3.094043916806613,1.0811274026479265,-10.750848671889006,-12.569133396197914
1.0899842311901795,-3.0344327811321246,3.104855190833092,0.9554360686859473,-11.171079227841325,-13.473999284434589
1.0596399033788582,-3.1461435734105376,3.1144095515199517,0.8206960758416014,-11.605948045413149,-14.428047187168843
1.0281784676447527,-3.262203053864669,3.1226165122783676,0.676415603969913,-12.051537843148715,-15.428158918660417
0.9955564371061061,-3.3827184322961563,3.1293806683180665,0.5221340147833088,-12.502842839883355,-16.46956487584343
0.9617292527831445,-3.50774686069499,3.1346020084658996,0.35743836602487444,-12.953653661464312,-17.545593570405455
0.9266517841761945,-3.6372833973096332,3.1381763921261485,0.1819824303208199,-13.396470980712465,-18.64744825793833
0.8902789502030982,-3.771248107116758,3.1399962164293567,-0.004492052258563389,-13.822464901952157,-19.76403732374342
0.8525664691319307,-3.90947275613628,3.139951295906771,-0.20213242549599758,-14.221499249461038,-20.881890206473276
0.8134717415705679,-4.05168774863089,3.137929971651811,-0.4109513275607304,-14.582240428695199,-21.98519375592945
0.772954864084259,-4.197510152917842,3.1338204583762037,-0.6308032651200249,-14.892368499528637,-23.055983515689913
0.7309797625550806,-4.346433837913128,3.1275124257250035,-0.8613631002769241,-15.138902695302123,-24.074518928259895
0.6875154241759492,-4.49782286486615,3.1188987947222344,-1.1021082895595231,-15.30864432375841,-25.019859637553065
0.6425371955272877,-4.650909308103734,3.107877711826639,-1.3523068859350538,-15.388726910939438,-25.8706414928511
0.5960281024462504,-4.8047965772131285,3.094354642967289,-1.6110133008635648,-15.367247628326908,-26.606026466498342
0.547980136674119,-4.9584690534963975,3.0782445099586533,-1.8770735655285482,-15.233937560705584,-27.206773111546482
0.4983954461391551,-5.110808429103454,3.0594737743033678,-2.149141296644013,-14.980814217377848,-27.65634770445413
0.44728736184812057,-5.260616571277232,3.0379823613369275,-2.4257047736885546,-14.602751249188795,-27.94197622582325
0.39468119613534824,-5.4066440837691205,3.013725313600042,-2.705124535946787,-14.097900558915326,-28.055529138763248
0.34061475529765706,-5.547623089358273,2.986674068240574,-2.9856798273344194,-13.467912441597448,-27.994138264363023
0.28513852440407433,-5.682302213774248,2.95681726996723,-3.2656212099780495,-12.7179194820038,-27.760468707149553
0.22831550226633185,-5.809481408594286,2.9241610578674493,-3.543225897049545,-11.856276743062889,-27.362605868767098
0.170220688180389,-5.928044176024915,2.888728798896954,-3.816851955737216,-10.894079563603874,-26.81356191994057
0.11094024642013983,-6.036984971660954,2.850560279339582,-4.084987574936622,-9.844505665137213,-26.13044962701455
0.05057039670353029,-6.135430028312326,2.809710403590216,-4.346292071206768,-8.722045656957997,-25.33340631758764
-0.010783903579592968,-6.222650484881906,2.766247482878148,-4.599626134382644,-7.541692824558769,-24.444371424845624
-0.07301040842841203,-6.298067413127494,2.7202512215343218,-4.844069848631101,-6.318159214161829,-23.48582537210669
-0.13599108255968695,-6.361249005269112,2.671810523048011,-5.078928102352168,-5.065172690806909,-22.479587078342472
-0.19960357261237807,-6.411900732177181,2.621021242024489,-5.303723973135592,-3.794892468127219,-21.445746349033136
-0.2637225799341499,-6.449849656858453,2.5679840022931333,-5.518181436625924,-2.5174625150052306,-20.401781394964942
-0.3282210765027344,-6.475024282008506,2.512802187926874,-5.722199250575573,-1.2407065244886886,-19.361886000488717
-0.3929713193228195,-6.487431347253393,2.4555801954211183,-5.915818110580461,0.030043131693664533,-18.33650945856289
-0.4578456327953534,-6.487130915936456,2.3964220143153137,-6.09918320516609,1.2919960753994837,-17.332097565771395
-0.522716941954718,-6.474210955182461,2.3354301822636527,-6.2725041808238045,2.544848969262252,-16.351015310055633
-0.5874590515065425,-6.448762465489839,2.2727051404554146,-6.436014333924361,3.7906369662889374,-15.391630693007404
-0.651946676161441,-6.41085609582695,2.208344997116171,-6.589930640854435,5.033498402756177,-14.448542932558677
-0.7160552371197104,-6.360521111799388,2.1424456907076266,-6.734416070180022,6.279353398574556,-13.512945254100579
-0.7796604482377043,-6.297727577813642,2.0751015300058264,-6.869545522721028,7.535491300610238,-12.573120655871984
-0.8426377240158407,-6.22237266480754,2.0064060747786163,-6.995276729279747,8.810058013154444,-11.615076472066157
-0.9048614506639161,-6.134272084675995,1.9364533074858188,-7.1114274940004085,10.111433585491483,-10.623328272650031
-0.9662041715106761,-6.033157748821081,1.8653390325458148,-7.217660776726909,11.447494350599422,-9.58184359827342
-1.0265357489988869,-5.918682805315086,1.7931624247785458,-7.313479212709643,12.824763715724687,-8.4751492139885
-1.0857225770520378,-5.790435168157839,1.7200276326514494,-7.398230704849528,14.247472302484393,-7.289590243715038
-1.1436269287336163,-5.647960445132996,1.6460453256029541,-7.471126607286679,15.716571554261801,-6.014704814048564
-1.2001065331849463,-5.490794729590378,1.5713340595300873,-7.531273655427165,17.228773651424323,-4.644644432057981
-1.25501448048085,-5.318506993076134,1.4960213229758157,-7.5777200997477445,18.775720826875748,-3.179531578861601
-1.3081995504116115,-5.130749784807377,1.4202441219783382,-7.609515415536361,20.343412529052028,-1.6266085729993265
-1.3595070482596854,-4.927315659516857,1.3441489678229745,-7.625781501266355,21.912030607075344,-0.0010056035415917967
-1.408780204854854,-4.708195353446103,1.267891152810311,-7.6257915573017705,23.45629130120865,1.6740471412016928
-1.455862158389315,-4.473632440434017,1.1916332372372933,-7.609051085889754,24.94641093489905,3.3677072930076566
-1.5005984827936552,-4.224168331085026,1.1155427263783957,-7.575374012959678,26.349698297549665,5.042781697288766
-1.5428401661045055,-3.9606713481095293,1.039788986248799,-7.52494619598679,27.632688402379888,6.657729642572039
-1.5824468795856008,-3.68434446408573,0.9645395242889311,-7.45836889956107,28.763627376167243,8.169252423075436
-1.619290324226458,-3.3967081903240577,0.8899558352933203,-7.376676375330316,29.715031743658848,9.535198339852164
-1.6532574061296985,-3.0995578728874693,0.8161890715400172,-7.281324391931794,30.466002732069242,10.717435471237648
-1.6842529848585732,-2.794897845566777,0.7433758276206992,-7.174150037219418,31.00399426205842,11.684330159331342
-1.712201963314241,-2.4848579029461924,0.671634327248505,-7.0573067356261046,31.325812932288034,12.412525238391476
-1.7370505423437028,-2.171599773623312,0.601061259892244,-6.93318148324219,31.437752638457948,12.88782679775518
-1.758766540079936,-1.8572222472387327,0.5317294450598221,-6.804303215264638,31.354905697241975,13.105153424231755
-1.7773387625523234,-1.543673190266313,0.4636864129071757,-6.673251681022321,31.099813730083945,13.067642177420463
-1.7927754944549865,-1.2326750529654735,0.39695389609695253,-6.542575259248117,30.700700026819256,12.785110481589706
-1.8051022449846412,-0.9256680526972809,0.33152814350447135,-6.4147241544322195,30.189550061130447,12.272125517846225
-1.814358925511614,-0.6237725520859765,0.2673809019601492,-6.292002899253757,29.600282939978715,11.545931515026766
-1.8205966510324736,-0.3277697226861893,0.20446087296761162,-6.176543584103489,28.96719931212007,10.624442448279526
-1.8238743482593356,-0.038097729564988636,0.14269543712657673,-6.070299159620694,28.323820048104924,9.524441395460595
-1.8242553255549854,0.24514047091606062,0.08199244553036979,-5.975054745666088,27.70216198247098,8.260056372463037
-1.8218039208458248,0.5221620907407705,0.022241898073708903,-5.892454181941457,27.13244339947258,6.841519523360137
-1.8165822999384171,0.7934865247354963,-0.03668264374570567,-5.824038986707856,26.643177194958835,5.274169691094518
-1.8086474346910622,1.0599182966850846,-0.09492303361278423,-5.771297289796911,26.261592520143914,3.5576301301763094
-1.7980482517242113,1.322534221886524,-0.15263600651075335,-5.735720988495148,26.01432100987092,1.6850832028432852
-1.784822909505346,1.5826774319852333,-0.20999321639570484,-5.718870156466715,25.928283456244273,-0.35742749793590606
-1.7689961351854937,1.841960266547676,-0.267181917960372,-5.722444431446074,26.031705999439474,-2.59170549937243
-1.7505765325200169,2.1022773265420707,-0.3244063622748327,-5.748361486439798,26.35516474580195,-5.048088766072158
-1.7295537592545962,2.36582897400009,-0.3818899771392307,-5.798842374100519,26.932474549893634,-7.765942036775246
-1.7058954695145954,2.6351537194990264,-0.4398784008802359,-5.876501794468272,27.801044255650442,-10.793488353646612
-1.679543932319605,2.913164162055531,-0.4986434188249186,-5.984436678004738,29.000902373564845,-14.185913864249315
-1.6504122906990497,3.2031731857911794,-0.5584877856049659,-6.126295816647231,30.570724865923555,-17.999450547561683
-1.618380558841138,3.5088804344504148,-0.6197507437714382,-6.306290322122848,32.5374271333296,-22.276658442939304
-1.5832917544966338,3.8342547057837106,-0.6828136469926667,-6.529056906552241,34.89242843886548,-27.01327898057383
-1.5449492074387967,4.183178990172365,-0.7481042160581891,-6.799189696357979,37.54146115900509,-32.088247090870425
-1.503117417537073,4.558593601762416,-0.8160961130217689,-7.120072167266684,40.205530977380256,-37.12531339844111
-1.457531481519449,4.960648911536219,-0.8872968346944357,-7.491325301251095,42.24476815578483,-41.24610650848374
-1.4079249924040866,5.383096593094067,-0.9622100877069466,-7.9037863663359325,42.407152849983056,-42.71599625531995
-1.354094026473146,5.8071681215938975,-1.041247951370306,-8.330946328889132,38.66741559031846,-38.711727042160206
-1.296022345257207,6.193842277497082,-1.1245574146591972,-8.718063599310733,28.735650355264706,-26.019756493177947
-1.2340839224822362,6.481198781049729,-1.2117380506523046,-8.978261164242513,12.060093287766827,-3.8206276581182497
-1.1692719346717388,6.601799713927397,-1.3015206622947297,-9.016467440823694,-7.6079248381684845,22.735447108941504
-1.1032539375324648,6.525720465545712,-1.3916853367029667,-8.78911296973428,-23.438089970507285,44.226374502246955
-1.0379967328770077,6.291339565840639,-1.4795764664003095,-8.34684922471181,-31.292319896189223,54.965583367697704
-0.9750833372186013,5.978416366878747,-1.5630449586474275,-7.797193391034834,-32.23121900220848,56.44301088725235
-0.9152991735498138,5.656104176856663,-1.641016892557776,-7.232763282162311,-29.41788148798567,53.012996579099976
-0.8587381317812472,5.361925361976806,-1.713344525379399,-6.702633316371311,-25.275139021057875,47.98079014475804
-0.8051188781614792,5.109173971766228,-1.7803708585431122,-6.22282541492373,-21.020547977241822,42.98698479525331
-0.754027138443817,4.898968491993809,-1.8425991126923496,-5.792955566971197,-17.116843576157137,38.64125893759622
-0.7050374535238789,4.727800056232238,-1.9005286683620615,-5.406542977595235,-13.676757030061529,35.08166206597427
-0.6577594529615566,4.591032485931622,-1.9545940981380139,-5.055726356935493,-10.677300873524189,32.26728511638743
-0.6118491281022403,4.48425947719638,-2.0051513617073686,-4.733053505771618,-8.05366960113624,30.104634830401285
-0.5670065333302765,4.403722781185017,-2.0524818967650846,-4.432007157467606,-5.73612184187927,28.49595850112417
-0.5229693055184264,4.346361562766225,-2.0968019683397605,-4.147047572456364,-3.6627762177247623,27.354881094063746
-0.4795056898907641,4.309733800588977,-2.138272444064324,-3.873498761515726,-1.7829420385946,26.60928892154252
-0.4364083518848743,4.2919043802030306,-2.1770074316794816,-3.607405872300301,-0.05706389688534747,26.199643573707682
-0.393489308082844,4.291333741234177,-2.2130814904024847,-3.345409436563224,1.5442987929171332,26.07593138251024
-0.3505759706705022,4.3067767291633485,-2.2465355847681168,-3.0846501227381213,3.04155108894648,26.19443052616753
-0.30750820337886875,4.337192240052813,-2.277382085995498,-2.822705817476446,4.4469134095087925,26.514689940692563
-0.26413628097834063,4.381661374147901,-2.3056091441702624,-2.5575589180695206,5.7650106830523935,26.996836707400085
-0.2203196672368616,4.439311480978425,-2.3311847333509577,-2.2875905509955197,6.9932756408792836,27.599262744972567
-0.17592655242707736,4.509244237387218,-2.3540606388609127,-2.011597923545794,8.122295919354013,28.276763413698397
-0.13083411005320517,4.590467196580758,-2.374176618096371,-1.7288302894088101,9.136265829920875,28.979254555686715
-0.08492943808739759,4.681829854879967,-2.391464920990459,-1.439037743851943,10.013719072263408,29.651248848085288
-0.03811113953859791,4.7819670456026016,-2.4058552984289783,-1.14252525537109,10.72871206495921,30.232300841918278
0.009708530917428106,4.889254166252194,-2.417280550982689,-0.8402022469519073,11.252586915758439,30.658606586972198
0.05860107257995004,5.001780035409778,-2.425682573452208,-0.5336161810821853,11.556357479167685,30.86584588218879
0.10861887293404783,5.117343610201456,-2.43101873526303,-0.22495772226029742,11.613630091334086,30.793174273710857
0.1597923090360624,5.233479911114796,-2.433268312485633,0.08297402047681118,11.403808846960642,30.388025830936815
0.21212710814721036,5.347517999584403,-2.432438572280865,0.38685427878617934,10.91518165536318,29.611129109407415
0.2656022881430544,5.456669816138034,-2.428570029493003,0.6829655698802535,10.147391126895629,28.44094935354279
0.32016898630443474,5.558143727406991,-2.4217403737942003,0.9673750634156815,9.112813884411734,26.876735912460568
0.37575042357850463,5.649271866251108,-2.4120666231600434,1.2361424225402873,7.836524968202515,24.939526419864105
0.43224314224101573,5.727637115933133,-2.3997051989346403,1.4855376867389283,6.354784745081279,22.670821012937694
0.48951951340034705,5.791184963383945,-2.384849822067251,1.7122458968683052,4.712282058722647,20.129097628606683
0.5474313630341865,5.838307783971172,-2.367727363098568,1.913536873154372,2.9586073483048656,17.384756257717555
0.6058144408738982,5.867893857454221,-2.348591994367024,2.0873844357315474,1.1445407645886687,14.514332357432078
0.6644933794484404,5.879339265100108,-2.3277181500097086,2.232527759305868,-0.6812994241053685,11.594848704260729
0.7232867720994415,5.872526270859054,-2.30539287241665,2.3484762463484756,-2.4750613126499093,8.699004624050321
0.782012034808032,5.847775657732555,-2.2819081099531653,2.4354662925889787,-4.199341243179225,5.891615964012706
0.8404897913853576,5.805782245300763,-2.2575534470272753,2.4943824522291056,-5.82396418120264,3.2274189953117642
0.8985476138383652,5.7475426034887365,-2.232609622504984,2.5266566421822234,-7.326020634944395,0.7501140168956405
0.9560230398732525,5.674282397139293,-2.207343056083162,2.53415778235118,-8.689381620223966,-1.5076147198584322
1.0127658638446455,5.587388580937053,-2.18200147825965,2.5190816351525953,-9.90391387325832,-3.523410050115433
1.068639749654016,5.48834944220447,-2.1568106619081244,2.483847534651441,-10.964578269655718,-5.284165847922965
1.1235232440760607,5.378703659507913,-2.13197218656161,2.431005876172211,-11.870538675227138,-6.784783580094213
1.17731028067114,5.259998272755642,-2.107662127799888,2.363158040371269,-12.624353781398359,-8.026909285002091
1.2299102633986965,5.133754734941658,-2.0840305473961753,2.282888947521248,-13.231280737540896,-9.017735039624524
1.2812478107481131,5.001441927566249,-2.0612016579209627,2.192711597125003,-13.69868997662626,-9.76890161502321
1.3312622300237755,4.864455027799987,-2.0392745419497125,2.0950225809747707,-14.035574708652238,-10.295509419304114
1.3799067803017755,4.724099280713465,-2.0183243161399647,1.9920674867817296,-14.252133190155076,-10.615230314712587
1.4271477731089102,4.581577948811914,-1.9984036412721473,1.8859151836346038,-14.359403523213317,-10.747509104913721
1.4729635525970293,4.437983913579781,-1.9795444894358012,1.7784400925854666,-14.368936116532668,-10.712845914870753
1.5173433917328272,4.2942945524144545,-1.9617600885099464,1.671311633436759,-14.292495457784984,-10.532155552662283
1.5602863372569717,4.151369597836605,-1.9450469721755788,1.5659900779101361,-14.141788712539592,-10.22620457290396
1.6018000332353377,4.009951710711209,-1.9293870713964774,1.4637280321810966,-13.928222870111007,-9.815129625014606
1.6418995503424498,3.870669482010099,-1.9147497910746665,1.3655767359309505,-13.662694346832449,-9.318041233178528
1.6806062451625507,3.7340425385417744,-1.901094023715357,1.2723963235991653,-13.355415269660813,-8.752715624121892
1.7179466705479685,3.6004883858451664,-1.8883700604793654,1.1848691673579463,-13.015779541773387,-8.135374241966495
1.7539515544064201,3.4703305904274324,-1.876521368805786,1.1035154249382815,-12.652269813892655,-7.480546979456955
1.7886548603106944,3.3438078922885057,-1.8654862145564033,1.028709955143712,-12.272404217259682,-6.8010116710017305
1.8220929392335794,3.221083850115909,-1.8551991150049663,0.9606998384336947,-11.882719615750947,-6.107799602789655
1.8543037777347384,3.1022566539583996,-1.8455921166206293,0.8996218424057981,-11.488786509430248,-5.410255018435772
