th1 (rad),w1 (rad/s),th2 (rad),w2 (rad/s)
4.366846645424237,2.4311065249330475,3.529839895085918,-1.051603588799245
4.391157710673568,2.5097153310598963,3.5193238591979252,-1.0232552771226584
4.416254863984166,2.58769687699015,3.509091306426699,-0.9890698607318987
4.442131832754068,2.6651887574081154,3.49920060781938,-0.948844087031142
4.468783720328149,2.7423403822354633,3.4897121669490683,-0.9023757126730982
4.496207124150504,2.8193096353651415,3.480688409822337,-0.8494597816613803
4.524400220504155,2.896259465390525,3.4721938120057234,-0.7898851903152746
4.553362815158061,2.973354448479179,3.4642949601025705,-0.7234316916904875
4.583096359642853,3.0507573333324487,3.457060643185666,-0.6498674659171774
4.6136039329761775,3.128625550747375,3.450561968526494,-0.56894736128421
4.644890188483651,3.207107646969166,3.444872494913652,-0.48041189518849076
4.676961264953343,3.286339581482036,3.440068375961767,-0.3839870946042713
4.709824660768164,3.3664408164041797,3.4362285050157246,-0.27938525194158553
4.743489068932206,3.4475101162872788,3.4334346524963086,-0.16630667281087025
4.777964170095079,3.5296209739021704,3.4317715857682,-0.04444249555428019
4.813260379834101,3.61281657966249,3.4313271608126574,0.086521333653532
4.849388545630726,3.697104260042192,3.4321923741491926,0.22689884415762085
4.886359588231148,3.782449324265731,3.4344613625907687,0.3769974988197461
4.924184081473805,3.868768279501133,3.438231337578966,0.537110252099899
4.962871764268816,3.955921403732767,3.443602440099965,0.707506152807927
5.002430978306144,4.04370470343355,3.4506775016280447,0.8884194679391683
5.042868025340479,4.131841330955381,3.4595616963074365,1.0800373510799706
5.0841864386500335,4.219972594701757,3.4703620698182363,1.2824861432504528
5.126386164597051,4.307648763488492,3.483186931250741,1.4958164769591424
5.169462652231935,4.394319943956978,3.498145096020332,1.719987455627093
5.213405851671505,4.479327394188789,3.5153449705766033,1.9548502986478686
5.258199125613393,4.561895724058687,3.534893473563082,2.200131973357134
5.303818082853979,4.6411265180924275,3.5568947932966535,2.4554194729593557
5.350229348034904,4.7159939929167445,3.581448988026247,2.720145535584721
5.397389287964071,4.7853433608092075,3.608650443382094,2.9935767237814863
5.445242721572163,4.847892604565564,3.6385862106199087,3.274804884313857
5.493721647617819,4.902238367811834,3.6713342594630474,3.562743073313373
5.542744031295937,4.946866620162071,3.7069616901961813,3.8561270506381695
5.592212697497558,4.9801686600676796,3.745522960702563,4.153523410489596
5.6420143840982355,5.0004628624213305,3.787058194807459,4.453345315877525
5.692019012722449,5.00602235631069,3.8315916479662344,4.753876637401174
5.742079236285556,4.995108524854826,3.879130414340246,5.053305058358273
5.792030321534104,4.96600984920142,3.929663464923829,5.349764395421677
5.841690420026118,4.9170851710065975,3.9831611088780456,5.641385994939149
5.890861271736184,4.846809927174189,4.039574968827437,5.926358600329939
5.939329371007926,4.7538233343455065,4.098838554830737,6.202995555121219
5.986867604351381,4.636973903734191,4.160868510381949,6.4698076334818
6.0332373433887225,4.495360107403206,4.225566586716767,6.725579224206812
6.078190944462754,4.328362576108464,4.292822378958835,6.969445113456264
6.121474570223839,4.135663982959488,4.362516830093398,7.200964823816578
6.162831210053434,3.9172528509377873,4.434526478331564,7.42019149799439
6.202003738562812,3.6734079825186448,4.508728393311507,7.6277327849751995
6.238737818387999,3.404661057075137,4.585005721161259,7.824802177820028
6.27278442895875,3.1117361112878554,4.663253742939459,8.013260777482397
6.303901790071628,2.79546596930662,4.7433863507142835,8.195651430408402
6.331856449764694,2.4566870417304894,4.825342865018367,8.375229409822582
6.356423320181999,2.0961151208438547,4.9090951591165926,8.555995952982652
6.377384471390437,1.71420589090499,4.994655118646419,8.74274251950582
6.394526530299487,1.3110052750194812,5.0820825438414765,8.941113732892005
6.4076365830496815,0.8859977106017745,5.171493681170396,9.15769390632472
6.416496560155699,0.43796794821225404,5.263070620233644,9.40011212643623
6.420876239637821,-0.035089396767126524,5.3570717414980065,9.677135662583016
6.42052534567015,-0.5359340709586521,5.453843098123837,9.99866186034755
6.415166004960564,-1.067738633956574,5.5538297167273125,10.37538213274666
6.404488618620998,-1.6330394489589253,5.657583538054779,10.81758874517846
6.388158224131408,-2.2311214972180267,5.765759425506563,11.331963282932717
6.365847009159228,-2.8521751058219422,5.879079058335891,11.91405400845074
6.337325258101008,-3.4657659390014386,5.998219598420398,12.532961951130577
6.302667598710993,-4.003079663588094,6.123549217931704,13.107182852256734
6.262636802075113,-4.345529242110083,6.254621046454272,13.488281457365293
6.219181509654012,-4.360396698169758,6.389503861027925,13.507461001668403
6.175577542672315,-4.006755403204395,6.524578471044609,13.116310088396341
6.135509988640271,-3.39530349032973,6.655741571928572,12.463393786933235
6.101556953736973,-2.6883282567255975,6.780375509797905,11.756972794532828
6.074673671169718,-1.9890232872636175,6.897945237743233,11.120574207246126
6.054783438297082,-1.3350753870145344,7.009150979815694,10.590467150736025
6.041432684426937,-0.7314214778356761,7.115055651323055,10.161878024291793
6.03411846964858,-0.1721422205613925,7.2166744315659725,9.817990740690043
6.032397047442966,0.3505210413523808,7.314854338972873,9.541094195357651
6.035902257856489,0.8432599803515289,7.41026528092645,9.315701522663229
6.0443348576600044,1.3110417598693558,7.503422296153082,9.128919348052273
6.057445275258698,1.7571700829566717,7.594711489633605,8.97006554840822
6.075016976088265,2.1835340511865713,7.684412145117687,8.830188502784946
6.096852316600131,2.590878579532406,7.772714030145536,8.7016704932682
6.122761102395455,2.9790537781525184,7.859730735078219,8.577946354273328
6.152551640176981,3.347239055777834,7.945510198620952,8.453324236916634
6.186024030734759,3.694146728192785,8.030043440990118,8.322885297634476
6.222965498016687,4.018209386872993,8.113272293966464,8.182439043941285
6.263147591885417,4.317752236002539,8.195096684405877,8.028513480964202
6.306325114245443,4.591148635292622,8.27538181921552,7.858362149523427
6.352236600598369,4.836955175843214,8.353965440710754,7.669973362916142
6.400606152356801,5.054022074345246,8.430665174339914,7.462070499385727
6.451146373100253,5.241575423527167,8.505285879333771,7.234096034909775
6.503562127335525,5.3992695489421605,8.57762683968287,6.986175843099398
6.5575548228249465,5.527209903823418,8.647488598113863,6.719063752064995
6.6128269218631806,5.625949066243394,8.714679235634513,6.434069049469931
6.669086412525615,5.696460064660351,8.779019926129212,6.1329713264279695
6.726051013172218,5.740092211442452,8.840349639393493,5.817927720815608
6.783451935286642,5.758514838946528,8.898528916601649,5.491377436408202
6.841037083676108,5.753653947895699,8.95344269096573,5.155947680063625
6.898573623155065,5.727626023264449,9.005002167766365,4.814364205477862
6.955849883387709,5.682672386411947,9.053145809821144,4.469368745789655
7.012676607251829,5.621096616316467,9.097839497279042,4.123644910819911
7.068887573414994,5.545206885863302,9.13907594638724,3.779753650357263
7.124339642273627,5.457264539376552,9.176873482890814,3.4400790857508126
7.1789122876673925,5.359439848343685,9.211274273748321,3.1067852900536015
7.232506686150829,5.253775565119285,9.242342126648857,2.7817843593523777
7.285044441802023,5.142158597458119,9.270159970242382,2.46671580913404
7.336466027776604,5.026299821669507,9.294827128333722,2.1629369427049614
7.386729025993299,4.907721738100906,9.316456497760772,1.8715234089377655
7.435806243374308,4.787753369821739,9.33517173185015,1.5932787528843677
7.4836837770725255,4.667531543719476,9.351104519378993,1.328751426315065
7.530359092509721,4.548007500588823,9.364392033642144,1.0782575120587437
7.575839167515609,4.42995767459038,9.37517460876273,0.8419073473157352
7.620138744261513,4.313997466118904,9.383593682235889,0.6196343021213726
7.663278718922702,4.200596896106948,9.389790025257103,0.4112241545580645
7.705284687883771,4.0900971554592,9.393902266802684,0.21634376708407735
7.746185659438363,3.9827272279029433,9.396065704473525,0.03456806862371087
7.7860129317173925,3.878619945677179,9.396411385159762,-0.13459535071940035
7.8247991311741645,3.777827016367504,9.395065431652569,-0.29168444839224117
7.862577401337839,3.6803327222130715,9.392148587168647,-0.43726392289076427
7.89938072855997,3.586066132195419,9.387775947939739,-0.5719093889027587
7.9352413898819245,3.4949117787671735,9.382056854050711,-0.696194397444305
7.970190507669596,3.4067188354229807,9.37509491007627,-0.8106800773508054
8.004257696023826,3.321308891074772,9.366988109302762,-0.9159071268281098
8.037470784934573,3.2384824562656527,9.357829038034481,-1.0123898671714813
8.06985560949723,3.1580243589506787,9.347705139362766,-1.1006120770966912
8.101435853086738,3.0797081980123258,9.3366990185918,-1.1810243481446732
8.132232935066861,3.0033000244385404,9.324888775110352,-1.2540427332500825
8.162265935311247,2.928561416015617,9.312348347777851,-1.3200484969515311
8.191551549471402,2.855252103530275,9.299147862808336,-1.3793888130841958
8.220104070506705,2.7831322961153147,9.285353974677495,-1.4323782911881981
8.24793539346786,2.7119648410782955,9.271030191765613,-1.4793012439255555
8.275055041878643,2.6415173392641464,9.256237179326357,-1.520414632516936
8.301470215271284,2.571564320147081,9.241033033001187,-1.5559516437726792
8.327185858472754,2.5018895604821894,9.225473516563461,-1.5861258590153962
8.352204754077576,2.4322886053570203,9.209612257973307,-1.6111359705792014
8.376527640131146,2.3625715198452113,9.193500898267514,-1.631170984527884
8.400153355329598,2.292565862591363,9.177189188422235,-1.6464158184272324
8.423079013955512,2.2221198298108997,9.160725030237963,-1.657057161353642
8.44530021225362,2.151105470914878,9.144154458624426,-1.6632894125389572
8.46681126696277,2.079421828457934,9.127521564499036,-1.6653204601222924
8.48760548524735,2.0069978103516437,9.110868359897813,-1.663377009840113
8.507675463350866,1.933794567871739,9.094234589799411,-1.657709134710095
8.527013409029584,1.8598071363748674,9.07765749845231,-1.6485937015410737
8.545611480393333,1.7850651038859342,9.0611715614369,-1.6363363484440658
8.563462131432193,1.709632110770477,9.04480819795246,-1.6212717463827724
8.580558452539897,1.6336040526131712,9.028595480488631,-1.6037619785853279
8.59689449306603,1.557105953957146,9.012557860702778,-1.584193008307125
8.6124655526056,1.4802875928556938,8.996715930619706,-1.5629693640555073
8.627268428534158,1.4033180707845054,8.98108623697915,-1.5405073316427482
8.641301609242003,1.3263796227451397,8.965681163662722,-1.517227081104222
8.654565405469455,1.2496610329670466,8.95050889285168,-1.493544252240141
8.667062015799125,1.1733510517093493,8.935573450329278,-1.4698615605615226
8.678795526316218,1.0976321945180276,8.920874834723662,-1.446560960945211
8.6897718482614,1.0226752508519887,8.90640922511421,-1.4239968253708524
8.69999860076992,0.9486347446795831,8.892169256860502,-1.402490468827013
8.709484948216716,0.8756454897180418,8.878144352172232,-1.3823262141980162
8.718241403113897,0.8038202812886984,8.864321090030252,-1.363749043722828
8.726279605926784,0.7332486778589432,8.850683599593024,-1.346963759134675
8.733612092705373,0.6639967566821757,8.837213962001677,-1.3321354765922768
8.740252060272194,0.5961076832670978,8.823892607235754,-1.3193912210345595
8.746213137104865,0.5296029132463322,8.810698695025408,-1.3088223567148358
8.751509166237328,0.4644838440971225,8.79761047145826,-1.3004875912444243
8.756154004678299,0.4007337480059349,8.784605595545816,-1.2944163121111525
8.760161342158359,0.33831984051291053,8.771661432424704,-1.2906120494890403
8.763544540563487,0.2771953675048319,8.758755311929814,-1.2890559001874533
8.766316494238534,0.21730162176323423,8.74586475292794,-1.2897097892759808
8.768489510456167,0.15856982692302757,8.73296765503518,-1.2925194844583103
8.770075208725396,0.10092284976907392,8.720042460190598,-1.2974173114383651
8.771084437223086,0.04427672060270911,8.707068287076215,-1.3043245453915642
8.771527204429113,-0.011458044099393931,8.694025041622298,-1.3131534742072573
8.771412623988118,-0.0663753119750036,8.680893506880226,-1.323809143965015
8.770748870868367,-0.12057238609874779,8.667655415440576,-1.3361908070060622
8.76954314700738,-0.1741492209963478,8.654293507370516,-1.350193098918272
8.767801654797415,-0.22720778468762964,8.640791576381334,-1.365706973693512
8.765529576950538,-0.2798515473156252,8.6271345066444,-1.382620427059799
8.762731061477382,-0.33218507721427026,8.6133083023738,-1.400819037221454
8.75940921070524,-0.384313726265715,8.599300112001586,-1.4201863505011227
8.755566073442582,-0.4363433878175961,8.585098248496575,-1.4406041370813218
8.751202639564406,-0.4883803120647018,8.570692207125761,-1.4619525394921633
8.74631883644376,-0.5405309655043163,8.55607268173084,-1.4841101338984342
8.740913526788717,-0.592901922754341,8.541231580391855,-1.5069539217459564
8.734984507561173,-0.6455997806181196,8.526162041174397,-1.5303592670253874
8.728528509754991,-0.6987310857553819,8.510858448504143,-1.5541997923559698
8.721541198897437,-0.7524022686577856,8.495316450580583,-1.578347245312339
8.71401717621086,-0.806719577824059,8.47953297812746,-1.6026713449290997
8.705949980432619,-0.8617890090835957,8.46350626467817,-1.6270396171269657
8.697332090341783,-0.9177162259308947,8.4472358685069,-1.6513172269139962
8.688154928082474,-0.974606467508572,8.43072269623776,-1.675366814629546
8.678408863407387,-1.0325644415136648,8.413969028091465,-1.6990483432238235
8.668083218992251,-1.0916941997967027,8.396978544659227,-1.7222189636143495
8.657166276994284,-1.1520989947665201,8.379756355023083,-1.7447329055507215
8.645645287046618,-1.2138811148907185,8.362309025967576,-1.766441402177438
8.633506475897711,-1.277141697569184,8.344644611945801,-1.7871926576468322
8.620735058922019,-1.3419805174242336,8.326772685369333,-1.8068318687466933
8.607315253747776,-1.4084957475532174,8.308704366681866,-1.825201313628312
8.593230296272244,-1.476783690472466,8.290452353545582,-1.8421405234229127
8.57846245936752,-1.5469384742749315,8.272030948311354,-1.857486555906225
8.56299307462477,-1.6190517078395619,8.253456082752292,-1.8710743945192938
8.546802557546375,-1.6932120866595177,8.2347453388071,-1.8827375011061158
8.52987043667978,-1.7695049378664343,8.21591796379604,-1.8923085568352667
8.512175387301115,-1.848011689161107,8.196994878227686,-1.8996204331057596
8.493695270409503,-1.9288092414329578,8.177998673896628,-1.904507442989285
8.474407177995174,-2.011969218653273,8.158953599466734,-1.9068069341359857
8.45428748580864,-2.0975570609361407,8.139885530125374,-1.9063612962687249
8.43331191519928,-2.1856309172523862,8.120821917162687,-1.9030204705757023
8.411455606026756,-2.2762402829630397,8.10179171245693,-1.8966450645592294
8.388693203197125,-2.3694243140017517,8.082825261811337,-1.8871101941106916
8.364998960057108,-2.4652097342418284,8.06395415987023,-1.874310194348709
8.34034686271469,-2.563608235698071,8.045211057926743,-1.8581643611530274
8.314710780357709,-2.6646132536031746,8.026629414315213,-1.8386239046056336
8.288064647821678,-2.7681959817167248,8.008243175269156,-1.8156803107228072
8.26038268800451,-2.874300480302596,7.990086372161928,-1.7893753141175888
8.231639683201484,-2.9828377245580353,7.972192619020752,-1.759812674215223
8.201811305955903,-3.0936784516763898,7.954594492278599,-1.727171910615441
8.17087452143914,-3.2066446998214873,7.937322773172445,-1.6917240742286814
8.138808074440925,-3.32150000498858,7.920405532430158,-1.6538494903382608
8.10559307439104,-3.4379383479863836,7.903867037526775,-1.614057184026727
8.071213690911176,-3.5555721411744896,7.887726465686508,-1.5730053619632416
8.03565796949943,-3.673919828688497,7.871996412066875,-1.5315218558537718
7.998918771212546,-3.7923940512606364,7.856681193508337,-1.4906228250357834
7.960994830699939,-3.910291783822123,7.841774965257979,-1.4515272934544905
7.921891912861718,-4.026788342055845,7.827259692323435,-1.4156643384292389
7.88162402944116,-4.1409375730871085,7.813103048939142,-1.3846691116462442
7.840214653710289,-4.2516807358196855,7.79925635782268,-1.360363603389555
7.797697846352092,-4.357866329964063,7.785652721788784,-1.3447184781879655
7.754119183052452,-4.458282240765651,7.772205537006904,-1.3397937333776426
7.709536360644795,-4.551699911546439,7.758807599673128,-1.3476585432558428
7.664019361529331,-4.636927934469257,7.74533101424057,-1.370294311511011
7.617650082184638,-4.712869869312282,7.73162807112546,-1.4094890542956588
7.570521383491515,-4.77857897172644,7.717533180582503,-1.4667347043988457
7.522735593774251,-4.833301665958775,7.702865833538515,-1.54314049997256
7.474402577114663,-4.876502636364837,7.687434428538789,-1.6393743525532076
7.425637550751015,-4.907867361872837,7.671040685013257,-1.755639881702378
7.376558877132286,-4.927282083415995,7.6534842861962336,-1.8916906360640284
7.327286056298126,-4.934795379941775,7.634567379835593,-2.0468766479879847
7.277938102498708,-4.930568532910527,7.614098613355713,-2.220213700022408
7.228632417169603,-4.91482297706475,7.5918964763554895,-2.4104636314605514
7.179484187398955,-4.887792381176718,7.567791840040884,-2.6162147452109723
7.130606263587188,-4.849684872870091,7.541629692588774,-2.8359540732810875
7.082109414858487,-4.800658438235076,7.513270151855964,-3.0681267336969413
7.034102830476137,-4.740810291411175,7.482588884518994,-3.3111808101159377
6.986694727562025,-4.670179421385842,7.449477076417835,-3.5635984755153425
6.939992933348166,-4.5887606790437525,7.413841091662682,-3.823915274699234
6.894105326557728,-4.496528562700098,7.375601938915689,-4.090729695971623
6.8491400409307275,-4.393469111775222,7.334694641955973,-4.362704654957533
6.805205349812975,-4.279618850803057,7.291067595406397,-4.638561545028657
6.762409161304944,-4.155110411303971,7.244681979956111,-4.917066284965365
6.720858057191904,-4.020225214675862,7.195511317106457,-5.197005457961772
6.680655805045146,-3.8754543604646465,7.143541262526839,-5.4771492969821125
6.641901261440499,-3.7215695363749277,7.088769769557018,-5.756197066292591
6.60468556607675,-3.55970615537579,7.031207798894092,-6.032699569130108
6.569088504522992,-3.391460642996731,6.970880803202792,-6.304953570741195
6.535173898093025,-3.2190021410689726,6.9078312674953795,-6.570864769173783
6.502983876682335,-3.0451947333347755,6.842122619803642,-6.827781058044708
6.472531929348987,-2.8737180986754236,6.773844809223195,-7.072308284573315
6.443794748362233,-2.709160762644238,6.703121726377462,-7.3001386564322
6.416703140735791,-2.5570407646373363,6.630120339813139,-7.505947839597683
6.391132733089417,-2.4236877264357517,6.555060861417163,-7.683445655080787
6.36689585582506,-2.3159101255018286,6.478226404866355,-7.8256816505362865
6.343736754570042,-2.240393437836173,6.399969588360992,-7.925682717206058
6.32133282019168,-2.2028506097581095,6.320712761188932,-7.977406107899258
6.2993043140940985,-2.2070735687946854,6.240938700109939,-7.976829888330698
6.277233578406151,-2.254157921359084,6.161170401226632,-7.922845297875886
6.25469199919256,-2.3421940952772085,6.081941948247873,-7.817589395123024
6.2312700582397875,-2.4665733588465946,6.0037660542966425,-7.666042636774255
6.206604324651321,-2.6208065054728467,5.9271056279289,-7.475033340881476
6.180396259596593,-2.797557735817152,5.852355294520085,-7.2520293534629925
6.1524206822384215,-2.9895752560580138,5.779835000985455,-7.004108263218099
6.122524929677842,-3.190328326144103,5.709793918353274,-6.737322498499049
6.090621646416401,-3.3943215525203403,5.642420693368283,-6.456469369293919
6.056678430891197,-3.5971601388946217,5.577855999675344,-6.165152803762895
6.020706829502251,-3.7954678085767215,5.516204471637715,-5.865998300196418
