th1 (rad),w1 (rad/s),th2 (rad),w2 (rad/s)
4.141182608185247,-2.3952543644195705,3.530468793829409,3.069757240573809
4.117230064541051,-2.3550294787957724,3.5611663662351467,3.106860383142291
4.093679769753093,-2.313909838773979,3.5922349700665697,3.141133487757736
4.070540671365353,-2.2714740268145226,3.623646304944147,3.1723424469711268
4.047825931097208,-2.2273013920691365,3.6553697294138585,3.2002386887113583
4.025552917176516,-2.1809898260859484,3.6873721163009723,3.224585456046649
4.003743018915657,-2.1321783930536236,3.7196179708614387,3.245190420695504
3.9824212349851202,-2.0805730969686524,3.752069875068394,3.261942250673837
3.9616155040154335,-2.0259726622971415,3.7846892975751323,3.2748468209093136
3.941355777392462,-1.9682900443746585,3.8174377657842253,3.284057175250283
3.9216728769487155,-1.9075650139050526,3.850278337536728,3.2898908714053516
3.902597226809665,-1.8439640246177824,3.883177246250782,3.292829582401306
3.884157586563487,-1.7777657377923053,3.9161055420747948,3.2934988645428356
3.8663799291855643,-1.7093335449622504,3.949040530720223,3.2926301274013206
3.849286593735942,-1.6390792597296389,3.981966831994236,3.2910107389346246
3.8328958011386454,-1.5674238685091693,4.014876939383583,3.2894305189700144
3.8172215624535535,-1.494761310248643,4.0477712445732825,3.288632899126077
3.802273949351067,-1.4214298451389138,4.080657573564543,3.2892769865318723
3.7880596508996778,-1.3476933482312927,4.1135503434298615,3.29191362301928
3.7745827174173647,-1.273732639965101,4.1464694796600545,3.2969754222941
3.761845391017714,-1.1996453332389554,4.179439233882995,3.304778513748234
3.749848937685324,-1.1254518535623752,4.212487019020477,3.3155326138434043
3.7385944191497003,-1.0511051792531108,4.245642345158911,3.329355937259331
3.728083367357169,-0.9765022019447487,4.2789359045315045,3.346291990710193
3.7183183453377215,-0.9014951630576662,4.312398824438606,3.366326093840814
3.709303393707145,-0.8259021878363051,4.346062085377015,3.389400276070944
3.701044371828782,-0.7495164103492165,4.379956088137724,3.415425861426119
3.69354920772529,-0.6721135251597924,4.414110346751985,3.444293528790901
3.6868280724736917,-0.5934578208800532,4.448553282039894,3.4758809346740493
3.680893494264891,-0.5133068728407739,4.483312091386635,3.5100581469763674
3.6757604255364833,-0.43141512565576473,4.518412672856399,3.5466912033772586
3.671446274279926,-0.34753660675737086,4.553879584890171,3.585644112956781
3.667970908212352,-0.2614269980028918,4.589736026019739,3.626779591565767
3.665356638232323,-0.17284526705022235,4.626003821935396,3.6699587784977985
3.6636281855618207,-0.08155503131118869,4.662703409720374,3.715040135484983
3.662812635248709,0.012674200682241121,4.699853811075224,3.7618776852727622
3.6629393772555314,0.1100657906519608,4.737472587927951,3.8103187091498767
3.664040035162051,0.21083463621807247,4.77557577501945,3.8602009920111024
3.666148381524232,0.3151856603137895,4.814177784939561,3.9113496799522176
3.66930023812737,0.4233120590781752,4.853291281739083,3.9635737986806623
3.673533358718152,0.5353932562266699,4.89292701972589,4.016662470642823
3.678887291280419,0.6515925241970519,4.933093644432318,4.070380864195012
3.6854032165223893,0.7720542445880314,4.973797453074268,4.124465908935913
3.6931237589682695,0.8969007934219524,5.015042112163627,4.178621817124647
3.702092766902489,1.0262290513726022,5.0568283303348736,4.232515461652958
3.712355057416215,1.1601065560042465,5.099153484951403,4.285771676065644
3.7239561229762574,1.2985673328340874,5.14201120171206,4.337968561327271
3.736941796304598,1.441607465041913,5.185390887325332,4.388632906986845
3.751357870955017,1.5891804880538156,5.229277216395201,4.437235860454112
3.767249675835555,1.7411927248617656,5.273649574999742,4.483189006329686
3.7846616030841727,1.8974987102709349,5.318481465063039,4.525841046802507
3.803636590186882,2.0578968863125944,5.363739875531064,4.56447530227264
3.824215559050008,2.2221257853522016,5.4093846285537905,4.598308276327013
3.8464368169035303,2.3898609499846524,5.455367711317061,4.626489548275116
3.870335426403377,2.560712867195419,5.501632606799812,4.6481032665289606
3.8959425550753313,2.7342262156576562,5.548113639465102,4.662171513814787
3.9232848172319077,2.9098807364057726,5.59473535460325,4.66765979710534
3.9523836245959654,3.087094035479747,5.641411952574304,4.663484878038198
3.9832545649507627,3.265226609793151,5.688046801354686,4.648525100711904
4.015906831048694,3.4435893523889303,5.734532052361804,4.621633291188056
4.050342724572583,3.6214537392733264,5.780748385273685,4.581652195867169
4.086557261965316,3.7980648271661535,5.826564907232356,4.527432294447692
4.1245379102369775,3.9726571010624454,5.871839230176833,4.457851669016731
4.164264481247602,4.144473105080916,5.916417746867,4.371837436888136
4.205709212298411,4.312784673614082,5.960136121235881,4.268388065413335
4.248837059034552,4.476916457565788,6.002820001890014,4.14659568798732
4.29360622361021,4.636271319207856,6.044285958769887,4.005667339539602
4.339968936802289,4.790357057442517,6.084342632165283,3.8449438369104456
4.387872507376714,4.9388138338370124,6.122792070534388,3.6639148573599205
4.437260645715084,5.081441612315887,6.1594312191079865,3.4622286325185914
4.488075061838243,5.218226918512612,6.194053505433172,3.239694592825883
4.540257331023369,5.349368287762977,6.226450451361431,2.9962772861952267
4.593751013900999,5.475299923939431,6.256413224223383,2.732079967598072
4.648504013140393,5.596713353454665,6.283734023899364,2.447316417678824
4.70447114667494,5.714577242774165,6.308207188076152,2.1422697882407453
4.761616919102681,5.830156056057664,6.32962988595856,1.8172375627997457
4.819918479663258,5.945028848367337,6.3478022615865575,1.4724620186170845
4.879368768146931,6.061110182305179,6.3625268817727285,1.1080458377901015
4.939979869969983,6.1806758493042,6.373607340150629,0.7238527231979677
5.001786628463026,6.306396634215143,6.380845867382609,0.31939310682516037
5.064850594805177,6.441383513656854,6.384039798450861,-0.10630441233873578
5.129264429941746,6.589246860972779,6.382976754327474,-0.5548336276799326
5.195156898551474,6.7541692163564395,6.377428418050674,-1.0285565033311006
5.262698590715038,6.940983252785998,6.367142853017363,-1.53073605040188
5.332108423242898,7.155227700617329,6.351835492513344,-2.0656112965348203
5.4036607002490715,7.403110950665507,6.331179379547996,-2.6383080404228445
5.477691809755727,7.691216546977903,6.304796299143768,-3.2543433883915664
5.554603975225506,8.025580230025417,6.272252865259852,-3.918192666197095
5.63485977752576,8.409360077694762,6.233070938597881,-4.6298129568578075
5.718953378302707,8.83763917483538,6.186772809029303,-5.377065232131599
5.807329770051061,9.287329230324143,6.133002156707986,-6.121206389767624
5.9002030623543025,9.702108410454597,6.071790092810311,-6.775488042691228
5.997224146458849,9.983632563395805,6.004035212383398,-7.193040274977824
6.0970604720928065,10.022228810541996,5.9321048096336195,-7.2114215658216825
6.1972827601982265,9.783591298163044,5.859990593975403,-6.777380531969234
6.295118673179857,9.35810358032019,5.79221678865571,-6.018856376827255
6.388699708983059,8.8815563078534,5.732028224887438,-5.1330254468867125
6.477515272061593,8.441872080413688,5.680697970418571,-4.251900753818677
6.56193399286573,8.069911340049744,5.638178962880384,-3.4267268595916525
6.642633106266227,7.7666191574848895,5.603911694284467,-2.665374584817957
6.720299297841076,7.522669120266953,5.577257948436288,-1.9602322926828708
6.795525989043745,7.326866473527859,5.55765562550946,-1.3005141031368659
6.868794653779024,7.168865655789333,5.544650484478091,-0.6764992942545747
6.9404833103369175,7.0397373412626045,5.537885491535546,-0.08062486807917235
7.010880683749543,6.931858244876812,5.537079242854754,0.4924830137784648
7.080199266198312,6.838650928985515,5.542004072992539,1.0462784077124951
7.148585775488167,6.7543425965871755,5.552466857069663,1.5826150818612859
7.216129201454039,6.673786441736977,5.568293007888276,2.102046260805272
7.282867065871408,6.5923478169322,5.589313470496329,2.6040941504909245
7.34879054404073,6.505845152223273,5.615354412001238,3.0874948963721933
7.4138489955629625,6.410532754641562,5.64622936096496,3.5504259846407096
7.477954323109378,6.303112743124082,5.681733620811367,3.99072006982343
7.540985450540619,6.18076438196539,5.7216408215096015,4.40606562666126
7.602793094360273,6.04118042502831,5.765701477776214,4.7941920671741665
7.663204898610556,5.882601654887344,5.813643398447955,5.1530354356947194
7.722030915159429,5.703842530829103,5.865173752804902,5.480880438165922
7.7790693404677205,5.504302651881168,5.919982557186562,5.77647509913878
7.834112366986532,5.283960492709237,5.97774730817795,6.039115424940689
7.886951971913624,5.0433475137484285,6.038138462427357,6.268698784330991
7.937385447051108,4.78350226966701,6.1008254502706665,6.465746108026267
7.985220469747778,4.505905566303629,6.165482911350929,6.631394378107899
8.030279525410815,4.212399062549162,6.231796855132008,6.767362215817237
8.072403516036307,3.9050909469464057,6.29947047729018,6.875892668836266
8.111454425505771,3.586253338687113,6.3682294039785425,6.959678482146471
8.147316958892642,3.2582167229931702,6.437826188800007,7.021776083145168
8.179899126122573,2.923266890851197,6.508043949631459,7.065515065820304
8.209131795031084,2.583549436268269,6.578699100289661,7.0944099922815615
8.234967289393767,2.240985899100971,6.649643200212477,7.112080795061717
8.257377148384776,1.8972042678644316,6.720764008163094,7.122187016168067
8.27634919106342,1.553484998181922,6.791985878324775,7.128379701864383
8.29188404104524,1.2107222193671383,6.863269675343419,7.134273165263193
8.303991263238911,0.8693986498430849,6.9346124069960515,7.14343717834394
8.312685249737342,0.5295721570759016,7.006046778779491,7.159408496815097
8.317980971308101,0.19087212285054683,7.077640863747642,7.1857187958755775
8.319889692536606,-0.14749485100960585,7.149498051706398,7.225933634412733
8.31841474402651,-0.48672723558203185,7.221757388050525,7.283693003703246
8.31354747167069,-0.8283901759639247,7.294594318087558,7.3627365469738555
8.30526356991105,-1.1743366142741656,7.368221683557296,7.466882408793278
8.293520203768308,-1.5265481584340272,7.442890507645229,7.599902285131403
8.278254722183968,-1.886820953481458,7.518889530496543,7.765187748408221
8.259386512649154,-2.2561644214548955,7.5965414079806255,7.965023284264479
8.236824868434605,-2.6336996816811618,7.67619164082327,8.199166671740487
8.210487871617794,-3.014773960250445,7.758183307540675,8.462332605664072
8.180340132015289,-3.3880985956317295,7.842806633597316,8.74028784006188
8.146459146058971,-3.732383643853903,7.930209511997935,9.005167145129224
8.109135309620433,-4.014812060586126,8.020261183449227,9.21319292991054
8.068987189014571,-4.196359126897548,8.112393112748332,9.311681677051775
8.027023597745595,-4.2478341905981045,8.20550992951885,9.260721001776924
7.984545255839614,-4.16905799447455,8.29811713953662,9.059153702699895
7.942854675894869,-3.9919211587935886,8.388708676563619,8.748548880949912
7.902935464306933,-3.7618110717935735,8.476194165373117,8.387895624494465
7.865317353588997,-3.516698493489165,8.560073121618062,8.025580956912139
7.830150368654106,-3.2794606467417915,8.640328931187184,7.689589537217687
7.7973557621866885,-3.0605216480610635,8.717224826559361,7.391519769841413
7.766750545706078,-2.862898147166691,8.791140024257775,7.133562290658006
7.738121564234411,-2.685980380497301,8.862475647164356,6.9135803182665345
7.711261760429438,-2.527676423807467,8.93161145034702,6.72790994867593
7.6859849961913635,-2.3854663350188163,8.99889054983378,6.5726837284517154
7.662130332841175,-2.2568670636645147,9.064617387118297,6.444376239693935
7.63956166220453,-2.1396094509414834,9.129061149515236,6.339981386034152
7.618165567695115,-2.031684048687482,9.192460963375577,6.257029254955846
7.59784872720824,-1.931331999434277,9.255031255925136,6.193540421501959
7.578535407213898,-1.837016701415891,9.316966660140155,6.147961086679134
7.560165240199739,-1.7473925831270702,9.378446271006947,6.119096646903961
7.542691314368468,-1.6612783922222634,9.439637237475987,6.106049327529934
7.526078530446245,-1.5776385719424137,9.500697730751286,6.108159961726582
7.510302144726821,-1.4955749424358824,9.561779330368552,6.124951289397712
7.495346395302462,-1.4143307777995784,9.623028843262528,6.1560686102240005
7.481203087524467,-1.333309860450441,9.684589529364768,6.201212494065772
7.467869988919962,-1.2521138428313838,9.746601654305426,6.2600572709779785
7.4553488504916485,-1.1706019154305007,9.809202227015206,6.332148288645587
7.4436428313373435,-1.0889768738576546,9.872523709901662,6.416770920550175
7.432753062598767,-1.007900363197289,9.936691419107165,6.512786042572641
7.422674058966794,-0.928636027225763,10.00181927953289,6.618431872251404
7.413387698694536,-0.8532106715543495,10.068003598255405,6.73110308954909
7.4048555919789925,-0.7845684802027759,10.135314629150896,6.847137565954581
7.397009907176964,-0.7266713179490842,10.203786004810441,6.96166961960105
7.389743193997473,-0.6844730592587999,10.273402701006452,7.06864171987503
7.382898463404885,-0.6636798369712735,10.344089118205202,7.16108847693071
7.376261665035172,-0.6702231069587887,10.415700002974509,7.231789121651204
7.369559433965584,-0.7094425661260628,10.488017894191021,7.274296134269329
7.362465008304324,-0.7851043835027602,10.560760855533713,7.2841837484794505
7.354613964469296,-0.8985205906996137,10.633602693018508,7.260180115733803
7.3456287585623,-1.0480931357096879,10.706204494175847,7.204772553709574
7.335147827205203,-1.22950065897417,10.778252219712943,7.12400913727154
7.322852820615461,-1.4365009821267454,10.849492311085658,7.026530879732791
7.308487810794194,-1.6620780712263872,10.919757619882986,6.922177246433534
7.29186703008193,-1.899567576288459,10.988979392347321,6.820625944269905
7.2728713543190455,-2.143482349349218,11.05718565179002,6.730417296791784
7.251436530825553,-2.389937978527609,11.124489824757937,6.658490089032032
7.227537151040277,-2.6367326998145613,11.191074725648257,6.610164765710847
7.201169824042132,-2.883209284589368,11.257176373305365,6.58942121947164
7.1723377311962375,-3.1300276169483223,11.323070585500082,6.5993200129900975
7.141037455026754,-3.378942137733183,11.389063785629983,6.6424622374326665
7.107248033649422,-3.6326391855326663,11.455488408004308,6.721436220517575
7.070921641794095,-3.89466063972881,11.522702770209484,6.83924080992008
7.031975035396807,-4.169425017178753,11.591095178308684,6.999701836528447
6.9902807852250195,-4.462352287209474,11.66109219667397,7.207913882250217
6.945657262352925,-4.780099074665797,11.733171335496472,7.470746855270477
6.897856271606267,-5.130909325239172,11.807878804049176,7.797454213597376
6.846547178353876,-5.525066957383546,11.88585334618515,8.200391593996335
6.79129650878004,-5.975362176302093,11.967857262125115,8.695749693442062
6.731542887017019,-6.497241251013094,12.054814759059536,9.303871474838033
6.666570474506888,-7.10759127128159,12.147853473807915,10.047730821480583
6.595494561794072,-7.819109939171872,12.248330782022721,10.94536836679822
6.517303462402354,-8.622294318139044,12.357784465690704,11.985209917623468
6.431080519220964,-9.439299160236283,12.47763656486694,13.062224252325985
6.336687527618601,-10.046303478665992,12.608258807390198,13.869873589330322
6.236224492831941,-10.086738464774054,12.746957543283502,13.917923572735132
6.1353571081842,-9.433066682503277,12.886136779010853,13.03398072844564
6.041026441359167,-8.452210689277443,13.01647658629531,11.726527767573199
5.956504334466393,-7.522446710200661,13.133741863971043,10.512169252286235
5.881279867364387,-6.755136873346754,13.238863556493905,9.53780562727111
5.813728498630919,-6.136618518680136,13.334241612766617,8.780938523204972
5.7523623134441175,-5.631563216990494,13.422050997998666,8.191715230263583
5.696046681274213,-5.209682342867045,13.5039681503013,7.72863870974726
5.643949857845542,-4.848606437261708,13.581254537398774,7.361891718129308
5.595463793472925,-4.532211472989145,13.654873454580066,7.07070689077544
5.550141678743033,-4.2487523556742826,13.725580523487821,6.840616735638368
5.50765415518629,-3.9894971911679296,13.793986690844205,6.661440443225025
5.467759183274611,-3.747825907692848,13.860601095276456,6.525901330573173
5.430280924197682,-3.5186671050617657,13.925860108582187,6.428662447126486
5.3950942531470645,-3.2981745654673573,13.990146733053452,6.365612330649309
5.362112507492391,-3.0835796158854305,14.053802856359946,6.333286262805679
5.331276711333537,-2.8731773352965266,14.117135718988003,6.328351492883245
5.302544937980572,-2.6664106236032157,14.180419233916835,6.347123488577761
5.27588083174454,-2.4640059047779843,14.243890468802613,6.385122996440719
5.25124077269676,-2.2680892554713745,14.307741698767021,6.436734757326626
5.228559880142046,-2.082180566239806,14.372109046340288,6.495080660869904
5.207738074479648,-1.9109475192016279,14.437059852948988,6.5522465904214355
5.1886285992876315,-1.7596341893544918,14.502582318853202,6.599960558624374
5.171032257394087,-1.6331865640620282,14.568581924439446,6.630678427437416
5.154700391753466,-1.5352589333189393,14.63488870871382,6.638822842015969
5.139347802420277,-1.4674125790621497,14.70127693713398,6.621760525710688
5.124673676629655,-1.4288009677712843,14.767494542391086,6.5801372316302205
5.1103856669519425,-1.4164464963086514,14.833295914707389,6.517447503176311
5.096221201988856,-1.4259630655022308,14.898470389739153,6.439045651660022
5.081961571333833,-1.4524283443682369,14.962860846255753,6.350992083302525
5.067437287890151,-1.491130369855928,15.026370767088778,6.259089951055721
5.0525259841915915,-1.5380454019799357,15.088961666599335,6.168287249935778
5.0371455301717925,-1.5900411646015509,15.150644539098693,6.082440460438733
5.021245118525777,-1.644878052080729,15.21146894370308,6.004337867930754
5.00479633800497,-1.7010976409505445,15.271512322382387,5.935863642388259
4.987785361595464,-1.7578696351818361,15.330870958806269,5.878210698133835
4.970206665243646,-1.8148409731729143,15.389653065787607,5.832087441101162
4.952058255511917,-1.8720079633578839,15.447973940198619,5.797893486106686
4.933338175878338,-1.92961767875371,15.505952875059686,5.775858154213548
4.9140419990908,-1.9880972261876357,15.56371145660182,5.766145025742846
4.894161026828924,-2.0480064614945883,15.62137290685925,5.768929399760859
4.873680962213979,-2.110009145044226,15.679062200856858,5.784455961453008
4.8525808707635365,-2.1748580379617666,15.736906760471388,5.813083032912149
4.830832290383919,-2.2433902406617006,15.79503759080051,5.855318396786426
4.808398387977301,-2.316529755043667,15.853590774768374,5.911850203181159
4.785233090426865,-2.3952945678044038,15.912709276800186,5.983574922221683
4.761280144748821,-2.4808052874219584,15.972545026022402,6.071622463533724
4.736472091874601,-2.5742911989201582,16.03326125065774,6.177375964163744
4.7107291798854,-2.677086951500696,16.09503501029938,6.30247947601051
4.683958310370393,-2.79060792042119,16.158059805059484,6.448819340572788
4.656052231166181,-2.916282763912589,16.222547998465213,6.61845181955387
4.626889403527056,-3.055404855773687,16.28873251666075,6.813426325334567
4.596335354969319,-3.2088359018731127,16.356866779914096,7.0354143166841
4.564246995950588,-3.376451272850622,16.427220923080938,7.284992781130174
4.530482483222081,-3.556161492282501,16.50007085089224,7.560352983035538
4.494920868299256,-3.742314611935671,16.575674380722596,7.855159118973545
4.457497722179899,-3.923409032014882,16.654225971912332,8.155444629676065
4.41826363185975,-4.0796317073434025,16.735780418209092,8.436229249854009
4.3774673147863155,-4.182164970554026,16.820142710707632,8.660500542496365
4.335645665080775,-4.197971914905841,16.906747716132596,8.785639737934586
4.293665945931717,-4.102529692209674,16.994604113511944,8.78066136449383
4.25264064900962,-3.8946093681494443,17.082410727156883,8.646110399366536
