th1 (rad),w1 (rad/s),th2 (rad),w2 (rad/s),a1 (rad/s^2),a2 (rad/s^2)
5.875105309468665,-2.653911424817223,6.21562365023688,-2.0033213267433396,9.637222069655436,-10.77454138245199
5.848566195220493,-2.5575392041206686,6.195590436969447,-2.1110667405678596,9.90825876981714,-10.684887116097253
5.8229908031792865,-2.458456616422497,6.174479769563768,-2.217915611728832,10.150673566258847,-10.547784078237308
5.798406237015062,-2.3569498807599087,6.15230061344648,-2.323393452511205,10.365801720786985,-10.369602572335936
5.774836738207463,-2.2532918635520387,6.129066678921368,-2.4270894782345644,10.554293627306706,-10.15579036056385
5.752303819571942,-2.147748927278972,6.104795784139022,-2.528647381840203,10.716143870172347,-9.910826095976665
5.730826330299153,-2.0405874885772484,6.079509310320621,-2.6277556427999693,10.850725923738166,-9.638187072797546
5.710420455413381,-1.9320802293398667,6.053231753892621,-2.724137513527945,10.95682770236601,-9.340324732376772
5.6910996531199824,-1.8225119523162066,6.025990378757341,-2.8175407608517125,11.032686324018892,-9.01864563220641
5.67287453359682,-1.7121850890760175,5.9978149711488244,-2.9077272171737767,11.076023471665453,-8.673499664365547
5.65575268270606,-1.601424854359363,5.968737698977087,-2.994462213817432,11.084085701146897,-8.304181308829309
5.639738434162466,-1.490583997347894,5.9387930768389126,-3.0775040269057254,11.053696987884052,-7.9089536983041935
5.624832594188987,-1.3800470274690535,5.908018036569855,-3.156593563888767,10.981333649433582,-7.485109181445706
5.611032123914297,-1.2702336909747176,5.876452100930967,-3.2314446557032244,10.863234254252736,-7.0290835675090815
5.59832978700455,-1.1616013484321903,5.8441376543739345,-3.3017354913783152,10.695558683600266,-6.536643608651689
5.586713773520228,-1.0546457615961877,5.811120299460152,-3.367101927464832,10.47461027828755,-6.003167354011482
5.576167315904266,-0.9498996588133122,5.777449280185503,-3.4271336010049467,10.197131787229939,-5.4240331663180905
5.5666683193161335,-0.8479283409410128,5.743177944175454,-3.4813739326681277,9.860678306851812,-4.795123560154904
5.558189035906723,-0.7493215578724947,5.708364204848772,-3.529325168269677,9.464057485210365,-4.113433033258959
5.550695820327999,-0.654680983020391,5.673070953166075,-3.5704594986022666,9.00780883912484,-3.377744389783821
5.544149010497795,-0.5646028946291426,5.637366358180052,-3.604236942500105,8.49467181920993,-2.5893078425789793
5.5385029815515034,-0.4796561764370433,5.601323988755051,-3.6301300209258947,7.929970601659734,-1.7524271485761846
5.533706419787133,-0.4003564704204459,5.565022688545792,-3.6476542924116564,7.32182952178364,-0.8748366238850508
5.529702855082928,-0.3271381752026095,5.528546145621675,-3.656402658650507,6.681134985800125,0.03224646377643659
5.526431473330902,-0.26032682534460827,5.49198211903517,-3.6560801940127425,6.021184310868401,0.9544785935806573
5.523828205077456,-0.20011498223592425,5.455421317095043,-3.646535408076936,5.357010192047227,1.8751771660939673
5.521827055255097,-0.146544880315452,5.418955963014273,-3.6277836364159963,4.704433399498185,2.7764747650006623
5.520361606451943,-0.09950054632047015,5.382678126650113,-3.6000188887659896,4.078959245976157,3.640692774648277
5.5193666009887385,-0.05871095386070858,5.346677937762453,-3.563611961019507,3.4946751397732188,4.45172982265813
5.518779491450132,-0.02376420246297639,5.311041818152258,-3.519094662792926,2.9633117705004457,5.196252062249086
5.518541849425501,0.005868915242028067,5.275850871524329,-3.467132142170435,2.4935960267788135,5.8645166282737415
5.518600538577922,0.030804875509816202,5.241179550102625,-3.4084869758876977,2.090960692099995,6.4507420510371585
5.51890858733302,0.05171448243081615,5.207094680343747,-3.343979555377326,1.7576046597993618,6.9530329044891355
5.519425732157329,0.06929052902880978,5.173654884789974,-3.2744492263324347,1.4928384970642716,7.372943039422103
5.5201186374476165,0.0842189139994525,5.140910392526649,-3.200719795938214,1.2936166961333546,7.714805182446279
5.520960826587611,0.09715508096078604,5.108903194567267,-3.123571744113751,1.1551521931445847,7.984961559076365
5.521932377397219,0.10870660289223188,5.07766747712613,-3.0437221285229876,1.071524379741762,8.19100909283014
5.523019443426141,0.1194218466896495,5.0472302558408995,-2.961812037594686,1.0362186796943882,8.341137248277567
5.524213661893038,0.1297840334865934,5.017612135464953,-2.8784006651119105,1.0425642715681036,8.44359932727991
5.5255115022279035,0.14020967620227442,4.988828128813834,-2.7939646718391113,1.0840603737388284,8.506327247521643
5.5269135989899265,0.15105027993966272,4.960888482095443,-2.708901399363895,1.1545979706082905,8.536678928923397
5.528424101789323,0.16259625964574562,4.933799468101804,-2.623534610074661,1.2485930017803681,8.54129615991892
5.53005006438578,0.1750821896635493,4.907564122001057,-2.538121648475472,1.3610503945251822,8.526047075492421
5.531800886282416,0.18869269360880112,4.882182905516302,-2.4528611777205476,1.4875778546196243,8.49602851147882
5.533687813218504,0.20356847215499735,4.857654293739096,-2.367900892605759,1.6243657916303338,8.455607189044901
5.535723497940054,0.21981213007130068,4.833975284813039,-2.28334482071531,1.7681464240268383,8.408483260874132
5.537921619240767,0.23749359431156908,4.811141836605885,-2.1992599881065686,1.9161417863300703,8.35776419835578
5.5402965551838825,0.2566550121748698,4.789149236724819,-2.1156823461230108,2.0660074587348607,8.30604080877588
5.542863105305631,0.2773150867622184,4.767992413263589,-2.032621938035252,2.215776512472083,8.255460173731999
5.545636256173253,0.29947285188693923,4.747666193883236,-1.950067336297932,2.3638064121945805,8.207792518956468
5.548630984692123,0.32311091600888503,4.728165520520257,-1.8679894111083672,2.5087303658208393,8.16449057642561
5.551862093852211,0.3481982196670934,4.709485626409173,-1.7863445053441112,2.649413762803456,8.126741024461667
5.555344076048882,0.37469235729512795,4.691622181355732,-1.7050770950994945,2.784915795186138,8.095508226424391
5.559090999621833,0.40254151524698933,4.674571410404737,-1.6241220128352505,2.914456027140406,8.071570848208118
5.563116414774303,0.4316860755183934,4.658330190276384,-1.5434063043531694,3.037385500370702,8.055552108757796
5.567433275529487,0.4620599305221004,4.642896127232852,-1.4628507832655915,3.153161884018281,8.047944472573974
5.572053874834707,0.4935915493622832,4.628267619400196,-1.3823713385398517,3.2613281618531995,8.04912957575975
5.57698979032833,0.5262048309808152,4.614443906014798,-1.3018800427822543,3.3614943711773866,8.059394119689953
5.582251838638138,0.559819774692589,4.6014251055869755,-1.2212861015853549,3.4533219498947263,8.078942389961243
5.587850036385063,0.5943529941915363,4.589212244571122,-1.1404966776857424,3.5365102995836804,8.107905976212153
5.593793566326979,0.6297180971873731,4.577807277794265,-1.0594176179236208,3.610785226277172,8.14635118863583
5.600090747298853,0.6658259494501448,4.567213101615029,-0.9779541060372625,3.675888972992758,8.194284593939928
5.606749006793354,0.7025848391800724,4.5574335605546565,-0.8960112600978632,3.73157160670646,8.251657029245996
5.613774855185155,0.739900555247137,4.548473447953678,-0.8134946898054033,3.7775835664477495,8.318366397655522
5.621173860737627,0.7776763909116146,4.540338501055624,-0.7303110258288481,3.8136692182496765,8.394259503795487
5.628950624646743,0.8158130830941113,4.533035390797336,-0.6463684307908932,3.8395612969605706,8.479133150986405
5.637108755477684,0.854208696063717,4.526571706489427,-0.5615770992810292,3.854976144760358,8.572734692917589
5.645650842438322,0.8927584575113205,4.520955935496616,-0.4758497523518533,3.859609682048632,8.674762210950496
5.654578427013435,0.9313545543318069,4.516197437973098,-0.3891021302423483,3.8531340686030076,8.784864472477743
5.663891972556753,0.969885895017837,4.512306416670675,-0.30125348551757086,3.8351950319145285,8.902640815250114
5.673590831506932,1.0082378453369822,4.509293881815499,-0.2122270773650697,3.8054098556838585,9.02764109640071
5.683673209960301,1.0462919438938207,4.507171611041849,-0.1219506664010626,3.7633660348109053,9.159365842241824
5.694136129399239,1.0839256042419299,4.505952104377838,-0.03035700797864435,3.7086206139387907,9.297266735020756
5.704975385441658,1.1210118103813178,4.505648534298051,0.06261565937156321,3.6407002347362765,9.440747574952042
5.716185503545471,1.1574188127286806,4.506274690891766,0.15702313512108362,3.5591019225465024,9.589165859264694
5.727759691672758,1.1930098319541456,4.5078449222429775,0.2529147937137306,3.4632946456404476,9.74183512398121
5.739689789992299,1.2276427784105501,4.510374070180115,0.35033314495354273,3.3527216798677464,9.898028197941883
5.751966217776405,1.2611699952092277,4.51387740162965,0.44931342693296156,3.2268038077173737,10.056981521453041
5.764577917728498,1.2934380332864015,4.51837053589898,0.549883242147492,3.0849433733729317,10.21790068311446
5.777512298061362,1.3242874670201308,4.523869368320455,0.6520622489786365,2.926529203944435,10.379967327113633
5.790755172731563,1.353552759059575,4.530389990810241,0.7558619222497729,2.7509423913693323,10.542347578824241
5.804290700322159,1.3810621829732683,4.537948610032739,0.8612853980380153,2.5575629092361454,10.70420212821678
5.818101322151892,1.4066378120656298,4.546561464013119,0.9683274193201831,2.345777013820401,10.864698097753752
5.8321677002725485,1.4300955822038337,4.556244738206321,1.0769744002977206,2.114985348893599,11.023022803582858
5.846468656094586,1.4512454356927698,4.567014482209299,1.1872046283335491,1.8646116395193468,11.178399495589005
5.860981110451514,1.4698915520879632,4.578886528492634,1.2989886232894392,1.5941118214778915,11.330105133041737
5.875680025972394,1.485832670302742,4.591876414725529,1.4122896746198565,1.302983410863595,11.477490218231697
5.890538352675422,1.498862504411378,4.605999311471727,1.5270645768021736,0.990774873859843,11.620000670941502
5.905526977719536,1.5087702531499763,4.621269957239749,1.6432645835115887,0.6570947112484617,11.757201682428812
5.9206146802510355,1.5153412002624609,4.637702603074865,1.7608366003358769,0.30161992792726405,11.888803439647809
5.93576809225366,1.5183573995417334,4.655310969078223,1.8797246347323548,-0.07589648270792686,12.01468855971307
5.950951666249077,1.517598434714654,4.674108215425546,1.9998715203294855,-0.4756194427696665,12.134941022157948
5.966127650596223,1.5128422402869575,4.694106930628841,2.1212209305510648,-0.897627506998289,12.249876333164956
5.981256072999093,1.5038659652169746,4.715319139934352,2.2437196938827144,-1.3419108221338565,12.360072601799644
5.996294732651263,1.490446856995636,4.737756336873179,2.367320419900711,-1.8083717382181188,12.46640215219938
6.01119920122122,1.4723631396134547,4.761429541072187,2.4919844414227046,-2.2968284294627654,12.570063234192213
6.025922832617354,1.449394855318827,4.786349385486414,2.6176850737646267,-2.8070217863458797,12.672611320711399
6.040416781170542,1.421324637455368,4.81252623622406,2.7444111869717407,-3.338625685458407,12.775989380442159
6.0546300275450955,1.3879383806007841,4.839970348093777,2.8721710807761625,-3.891260508256455,12.8825563660327
6.068509411351103,1.3490257755182196,4.868692058901539,3.0009966444364893,-4.464509434329173,12.995112925627602
6.081999669106286,1.304380681174928,4.898702025345904,3.1309477736927653,-5.057936535434739,13.116922971104254
6.095043475918035,1.2538013158205805,4.930011503082832,3.262117003403808,-5.6711049787004795,13.251729131218257
6.107581489076241,1.1970902660335758,4.96263267311687,3.39463429471599,-6.303592614002638,13.403759145311298
6.119552391736577,1.1340543398935494,4.99657901606403,3.528671886169103,-6.955000725222422,13.577718705253421
6.130892935135512,1.0645043326413253,5.031865734925721,3.6644490732216375,-7.624949546571543,13.778763814702849
6.141537978461925,0.9882548371756098,5.0685102256579375,3.802236711368666,-8.31305095012752,14.012441930660678
6.1514205268336815,0.9051243276743346,5.106532592771624,3.942361130675273,-9.018844000491773,14.284585272097814
6.160471770110425,0.8149358876694168,5.145956204078377,4.085206983396251,-9.741672110888295,14.60113067260787
6.168621128987119,0.7175191665605338,5.18680827391234,4.23121829012233,-10.480470258173913,14.967826690767884
6.175796320652724,0.6127144639787947,5.229120456813563,4.380896557030009,-11.233415638809056,15.3897682217821
6.181923465292512,0.5003803075907042,5.272929422383863,4.534794239247829,-11.997373333298256,15.870668712854497
6.18692726836842,0.3804065742577216,5.318277364776342,4.693500926376374,-12.767037761693032,16.41173686171468
6.190731334110997,0.2527361966407913,5.365212374040105,4.857618294993521,-13.533629169464545,17.009965324456118
6.193258696077405,0.11739990494614583,5.41378855699004,5.027717948238082,-14.282952848834318,17.655563547052044
6.194432695126866,-0.025429623542197355,5.4640657364724206,5.204273583708602,-14.992575762733464,18.328185472242673
6.194178398891444,-0.175355381169532,5.516108472309506,5.387555438431029,-15.627848235148818,18.99155112627372
6.192424845079749,-0.3316338635210202,5.569984026693817,5.577470949693766,-16.13656629288266,19.58613072953347
6.189108506444539,-0.4929995264498468,5.625758736190755,5.773332256989101,-16.44238086767722,20.019951427390215
6.184178511180041,-0.657423335126619,5.6834920587606454,5.973531771263003,-16.437885300895424,20.158673871550516
6.177604277828775,-0.8218021881355733,5.743227376473276,6.175118509978509,-15.980047321489582,19.818420078513558
6.169386255947419,-0.9816026613504691,5.804978561573061,6.373302710763644,-14.893592351967607,18.7688487098012
6.159570229333914,-1.1305385848701452,5.868711588680697,6.560991197861656,-12.991493392814048,16.758897613862537
6.1482648434852125,-1.2604535187982857,5.934321500659314,6.728580174000282,-10.122754799664692,13.579219657113017
6.13566030829723,-1.3616810667949326,6.001607302399316,6.864372370571412,-6.24928459674703,9.164176333574325
6.122043497629281,-1.424173912762403,6.07025102610503,6.956014133907155,-1.5291971074370154,3.703171183245509
6.107801758501656,-1.439465883836773,6.139811167444101,6.99304584573961,3.6480041717627922,-2.312191887076073
6.093407099663288,-1.4029858421191452,6.209741625901497,6.96992392686885,8.731193698783981,-8.181549471536808
6.0793772412420966,-1.3156739051313053,6.279440865170185,6.888108432153482,13.176841039526103,-13.221323591681438
6.066220502190784,-1.1839054947360443,6.34832194949172,6.755895196236668,16.624027282866553,-16.994988877929853
6.054381447243423,-1.0176652219073787,6.415880901454087,6.585945307457369,18.96881051466141,-19.40569684569261
6.044204795024349,-0.8279771167607646,6.481740354528661,6.391888339000443,20.31724967595394,-20.626887496275952
6.035925023856741,-0.6248046200012252,6.545659237918666,6.185619464037683,20.881025512285074,-20.959804819864015
6.029676977656729,-0.4159943648783744,6.607515432559042,5.976021415839043,20.886295704533197,-20.712834318315146
6.025517034007946,-0.2071314078330424,6.667275646717433,5.768893072655891,20.524079611062565,-20.138594747915814
6.023445719929615,-0.0018906117224167518,6.724964577443991,5.567507125176733,19.935780562970486,-19.41818023698861
6.023426813812391,0.19746719390728812,6.780639648695758,5.3733253228068465,19.21748812216541,-18.669619564746334
6.025401485751464,0.3896420751289422,6.834372901923826,5.186629127159383,18.430572447783376,-17.9636821984476
6.029297906502753,0.573947799606776,6.88623919319542,5.006992305174907,17.612258759406583,-17.33882739871305
6.035037384498821,0.7500703872008418,6.93630911624717,4.833604031187776,16.7840047218908,-16.812693356655828
6.042538088370829,0.9179104344197498,6.984645156559047,4.665477097621218,15.95745935549229,-16.39007486858456
6.051717192715027,1.0774850279746728,7.031299927535259,4.501576348935372,15.138452888478753,-16.06814958187932
6.062492042994774,1.2288695568594603,7.076315691024613,4.340894853116579,14.329567172470131,-15.83977943837595
6.074780738563368,1.3721652285841617,7.119724639555779,4.182497058732819,13.531743945951694,-15.695546412444614
6.08850239084921,1.5074826680436786,7.161549610143107,4.025541594608373,12.745262382461805,-15.624987197587055
6.103577217529646,1.6349352918682967,7.201805026089191,3.8692917226325023,11.970310706774075,-15.617334190555756
6.119926570448329,1.7546383989360375,7.240497943315516,3.713118380726945,11.207299136558946,-15.66195847418916
6.13747295443769,1.866711390301627,7.277629127122785,3.5564987959850534,10.457008988192891,-15.748636157683864
6.156140068340706,1.9712814801835559,7.313194115082636,3.3990124344082147,9.720638696520192,-15.867711642246343
6.175852883142542,2.068487867148758,7.347184239426718,3.240335317985751,8.999785805744539,-16.010201308351384
6.19653776181403,2.1584857252062033,7.379587592606575,3.080233304902237,8.296390334211047,-16.167862490532315
6.218122619066092,2.2414496285483136,7.410389925655598,2.9185546799969138,7.612656338990235,-16.333241241879296
6.240537115351575,2.317576191938216,7.439575472455567,2.755222267578121,6.9509630772239746,-16.499705607951977
6.263712877270957,2.3870858227104557,7.467127695131348,2.590225211498601,6.313773653776764,-16.661467227663515
6.287583735498062,2.450223559248223,7.493029947246334,2.423610539221966,5.703546693887047,-16.813591982823954
6.312085971090545,2.5072590261870937,7.517266052638553,2.255474619393726,5.122654916655721,-16.951999445904825
6.337158561352416,2.558485575353651,7.539820798832491,2.085954624934678,4.573313229677851,-17.073450587109395
6.3627434171059525,2.6042187076504297,7.560680345081837,1.915220119063584,4.057517953952461,-17.175523307245516
6.3887856041824564,2.6447938871899543,7.579832546272473,1.7434648859911288,3.576997930840612,-17.256575666758057
6.415233543054356,2.6805638664983604,7.5972671951323845,1.5708991293235481,3.133177511839832,-17.31569704870475
6.442039181719339,2.7118956416167586,7.61297618642562,1.3977421588365007,2.7271507639014234,-17.352647829805072
6.469158138135507,2.7391671492557728,7.626953608013984,1.2242156805384499,2.3596656261323115,-17.367788372120145
6.496549809628065,2.7627638055170958,7.639195764819369,1.0505377968172485,2.031116219717942,-17.361998241496796
6.524177447683236,2.783074967714275,7.649701142787541,0.8769178144022804,1.7415410319358389,-17.33658647519205
6.5520081973603785,2.800490378033633,7.658470320931564,0.7035519496503599,1.4906242528409812,-17.293193438119943
6.580013101140715,2.815396620562043,7.665505840428068,0.5306200152691605,1.2776971194336995,-17.233684310340116
6.608167067346335,2.82817359175638,7.67081204058076,0.35828317216575933,1.1017356911501581,-17.160033528395314
6.636448803263899,2.8391909486678815,7.674394872302417,0.1866828368818062,0.961351013030407,-17.074198555270204
6.6648407127505775,2.8488044587981856,7.676261700671235,0.015940851329104166,0.8547670903442482,-16.977980180475992
6.693328757338559,2.857352129701628,7.676421109184526,-0.15383895047565577,0.7797814810142427,-16.872865169890314
6.721902278635575,2.8651499445117707,7.674882719679769,-0.32256760217455893,0.7337026130771317,-16.7598455419312
6.750553778080693,2.872486970642542,7.671657043658024,-0.4901660575938709,0.7132572041376395,-16.639207151134435
6.779278647787119,2.8796195426839186,7.6667553830820845,-0.6565581291052153,0.7144605364609794,-16.510278836019232
6.808074843213958,2.8867641480485284,7.660189801791033,-0.8216609174654076,0.7324421160811341,-16.37113256297377
6.836942484694443,2.8940885692093397,7.651973192616379,-0.9853722430951453,0.7612199614492843,-16.21822554183445
6.865883370386537,2.9017007688238325,7.642119470185428,-1.1475544985134898,0.7934193691961082,-16.045978514827212
6.894900378074775,2.909634962515794,7.630643925200292,-1.3080142836617619,0.819938019288842,-15.84629244401382
6.923996727699933,2.9178343427086824,7.617563782363675,-1.4664772081019,0.8295710157726416,-15.60802182934108
6.95317507112702,2.9261300528664087,7.6028990102826555,-1.6225574263953109,0.8086300810902021,-15.316451250213069
