th1 (rad),w1 (rad/s),th2 (rad),w2 (rad/s),a1 (rad/s^2),a2 (rad/s^2)
2.616885884593909,2.8162458399824413,0.9656836877595362,-2.8284111483105367,-8.931437151161166,-0.8716427936868474
2.6450483429937335,2.7269314684708297,0.9373995762764308,-2.837127576247405,-8.773601852269207,-1.7293273620426624
2.672317657678442,2.639195449948138,0.9090283005139568,-2.854420849867832,-8.674878381111624,-2.5541438669983525
2.6987096121779235,2.5524466661370218,0.8804840920152784,-2.8799622885378153,-8.631211289508043,-3.353580528638196
2.724234078839294,2.4661345532419414,0.8516844691299003,-2.9134980938241974,-8.639159915024338,-4.1339210458591555
2.7488954243717134,2.379742954091698,0.8225494881916583,-2.954837304282789,-8.695681459503716,-4.900292079139235
2.7726928539126305,2.292786139496661,0.7930011151488304,-3.0038402250741814,-8.79790776579171,-5.656649742664825
2.795620715307597,2.2048070618387436,0.7629627128980886,-3.06040672250083,-8.9429055529315,-6.405701085941161
2.8176687859259846,2.1153780063094287,0.7323586456730803,-3.1244637333602414,-9.12740944928073,-7.1487554499102055
2.8388225659890787,2.0241039118166215,0.7011140083394779,-3.1959512878593435,-9.34751729617542,-7.8854998716587605
2.859063605107245,1.9306287388548673,0.6691544954608845,-3.274806286575931,-9.598338239794074,-8.613693095240112
2.878369892495794,1.8346453564569265,0.6364064325951252,-3.360943217528332,-9.873586737263544,-9.328775143493878
2.896716346060363,1.735909489084291,0.6027970004198419,-3.454230968963271,-10.16512075892914,-10.02339506642802
2.914075440951206,1.6342582814949995,0.5682546907302092,-3.5544649196275513,-10.462431513906958,-10.686870052375165
2.930418023766156,1.52963396635593,0.5327100415339336,-3.661333620151303,-10.75210660900157,-11.304606566177354
2.9457143634297154,1.4221129002659143,0.4960967053324206,-3.7743796858130767,-11.017310397587531,-11.857540634007004
2.9599354924323746,1.311939796290039,0.45835290847428983,-3.8929550921531466,-11.237355627925453,-12.32169127495235
2.973054890395275,1.1995662400107845,0.4194233575527584,-4.01617200490267,-11.387479038577768,-12.667967868849876
2.985050552795383,1.0856914496250067,0.3792616375037317,-4.142851683591169,-11.438976633601186,-12.862424294525697
2.9959074672916333,0.9713016832889949,0.33783312066782,-4.271475926536426,-11.359892692548074,-12.867198279391785
3.005620484124523,0.8577027563635141,0.29511836140245573,-4.400147909330344,-11.116472836477525,-12.642392019813206
3.0141975116881583,0.7465380279987388,0.2511168823091523,-4.526571829528476,-10.67555977805253,-12.149107694961884
3.0216628919681456,0.6397824302182135,0.20585116401386755,-4.648062906478095,-10.008000154196731,-11.353711509177774
3.028060716270328,0.5397024286762462,0.1593705349490866,-4.761600021569873,-9.092918692505435,-10.233134424328417
3.03345774055709,0.4487732417511918,0.11175453473338787,-4.863931365813157,-7.922406768838072,-8.780634692562456
3.0379454729746023,0.36954917406281107,0.0631152210752563,-4.951737712738781,-6.505824025302687,-7.011020803816179
3.0416409647152305,0.3044909338097842,0.013597843947868483,-5.021847920776943,-4.872647121731772,-4.964017788375616
3.0446858740533282,0.2557644625924665,-0.03662063525990095,-5.071488098660699,-3.0727829726953946,-2.704457498961344
3.047243518679253,0.22503663286551254,-0.08733551624650793,-5.098532673650312,-1.1736261474149619,-0.3184416770580072
3.049493885007908,0.21330037139136293,-0.13832084298301106,-5.101717090420892,0.7461222505914327,2.0944490030832914
3.0516268887218216,0.22076159389727726,-0.18933801388722,-5.080772600390059,2.604945761017204,4.431705666213632
3.053834504660794,0.2468110515074493,-0.2401457398911206,-5.036455543727922,4.3276508632817405,6.599125838854274
3.0563026151758685,0.2900875601402667,-0.29051029532839984,-4.9704642853393795,5.853260020312441,8.520410969165196
3.0592034907772714,0.3486201603433911,-0.3402149381817936,-4.885260175647727,7.1401564690633395,10.143320471306879
3.0626896923807054,0.4200217250340245,-0.38906753993827087,-4.783826970934658,8.167811060172712,11.441617854889296
3.066889909631046,0.5016998356357516,-0.43690580964761744,-4.669410792385765,8.935340198406262,12.413166489253856
3.0719069079874033,0.5910532376198142,-0.4835999175714751,-4.5452791274932265,9.457810077529377,13.075326086959933
3.0778174403636016,0.685631338395108,-0.5290527088464073,-4.414525866623627,9.761455375403823,13.459083200256114
3.084673753747553,0.7832458921491463,-0.5731979675126436,-4.279935034621066,9.87886172839724,13.603183096415897
3.0925062126690444,0.8820345094331187,-0.6159973178588543,-4.143903203656907,9.844830515220657,13.549117447033632
3.1013265577633757,0.9804828145853253,-0.6574363498954233,-4.008412029186571,9.69327223805587,13.337369320882583
3.111131385909229,1.077415536965884,-0.697520470187289,-3.8750383359777456,9.455174345593019,13.004957461873708
3.121905541278888,1.1719672804218142,-0.7362708535470665,-3.7449887613590085,9.157502973167126,12.584102563897803
3.133625214083106,1.2635423101534855,-0.7737207411606566,-3.6191477357200306,8.822817126757212,12.101745745562882
3.1462606371846404,1.3517704814210576,-0.8099122185178569,-3.498130278264402,8.469366761017357,11.57964427704165
3.159778341998851,1.436464149031231,-0.8448935213005009,-3.3823338354939856,8.111479367609029,11.034811164790046
3.1741429834891637,1.5175789427073214,-0.8787168596554408,-3.271985723846085,7.760087479663795,10.480123061155034
3.189318772916237,1.5951798175039593,-0.9114367168939016,-3.1671844932345348,7.4232964051167185,9.924977040274056
3.2052705710912766,1.6694127815551265,-0.9431085618262469,-3.067934722831794,7.106930260580824,9.375922779197799
3.221964698906828,1.7404820841609348,-0.9737879090545649,-2.974175495039816,6.815023036944211,8.837230532399127
3.239369519748437,1.8086323145303769,-1.0035296640049631,-2.885803189715825,6.550240822732489,8.31137812073243
3.257455842893741,1.8741347227577019,-1.0323876959021214,-2.802689408508501,6.3142333611513495,7.799454313350608
3.2761971901213176,1.9372770563692154,-1.0604145899872064,-2.7246948653749947,6.107919875781926,7.301483916371104
3.2955699606850097,1.9983562551270346,-1.0876615386409563,-2.6516800262112836,5.931717327518229,6.816683676210348
3.31555352323628,2.057673428402217,-1.114178338903069,-2.5835131894491803,5.7857202996301265,6.3436593327170065
3.3361302575203022,2.1155306313985185,-1.1400134707975609,-2.5200765961220104,5.669841487305917,5.880553918958189
3.3572855638342873,2.172229046271578,-1.165214236758781,-2.4612710569324285,5.58392090890415,5.425156424895824
3.379007854297003,2.2280682553606193,-1.1898269473281053,-2.4070194926834705,5.5278108379781825,4.974978671176225
3.4012885368506094,2.2833463637404012,-1.21389714225494,-2.3572697059717083,5.501442294453653,4.527306940872794
3.4241220004880133,2.338360786684938,-1.237469839314657,-2.3119966365629803,5.50487783956511,4.079233737084746
3.4475056083548625,2.393409565080589,-1.260589805680287,-2.271204299192133,5.5383544336178945,3.6276740492253747
3.4714397040056686,2.448793109416768,-1.2833018486722083,-2.234927558699879,5.602319236622549,3.1693697618970766
3.4959276350998363,2.504816301782993,-1.305651124259207,-2.2032338610809084,5.697460428923886,2.700885357934863
3.520975798117666,2.561790906072232,-1.327683462870016,-2.17622500750156,5.824734349015,2.2185978900122656
3.5465937071783884,2.620038249562382,-1.3494457129450317,-2.1540390286014373,5.985389412272385,1.7186843867043886
3.5727940896740122,2.6798921436851058,-1.370986103231046,-2.1368521847343933,6.1809862803410764,1.197110526510665
3.5995930111108634,2.7417020064885165,-1.3923546250783898,-2.1248810794692865,6.413412444724992,0.6496257325732935
3.6270100311757485,2.8058361309357664,-1.4136034358730827,-2.1183848221435535,6.6848875509085195,0.07177208907189013
3.655068392485106,2.8726850064448515,-1.4347872840945182,-2.1176671012528345,6.997953100987597,-0.5410819152488427
3.6837952425495546,2.9426645374547276,-1.4559639551070465,-2.123077920405323,7.355436163966745,-1.193666206337292
3.7132218879241017,3.0162188990943952,-1.4771947343110996,-2.135014582468696,7.760370710782469,-1.8906673431286316
3.7433840769150457,3.09382260620222,-1.4985448801357866,-2.153921255899982,8.21585120307693,-2.636482110755293
3.774322302977068,3.1759811182329893,-1.5200840926947863,-2.180286077007535,8.724779769730086,-3.434809441645635
3.806082114159398,3.26322891593029,-1.5418869534648616,-2.2146341714239917,9.28944901450976,-4.287996092047038
3.8387144033187006,3.3561234060753877,-1.5640332951791016,-2.257514132344462,9.910875391552612,-5.196012991314601
3.8722756373794547,3.455232159990914,-1.5866084365025461,-2.309474262257608,10.587762019501849,-6.154888243617057
3.9068279589793637,3.5611097801859324,-1.6097031791251222,-2.3710231446937784,11.314926461477144,-7.154362092133538
3.942439056781223,3.6742590448007038,-1.63341341057206,-2.4425667656151138,12.080987822814865,-8.174472668863375
3.9791816472292303,3.7950689230288526,-1.657839078228211,-2.5243114923037475,12.86509587636959,-9.180768671447826
4.017132336459519,3.9237198817925485,-1.6830821931512485,-2.616119179018226,13.632566410852428,-10.11796759920172
4.056369535277445,4.0600455459010725,-1.7092433849414308,-2.717298855010243,14.32958797597988,-10.902316539641486
4.096969990736455,4.203341425660871,-1.7364163734915332,-2.826322020406658,14.877895017174863,-11.413965023471262
4.139003404993064,4.3521203758326195,-1.7646795936956,-2.9404616706413704,15.171709824390323,-11.492679203944041
4.18252460875139,4.503837474076523,-1.7940842104020136,-3.0553884626808108,15.081380954952952,-10.943267444718975
4.227562983492155,4.654651283626053,-1.8246380950288217,-3.1648211371280004,14.470170080953535,-9.559978266236174
4.274109496328416,4.799352984435588,-1.8562863064001016,-3.260420919790362,13.229928176887926,-7.17811575983542
4.322103026172772,4.931652266204467,-1.8888905155980051,-3.332202077388716,11.333588126226035,-3.749967494360894
4.371419548834816,5.044988147466728,-1.9222125363718923,-3.369701752332325,8.88560335636115,0.5818514020929648
4.421869430309483,5.133844181030339,-1.9559095538952156,-3.3638832383113955,6.135228841514815,5.463835654088385
4.4732078721197865,5.195196469445487,-1.9895483862783296,-3.309244881770512,3.424443137097367,10.40449862821239
4.525159836814241,5.229440900816461,-2.0226408350960345,-3.205199895488388,1.0835153834635893,14.922996853648804
4.577454245822406,5.240276054651097,-2.0546928340509183,-3.0559699269519,-0.6686326723512955,18.692539971261194
4.629857006368917,5.233589727927583,-2.0852525333204373,-2.869044527239288,-1.764452322736518,21.60007068655921
4.682192903648193,5.215945204700218,-2.11394297859283,-2.653043820373696,-2.2614800428047084,23.71146903183583
4.734352355695195,5.193330404272171,-2.140473416796567,-2.4159291300553374,-2.2844753323416316,25.19069252816407
4.786285659737917,5.170485650948755,-2.1646327080971206,-2.164022204773697,-1.9730652517934288,26.225391780378555
4.837990516247404,5.150754998430821,-2.186272930144858,-1.9017682869699113,-1.4509626213122095,26.982276270771866
4.889498066231712,5.136245372217699,-2.205290613014557,-1.6319455242621927,-0.8148930775169804,27.590133992361675
4.9408605199538895,5.128096441442529,-2.221610068257179,-1.356044184338576,-0.13516363314793603,28.139413873568326
4.9921414843683145,5.126744805111049,-2.235170510100565,-1.0746500456028927,0.5390491371930813,28.688694811042232
5.043408932419425,5.13213529648298,-2.2459170105565938,-0.7877630974924703,1.1736378222738517,29.272461234786324
5.094730285384254,5.143871674705719,-2.2537946415315186,-0.4950384851446071,1.744379728889536,29.90781773960118
5.146169002131312,5.161315471994614,-2.258745026382965,-0.19596030774859524,2.2330380820759386,30.599535239300938
5.197782156851257,5.183645852815373,-2.260704629460451,0.11003504464441416,2.6246428197369274,31.34356833925723
5.249618615379411,5.209892281012743,-2.259604279014007,0.4234707280369865,2.905702030088652,32.12940648321583
5.301717538189539,5.238949301313629,-2.2553695717336373,0.7447647928691448,3.063104682389428,32.94162532496857
5.354107031202675,5.269580348137524,-2.2479219238049457,1.0741810461188304,3.083530146454866,33.7609397242062
5.406802834684051,5.300415649602073,-2.2371801133437574,1.4117904433608923,2.9532363260675774,34.5649869063423
5.459806991180072,5.329948012862748,-2.2230622089101484,1.7574403124243152,2.6581419585794963,35.329006852706854
5.513106471308699,5.356529432448543,-2.2054878057859053,2.1107303809513835,2.184147564771925,36.026539151525576
5.566671765633185,5.3783709080962625,-2.1843805019763916,2.4709957724666394,1.517655407276732,36.63021811422151
5.620455474714148,5.39354746216903,-2.159670544251725,2.8372979536088545,0.6462542227241485,37.11271692337816
5.674390949335838,5.400010004396272,-2.1312975647156365,3.208425122842636,-0.4404680724444041,37.447863781561104
5.728391049379801,5.395605323671828,-2.09921331348721,3.582903760658247,-1.750028776767331,37.61192664450805
5.782347102616519,5.378105035904155,-2.063384275880628,3.9590230271033278,-3.286128825966577,37.58503760069771
5.836128152975561,5.345243747644489,-2.0237940456095944,4.334873403110305,-5.047775482731077,37.35270382246356
5.889580590452005,5.294765992817179,-1.9804453115784915,4.708400441334941,-7.028532123078685,36.90733058034077
5.942528250380177,5.224480671586392,-1.933361307165142,5.077473747138349,-9.21598751378931,36.24966494875407
5.994773057096041,5.132320796448498,-1.8825865696937587,5.439970396625889,-11.591541090715033,35.390058768257276
6.046096265060526,5.016405385541348,-1.8281868657274998,5.793870984308462,-14.130596909400705,34.34944864260495
6.096260318915939,4.875099416447341,-1.7702481558844152,6.137365470734512,-16.8032447709414,33.15996181568351
6.1450113130804125,4.707066968737927,-1.70887450117707,6.468965088891347,-19.575480737135642,31.86508204392249
6.1920819827677915,4.511312161366571,-1.6441848502881566,6.7876159093305715,-22.4109803794346,30.519350482696233
6.237195104381457,4.287202357572225,-1.576308691194851,7.092809414157534,-25.273388387753297,29.187632522243128
6.280067127957179,4.034468473694692,-1.5053805970532756,7.384685739379965,-28.129032053681076,27.94404836050895
6.320411812694126,3.753178153157881,-1.431533739659476,7.664126222985055,-30.949910303163772,26.870733942677493
6.357943594225705,3.4436790501262435,-1.3548924774296256,7.93283356241183,-33.71676084607603,26.056654667692516
6.392380384726967,3.106511441665483,-1.2755641418055073,8.193400109088754,-36.42196668811873,25.596714000827284
6.423445499143622,2.7422917747842956,-1.1936301407146197,8.449367249097028,-39.07201620623439,25.591347127708875
6.450868416891464,2.3515716127219517,-1.1091364682236495,8.705280720374116,-41.689134433533845,26.14660356860453
6.474384133018684,1.9346802683866131,-1.0220836610199084,8.96674675606016,-44.311453918016845,27.37427710464354
6.49373093570255,1.4915657292064446,-0.9324161934593068,9.240489527106597,-46.99046964794151,29.39066496379059
6.508646592994615,1.0216610327270295,-0.8400112981882408,9.534396176744503,-49.783058833975375,32.31043052330498
6.518863203321885,0.5238304443872757,-0.7446673364207959,9.857500481977553,-52.73208242344622,36.2275047942351
6.524101507765758,-0.0034903798471865866,-0.6460923316010203,10.219775529919904,-55.82263733011298,41.16535122549262
6.524066603967286,-0.5617167531483164,-0.5438945763018213,10.63142904217483,-58.88726409403791,46.95968955951319
6.518449436435803,-1.1505893940886955,-0.43758028588007297,11.101025937769961,-61.41043866438599,53.00395015225575
6.506943542494916,-1.7646937807325553,-0.3265700265023734,11.631065439292518,-62.16342833291709,57.75757610030781
6.489296604687591,-2.3863280640617264,-0.21025937210944817,12.208641200295597,-58.67346543417215,58.00909357347057
6.465433324046974,-2.973062718403448,-0.0881729601064922,12.788732136030303,-46.99633569867355,48.51264764625828
6.43570269686294,-3.4430260753901836,0.03971436125381084,13.273858612492885,-23.453115943711534,24.24934214320255
6.401272436109038,-3.677557234827299,0.1724529473787397,13.51635203392491,10.001639672946705,-12.40344145683545
6.364496863760765,-3.577540838097832,0.3076164677179888,13.392317619356556,42.21603124574818,-46.97870514875301
6.328721455379787,-3.15538052564035,0.4415396439115543,12.922530567869025,61.74258586342563,-64.99271128738111
6.2971676501233835,-2.5379546670060935,0.5707649495902446,12.272603454995213,67.77731246598393,-66.23882241195528
6.271788103453322,-1.8601815423462542,0.6934909841401967,11.61021523087566,66.23591875076572,-58.95733260467869
6.25318628802986,-1.1978223548385971,0.8095931364489534,11.020641904828873,62.0597281473016,-49.60467722654152
6.241208064481474,-0.5772250733655812,0.9197995554972421,10.524595132563457,57.56453818277005,-40.99956390384378
6.235435813747818,-0.0015796915378806231,1.0250455068228768,10.114599493525018,53.51287036309154,-33.93795663036288
6.23542001683244,0.5335490120930347,1.126191501758127,9.77521992722139,50.02984496898991,-28.446608835365666
6.24075550695337,1.0338474617829339,1.223943701030341,9.490753838867732,47.02884844439985,-24.332627607613503
6.251093981571199,1.5041359462269324,1.3188512394190182,9.247427562791597,44.3735988724997,-21.375875646803827
6.266135341033468,1.9478719349519293,1.4113255150469342,9.033668806323558,41.93318372488926,-19.383432446482082
6.285614060382987,2.367203772200822,1.5016622031101696,8.839834481858738,39.59809848888663,-18.197236364514684
6.309286098104995,2.763184757089688,1.590060547928757,8.657862118213592,37.283116081745725,-17.68807982892732
6.336917945675892,3.1360159179071454,1.676639169110893,8.480981319924318,34.926181320405554,-17.747217187841702
6.368278104854963,3.485277731111201,1.7614489823101362,8.303509148045901,32.48635809792769,-18.279087734083177
6.403130882166075,3.8101413120904777,1.8444840737905952,8.12071827070507,29.941651092135206,-19.19601519341471
6.44123229528698,4.10955782301183,1.9256912564976458,7.928758118770922,27.28679123297107,-20.414880976921367
6.482327873517098,4.382425735341541,2.0049788376853552,7.724609309001709,24.53089048740232,-21.855497408208752
6.526152130870514,4.627734640215564,2.0822249307753724,7.506054334919622,21.694888676478424,-23.440323687113313
6.57242947727267,4.844683526980349,2.157285474124569,7.271651098048489,18.80879463008966,-25.095144372404718
6.620876312542474,5.032771473281246,2.2300019851050537,7.020699654324441,15.908805665332002,-26.75033627628381
6.671204027275286,5.191859529934566,2.3002089816482982,6.753196291561603,13.03444535344035,-28.342381284285967
6.723122622574632,5.322203983468969,2.367740944563914,6.469772478718744,10.225879599670096,-29.815338600419825
6.776344662409322,5.424462779465671,2.4324386693511015,6.171619092714545,7.521556925983424,-31.122063833525495
6.830589290203979,5.499678348725505,2.494154860278247,5.86039845437929,4.9562801716275,-32.22504288124801
6.8855860736912335,5.549241150441779,2.5527588448220397,5.53814802556681,2.559766795291305,-33.09678335900374
6.941078485195652,5.574838818394692,2.608140325077708,5.207180191976772,0.35570599102813194,-33.71976596347621
6.996826873379598,5.578395878304973,2.6602121269974757,4.869982532342011,-1.638718497722246,-34.085998557790255
7.052610832162648,5.56200869332775,2.708911952320896,4.529122546764108,-3.412897044820492,-34.19623810754316
7.108230919095925,5.527879722879545,2.754203177788537,4.1871601656886765,-4.962524910308958,-34.05895451529279
7.163509716324721,5.478254473776455,2.796074779445424,3.846570620535749,-6.289069687042709,-33.689111453822676
7.218292261062485,5.415363776906028,2.8345404856507814,3.509679505997522,-7.399048162243317,-33.10683689710486
7.2724458988315455,5.341373295283595,2.869637280710757,3.1786111370264734,-8.3031805967463,-32.336052470734586
7.325859631784382,5.258341489316132,2.9014233920810217,2.8552506123191277,-9.015484361253321,-31.403126275002496
