th1 (rad),w1 (rad/s),th2 (rad),w2 (rad/s),a1 (rad/s^2),a2 (rad/s^2)
2.1097774769863245,-0.9309648061608476,2.2236223228125973,0.7830234433949543,-8.805806839478823,0.8655185427684363
2.100467828924716,-1.0190228745556358,2.2314525572465467,0.7916786288226387,-8.87485577505616,0.9252254692124131
2.0902776001791596,-1.1077714323061973,2.239369343534773,0.8009308835147628,-8.936759340456359,0.9652078529022946
2.079199885856098,-1.197139025710761,2.2473786523699206,0.8105829620437858,-8.989274360986407,0.9813291233077324
2.0672284955989904,-1.287031769320625,2.2554844819903583,0.820396253276863,-9.030167196339061,0.9693853371774581
2.054358177905784,-1.3773334412840157,2.263688444523127,0.8300901066486376,-9.057295494740027,0.9252237569653726
2.040584843492944,-1.467906396231416,2.2719893455896134,0.8393423442182913,-9.068701985849106,0.8448811785964278
2.0259057795306297,-1.558593416089907,2.2803827690317964,0.8477911560042556,-9.06271574463457,0.7247358266367555
2.0103198453697306,-1.6492205735362528,2.288860680591839,0.8550385142706232,-9.038054286645025,0.5616635880189922
1.9938276396343682,-1.739601116402703,2.2974110657345452,0.8606551501508131,-8.993918095619788,0.353186718190956
1.9764316284703412,-1.8295402973589008,2.306017617236053,0.8641870173327226,-8.93006814093818,0.09760150888198785
1.958136225496752,-1.9188409787682825,2.31465948740938,0.8651630324215425,-8.846876996478358,-0.20592868694390098
1.9389478157090692,-2.007309748733066,2.3233111177335957,0.8631037455521035,-8.745345577250381,-0.5573268375589202
1.9188747182217385,-2.0947632045055697,2.331942155189117,0.8575304771765142,-8.627080287596572,-0.9556099564953802
1.8979270861766828,-2.1810340073815353,2.340517459960882,0.8479743776115604,-8.494229252890602,-1.398953642359997
1.8761167461028674,-2.265976299910441,2.3489972037369977,0.8339848411879603,-8.349380731491628,-1.8848095878311788
1.853456983103763,-2.349470107225357,2.3573370521488775,0.8151367453096485,-8.195431038328248,-2.4100660691783875
1.8299622820315096,-2.4314244176086395,2.365488419601974,0.7910360846178647,-8.035432604040562,-2.97123654006628
1.8056480378554232,-2.511778743649045,2.3733987804481527,0.7613237192172019,-7.872434564905138,-3.5646586654658843
1.7805302504189326,-2.5905030892980965,2.381012017640325,0.7256771325625431,-7.709328267889872,-4.186685847636524
1.7546252195259517,-2.667596371976995,2.3882687889659504,0.6838102740861778,-7.54870839412177,-4.83385539647416
1.7279492558061817,-2.743083455918213,2.395106891706812,0.6354717201214362,-7.392757486256405,-5.503021402877148
1.7005184212469997,-2.817011030780777,2.4014616089080265,0.5804415060926646,-7.243158132158547,-6.19144523329295
1.672348310939192,-2.8894426121023624,2.407266023968953,0.5185270537597352,-7.101033553286804,-6.896841479740675
1.6434538848181683,-2.9604529476352304,2.41245129450655,0.4495586389623284,-6.96691439567163,-7.617381434683326
1.613849355341816,-3.0301220915919465,2.4169468808961736,0.37338482461549516,-6.840727444930479,-8.351659257141037
1.5835481344258966,-3.098529366041251,2.4206807291423287,0.2898682320440848,-6.721800885398901,-9.09862780530357
1.5525628407654841,-3.1657473748952403,2.4235794114627693,0.19888195399104908,-6.608880517548704,-9.857511737526508
1.5209053670165318,-3.231836180070727,2.42556823100268,0.10030683661578399,-6.500151844540971,-10.627705197518246
1.4885870052158245,-3.296837698516137,2.4265712993688378,-0.00597021535939847,-6.39326390200311,-11.408660536064943
1.4556186282306631,-3.360770337536168,2.4265115972152436,-0.1200568207200479,-6.285351910892278,-12.199773403522473
1.4220109248553015,-3.423623856645091,2.4253110290080433,-0.24205455475527266,-6.173057102424344,-13.000268436276057
1.3877746862888505,-3.4853544276693342,2.4228904834604905,-0.37205723911803323,-6.05254327383044,-13.80908883764706
1.3529211420121572,-3.5458798604076387,2.4191699110693103,-0.5101481274945039,-5.91951071414983,-14.624792521537424
1.3174623434080808,-3.605074967549137,2.4140684297943653,-0.6563960527098781,-5.769209060555236,-15.445457181910186
1.2814115937325894,-3.662767058154689,2.4075044692672667,-0.8108506245289799,-5.5964514028116135,-16.268596660707377
1.2447839231510425,-3.718731572182805,2.399395963021977,-0.9735365911360537,-5.395632551744276,-17.091091265507437
1.2075966074292144,-3.772687897700248,2.3896605971106166,-1.1444475037911281,-5.160754831292667,-17.90913516913603
1.169869728452212,-3.8242954460131746,2.3782161220727054,-1.3235388554824885,-4.885465038136122,-18.718204625537346
1.1316267739920802,-3.873150096394536,2.3649807335178803,-1.510720901737862,-4.563106319952688,-19.513051368469025
1.092895273028135,-3.9187811595940625,2.349873524500502,-1.7058514154225524,-4.186788620525816,-20.287726123118695
1.0537074614321944,-3.9606490457993204,2.3328150103462764,-1.9087286766537392,-3.7494809816053856,-21.035637550565006
1.0141009709742013,-3.9981438556153743,2.313727723579739,-2.1190850521593894,-3.2441283232960334,-21.74965205285576
0.9741195324180475,-4.030585138848335,2.292536873058145,-2.336581572687947,-2.663794290147989,-22.422239585800277
0.9338136810295642,-4.0572230817498145,2.2691710573312656,-2.56080396854595,-2.0018302989906807,-23.045669860373945
0.893241450212066,-4.077241384739721,2.243563017645806,-2.7912606671496896,-1.2520690242958206,-23.61226198534301
0.8524690363646689,-4.089762074982679,2.2156504109743094,-3.02738328700312,-0.40903820500460564,-24.114688670790017
0.811571415614842,-4.0938524570327255,2.185376578104278,-3.26853017371102,0.5318121054829957,-24.546333581558503
0.7706328910445148,-4.088534335977895,2.1526912763671677,-3.513993509526605,1.5738787986689267,-24.901697373433645
0.7297475476847358,-4.072795547991206,2.1175513412719016,-3.7630104832609415,2.71918465085082,-25.17684451487991
0.6890195922048238,-4.045603701482698,2.0799212364392923,-4.014778928409741,3.968183232955091,-25.369879434655804
0.6485635551899968,-4.0059218691531475,2.039773447155195,-4.268477722756299,5.319608772964531,-25.481437173576488
0.6085043364984652,-3.9527257814235024,1.997088669927632,-4.523292094492064,6.770391824228995,-25.51517097107541
0.5689770786842302,-3.8850218631812123,1.9518557489827113,-4.7784438042028174,8.31566218747068,-25.47821754893076
0.530126860052418,-3.8018652413065057,1.904071310940683,-5.033225979692125,9.94885937105337,-25.381620722906273
0.492108207639353,-3.702376647595972,1.8537390511437617,-5.287042186921187,11.66196747555407,-25.240695729127047
0.45508444116339325,-3.5857569728404313,1.8008686292745497,-5.539449144212458,13.4458853019978,-25.0753203853313
0.41922687143498893,-3.451298119820453,1.7454741378324252,-5.790202348065772,15.290933254669284,-24.91014450961601
0.3847138902367844,-3.29838878727376,1.6875721143517675,-6.039303793161932,17.187485650725243,-24.774714623754754
0.3517300023640468,-3.1265139307665075,1.6271790764201481,-6.28705093939948,19.1266992861723,-24.703514172439466
0.3204648630563817,-2.9352469379047843,1.5643085670261534,-6.534086081123874,21.10128423369573,-24.735915179119043
0.2911123936773339,-2.724234095567827,1.4989677062149147,-6.781445232915065,23.10622586286653,-24.916016140277264
0.2638700527216556,-2.493171836939162,1.431153253885764,-7.0306053943178375,25.139307568026215,-25.29228623796995
0.23893833435226397,-2.2417787612588995,1.3608471999425857,-7.283528256697537,27.201180885261113,-25.91681698599441
0.21652054673967497,-1.9697669524062884,1.2880119173756104,-7.54269642655748,29.294543530863713,-26.843742769052007
0.1968228772156121,-1.6768215170976513,1.2125849531100357,-7.811133854248,31.421641632950195,-28.12592741622908
0.18005466204463558,-1.3626051007681492,1.1344736145675556,-8.092393128410292,33.57867591687528,-29.80813736101136
0.16642861103695408,-1.0268183415993963,1.0535496832834528,-8.390474502020405,35.74453870932285,-31.913313744277048
0.1561604276209601,-0.6693729545061677,0.9696449382632487,-8.709607639463176,37.859322442632944,-34.41574757870821
0.14946669807589844,-0.29077973007983826,0.8825488618686169,-9.053765115250258,39.784986788512384,-37.19055036330779
0.14655890077510006,0.10707013780528557,0.7920112107161144,-9.425670618883336,41.23717551962721,-39.92361740027718
0.1476296021531529,0.5194418930015576,0.697754504527281,-9.824906792886107,41.67815755611855,-41.96647668142877
0.15282402108316848,0.9362234685627431,0.5995054365984199,-10.244571559700395,40.182845108028,-42.14845745706534
0.16218625576879592,1.3380519196430232,0.497059721001416,-10.666056134271049,35.3724253592766,-38.66902589059337
0.17556677496522616,1.6917761732357892,0.39039915965870553,-11.052746393176982,25.691971642982704,-29.440986804259666
0.19248453669758406,1.9486958896656161,0.2798716957269357,-11.347156261219578,10.435451037815367,-13.434131237024895
0.21197149559424022,2.05305040004377,0.16640013311473995,-11.481497573589827,-8.681235410862168,7.241033930180758
0.23250199959467793,1.9662380459351483,0.05158515737884167,-11.40908723428802,-27.242518314324222,26.988218400252467
0.2521643800540294,1.693812862791906,-0.06250571496403852,-11.139205050285495,-40.81099647864342,40.30723816876229
0.26910250868194846,1.2857028980054719,-0.17389776546689348,-10.736132668597872,-47.97621033677263,45.74924766140184
0.28195953766200316,0.8059407946377455,-0.2812590921528722,-10.278640191983854,-50.15684166241999,45.47660600127335
0.2900189456083806,0.30437237801354555,-0.3840454940727107,-9.82387413197112,-49.479799250575745,42.38776646987108
0.29306266938851605,-0.1904256144922119,-0.48228423539242193,-9.399996467272409,-47.50173833155345,38.49537060690135
0.2911584132435939,-0.6654429978077464,-0.576284200065146,-9.015042761203395,-45.06754497991186,34.82660956218063
0.28450398326551646,-1.116118447606865,-0.66643462767718,-8.666776665581589,-42.554839429369245,31.793134550736283
0.2733427987894478,-1.5416668419005575,-0.7531023943329959,-8.348845320074226,-40.098557987005094,29.501049254449864
0.2579261303704422,-1.9426524217706085,-0.8365908475337381,-8.053834827529727,-37.723746529896296,27.924474480230295
0.23849960615273613,-2.3198898870695714,-0.9171291958090354,-7.774590082727424,-35.41262319786528,26.98795245631921
0.21530070728204043,-2.674016119048224,-0.9948750966363097,-7.5047105581642315,-33.13598447853324,26.601803111213137
0.18856054609155817,-3.0053759638335564,-1.069922202217952,-7.2386925270521,-30.86713167269289,26.675818323630654
0.1585067864532226,-3.3140472805604855,-1.142309127488473,-6.971934343815794,-28.587544962645634,27.123757517067887
0.12536631364761774,-3.599922730186942,-1.212028470926631,-6.700696768645114,-26.288673294248518,27.86434673304483
0.08936708634574833,-3.862809463129427,-1.279035438613082,-6.422053301314666,-23.971847782654322,28.82126443378761
0.050738991714454056,-4.10252794095597,-1.3432559716262287,-6.13384065697679,-21.64723933339996,29.92311682064669
0.009713712304894352,-4.31900033428997,-1.4045943781959966,-5.834609488770322,-19.332301007628917,31.103731127677026
-0.03347629103800535,-4.512323344366259,-1.4629404730837,-5.523572177493552,-17.04993446208582,32.30279011408633
-0.07859952448166793,-4.682822688987118,-1.5181761948586354,-5.200544276352689,-14.826541238562289,33.4666980845349
-0.1254277513715391,-4.831088101372741,-1.5701816376221622,-4.86587729550734,-12.690089818444418,34.54952077148459
-0.17373863238526652,-4.957988999557185,-1.6188404105772356,-4.520382087792494,-10.6683137650246,35.51383872599089
-0.22331852238083838,-5.064672137207431,-1.6640442314551604,-4.165243700532585,-8.78713998921588,36.331377090076046
-0.2739652437529127,-5.15254353709959,-1.7056966684604864,-3.8019299296318247,-7.069424135901877,36.98331257735791
-0.3254906791239086,-5.223237778458609,-1.7437159677568046,-3.432096803858246,-5.534042290915349,37.46020326223229
-0.3777230569084947,-5.278578201367762,-1.7780369357953871,-3.057494771235923,-4.195357025308291,37.761531930143946
-0.43050883892217234,-5.320531771620845,-1.8086118835077463,-2.6798794519344833,-3.063044397714695,37.89489378746349
-0.4837141566383808,-5.351162215597992,-1.8354106780270911,-2.300930514059848,-2.1422399151191946,37.87488974298456
-0.5372257787943607,-5.372584614749185,-1.8584199831676895,-1.9221816166300025,-1.433937762072962,37.72180383693316
-0.5909516249418526,-5.386923992369915,-1.8776417993339896,-1.544963578260671,-0.9355597260073079,37.460145489732874
-0.6448208648655518,-5.396279589629987,-1.8930914351165962,-1.170362123363342,-0.6415974663956552,37.11712291813834
-0.6987836607618516,-5.402695564293944,-1.9047950563502296,-0.7991908941819587,-0.5442216112413165,36.72108274758397
-0.7528106164047911,-5.408137780406356,-1.9127869652920493,-0.43198006670611894,-0.6337392268017336,36.299901669263534
-0.8068919942088546,-5.414475172674374,-1.9171067659591106,-0.06898105001348359,-0.8987611322517461,35.87924661943973
-0.8610367459355983,-5.423462783996891,-1.9177965764592455,0.2898114161809138,-1.3259040085548333,35.48052547352102
-0.9152713737755672,-5.436721824082439,-1.9148984622974363,0.644616670916124,-1.8987895172264062,35.11822284584321
-0.9696385920163916,-5.4557097192547035,-1.908452295588275,0.9957988993745561,-2.5960047169814495,34.79614714545228
-1.0241956892089386,-5.481669766424518,-1.8984943065945294,1.343760370829079,-3.3875540987627746,34.501907378555465
-1.0790123868731838,-5.515545307412146,-1.8850567028862386,1.6887794446146338,-4.2291912705210315,34.19873214483633
-1.1341678399473052,-5.5578372201173565,-1.8681689084400923,2.030766766062997,-5.053973693697872,33.813689147127334
-1.1897462121484788,-5.608376957054335,-1.8478612407794623,2.36890365753427,-5.760726030589758,33.221868882422605
-1.2458299817190222,-5.665984217360233,-1.8241722042041197,2.7011223463584964,-6.200475181324807,32.22807276100105
-1.3024898238926246,-5.727988969173481,-1.7971609807405349,3.023403073968507,-6.165493760406674,30.55261979381603
-1.3597697135843594,-5.789643906777548,-1.7669269500008498,3.3289292719066674,-5.392646050710927,27.837842340578504
-1.4176661526521348,-5.8435703672846575,-1.733637657281783,3.6073076953124525,-3.6023314680971983,23.705287453751914
-1.4761018563249815,-5.87959368196563,-1.6975645803286585,3.8443605698499717,-0.5972658899978918,17.89749495865903
-1.5348977931446377,-5.8855663408656085,-1.6591209746301587,4.023335519436562,3.5812092467276626,10.500204461630567
-1.5937534565532938,-5.849754248398332,-1.618887619435793,4.128337564052868,8.515838725716494,2.1355116402541987
-1.6522509990372771,-5.764595861141167,-1.5776042437952644,4.149692680455409,13.443331894425588,-6.0843731971706045
-1.7098969576486889,-5.630162542196912,-1.5361073169907102,4.088848948483704,17.529566758778316,-12.952628731546143
-1.766198583070658,-5.454866874609128,-1.495218827505873,3.959322661168242,20.232265270166067,-17.686786837206874
-1.8207472518167491,-5.252544221907468,-1.4556256008941906,3.7824547927961736,21.470423052978653,-20.171111097519614
-1.8732726940358237,-5.037839991377681,-1.4178010529662288,3.5807436818209775,21.515085382416775,-20.800405320149373
-1.9236510939496005,-4.822689137553514,-1.381993616148019,3.3727396286194837,20.764499194506676,-20.15731453205796
-1.9718779853251356,-4.615044145608447,-1.3482662198618243,3.171166483298904,19.57802347616004,-18.772370219999196
-2.01802842678122,-4.419263910846847,-1.3165545550288353,2.983442781098912,18.213370952993337,-17.03157874935716
-2.0622210658896885,-4.237130201316913,-1.2867201272178461,2.8131269936053402,16.829827356544968,-15.17907330496203
-2.1045923679028578,-4.0688319277514635,-1.2585888572817927,2.66133626055572,15.514368851853567,-13.353451435630685
-2.1452806871803722,-3.9136882392329277,-1.2319754946762356,2.527801746199413,14.307878654848968,-11.624971746456252
-2.1844175695727017,-3.7706094526844383,-1.2066974772142414,2.4115520287348504,13.22446351177428,-10.023290101740965
-2.2221236640995463,-3.6383648175666954,-1.182581956926893,2.3113191277174407,12.263859672236604,-8.555488197814725
-2.258507312275213,-3.5157262208443294,-1.1594687656497185,2.2257642457392937,11.418799854387567,-7.216937241668594
-2.2936645744836563,-3.4015382223004536,-1.1372111231923254,2.1535948733226076,10.679154284519411,-5.9975264356880755
-2.327679956706661,-3.2947466794552596,-1.1156751744590994,2.0936196089657266,10.03414395600144,-4.885089728448941
-2.3606274235012132,-3.194405239895245,-1.0947389783694421,2.0447687116812374,9.473450314715235,-3.867206204857552
-2.3925714759001657,-3.099670736748093,-1.0742912912526297,2.0060966496326618,8.98771369053808,-2.9320831028109957
-2.423568183267647,-3.009793599842712,-1.054230324756303,1.9767758186045519,8.568704288279832,-2.068934834096029
-2.453666119266074,-2.924106556959914,-1.0344625665702574,1.9560864702635916,8.209325430784748,-1.268093952663593
-2.482907184835673,-2.842013302652066,-1.0149017018676214,1.9434055307369558,7.903537023791779,-0.5209865874770976
-2.5113273178621935,-2.7629779324141484,-0.9954676465602519,1.9381956648621848,7.6462465099422605,0.1799544045638344
-2.538957097186335,-2.6865154673147256,-0.97608568991163,1.9399952089078232,7.433191777286476,0.8413988699735543
-2.565822251859482,-2.612183549541861,-0.9566857378225518,1.9484091976075588,7.260827861836256,1.4692304791059754
-2.5919440873549005,-2.5395752709234984,-0.9372016458464763,1.9631015023986185,7.126222384881159,2.0686490260941275
-2.6173398400641354,-2.468313047074687,-0.91757063082249,1.9837879926595599,7.026960960080813,2.6442590069317804
-2.642022970534882,-2.398043437473879,-0.8977327508958944,2.0102305827288776,6.96106185847271,3.2001424784234414
-2.666003404909621,-2.328432818889152,-0.8776304450686057,2.042232007513112,6.926898222653108,3.7399155789247107
-2.6892877330985123,-2.259163836662621,-0.8572081249934745,2.079631163302359,6.923125620200078,4.266768612273986
-2.7118793714651384,-2.1899325804606202,-0.8364118133604509,2.122298849425099,6.948612467807267,4.783489637761435
-2.7337786972697447,-2.1204464557825475,-0.8151888248661999,2.1701337458027132,7.002370703565988,5.292471287011609
-2.75498316182757,-2.050422748746888,-0.7934874874081728,2.2230584586728295,7.0834839647518315,5.79570016910456
-2.775487389315039,-1.9795879090993695,-0.7712569028214444,2.281015460363875,7.191030413621399,6.2947278077626185
-2.7952832684060325,-1.9076776049631556,-0.7484467482178057,2.343962738441501,7.323997244950498,6.790621639827842
-2.8143600444556642,-1.8344376325136507,-0.7250071208333907,2.4118689548397794,7.481183832628576,7.283894253638869
-2.8327044207808005,-1.759625794187365,-0.7008884312849929,2.4847078973761683,7.6610904816637,7.77440883586846
-2.8503006787226743,-1.683014889370728,-0.6760413523112312,2.5624519857348527,7.861789931692674,8.261258831980983
-2.8671308276163816,-1.6043969900538013,-0.6504168324538827,2.6450645740546626,8.080779233988874,8.742620258096887
-2.8831747975169195,-1.5235891977139127,-0.623966186713336,2.7324907766356312,8.314810570927232,9.21557613657936
-2.8984106894940584,-1.4404410920046404,-0.5966412789469797,2.8246465380014247,8.5597012369683,9.67591443650131
-2.9128151004141047,-1.3548440796349575,-0.5683948135669654,2.921405682366438,8.810125643978987,10.117904023784503
-2.9263635412104545,-1.2667428231951676,-0.539180756743301,3.0225847226042832,9.05939618675948,10.53405785605343
-2.939030969442406,-1.1761488613275728,-0.5089549095172582,3.1279253011648174,9.299245447071316,10.914899387103164
-2.9507924580556817,-1.0831564068568595,-0.47767565650561,3.237074295035849,9.519629784990297,11.248757164552604
-2.9616240221242505,-0.9879601090069565,-0.44530491355525154,3.349561866681375,9.708583890452301,11.521623912240143
-2.97150362321432,-0.8908742701024335,-0.41180929488843776,3.4647781058037768,9.852166901145287,11.71712941164995
-2.980412365915344,-0.7923526010909806,-0.3771615138304,3.5819493999202763,9.934551999476252,11.816689696472539
-2.988335891926254,-0.6930070810962181,-0.3413420198311972,3.700116296885002,9.93832058706027,11.799905512760716
