th1 (rad),w1 (rad/s),th2 (rad),w2 (rad/s),a1 (rad/s^2),a2 (rad/s^2)
3.412063021961297,-2.0095022070979507,4.22339080129384,-1.3651694670482746,1.7352510007452582,4.528257485129999
3.3919679998903174,-1.9921496970904982,4.209739106623358,-1.3198868921969746,1.458358601660843,4.6949039655228955
3.3720465029194124,-1.9775661110738898,4.196540237701388,-1.2729378525417456,1.1880023833875344,4.8468979569700865
3.3522708418086737,-1.9656860872400144,4.183810859175971,-1.2244688729720448,0.9242533223728243,4.984518396598701
3.332613980936274,-1.9564435540162861,4.17156617044625,-1.1746236890060577,0.6671823551770921,5.107986117948303
3.313049545396111,-1.9497717304645152,4.159819933556189,-1.1235438278265748,0.4168580184929561,5.217466991473594
3.2935518280914655,-1.9456031502795856,4.148584495277924,-1.071369157911839,0.17334397670281132,5.313075596115966
3.2740957965886697,-1.9438697105125575,4.137870803698806,-1.0182384019506794,-0.06330363542035206,5.39487939235122
3.254657099483544,-1.944502746866761,4.1276884196792984,-0.9642896080271672,-0.2930391109412891,5.462903357672244
3.2352120720148765,-1.947433137976174,4.118045523599027,-0.9096605744504448,-0.5158303472177044,5.517135031358785
3.215737740635115,-1.952591441448351,4.108948917854522,-0.8544892241368569,-0.7316623171088357,5.55752989730573
3.1962118262206314,-1.9599080646194393,4.1004040256131535,-0.7989139251637996,-0.940540829318066,5.584017012564901
3.176612745574437,-1.96931347291262,4.0924148863615155,-0.7430737550381505,-1.1424965495372363,5.596504766317913
3.1569196108453106,-1.9807384384079925,4.084984148811134,-0.6871087073749714,-1.3375892317670568,5.594886630711592
3.137112226461231,-1.994114330725663,4.078113061737384,-0.6311598410678555,-1.5259120884503057,5.579046743034361
3.1171710831539743,-2.0093734516101662,4.071801463326706,-0.5753693736375118,-1.7075962100972768,5.5488651398915385
3.0970773486378724,-2.026449413711139,4.06604776959033,-0.5198807222385965,-1.8828149311383526,5.504222450149074
3.076812854500761,-2.0452775630225224,4.0608489623679445,-0.4648384977371057,-2.0517880299436557,5.445003846110973
3.056360078870536,-2.0657954433219587,4.056200577390573,-0.410388459275996,-2.2147856482345176,5.371102053025767
3.0357021244373166,-2.0879432998043037,4.0520966927978135,-0.3566774387457383,-2.372131819088875,5.282419226478273
3.0148226914392735,-2.1116646179951926,4.048529918410356,-0.3038532464809556,-2.5242075036132987,5.178867525832391
2.9937060452593216,-2.1369066930313254,4.045491385945547,-0.25206457122263165,-2.6714530538383876,5.06036823930432
2.9723369783290083,-2.1636212235697094,4.04297074023332,-0.20146088882958846,-2.8143700427054776,4.926849351434617
2.9507007660933113,-2.191764923996764,4.040956131345024,-0.15219239531524228,-2.953522429876826,4.778241485025518
2.9287831168533436,-2.221300148295532,4.039434207391872,-0.1044099804649871,-3.0895370628258623,4.614472194830566
2.9065701153703882,-2.2521955189237906,4.0383901075872215,-0.05826525851668144,-3.223103544249444,4.435458636905214
2.8840481601811505,-2.284426554366285,4.037807455002055,-0.013910672147629304,-3.354973527130239,4.241098682922039
2.861203894637488,-2.3179762896375875,4.037668348280579,0.028500314681591088,-3.485959525604356,4.031260590447326
2.838024131741112,-2.352835884893631,4.037953351427395,0.06881292058606435,-3.6169333511555264,3.8057713760968
2.814495772892176,-2.3890052184051864,4.038641480633255,0.10687063434703234,-3.748824297854155,3.56440406719872
2.790605720708124,-2.426493461383728,4.039710186976725,0.14251467501901954,-3.8826172060663238,3.306864028458132
2.7663407860942866,-2.465319633444391,4.041135333726915,0.17558331530360086,-4.019350530384727,3.0327745734157814
2.7416875897598425,-2.5055131387482383,4.042891166879951,0.20591106103775866,-4.160114524008099,2.7416620774562266
2.7166324583723602,-2.547114283988319,4.0449502774903285,0.23332768181232094,-4.306049628295827,2.4329408118880633
2.691161315532477,-2.5901747802712776,4.047283554308452,0.25765708993120157,-4.458345122866934,2.105897720176318
2.6652595677297644,-2.634758231499947,4.049860125207764,0.27871606713296476,-4.618238048611124,1.7596773614520307
2.6389119854147647,-2.6809406119860584,4.052647285879093,0.2963128407474851,-4.787012363490741,1.3932672572427494
2.612102579294904,-2.7288107356209657,4.055610414286568,0.31024551331991257,-4.965998228988445,1.0054838997056126
2.5848144719386945,-2.7784707179108503,4.058712869419767,0.3203003523169687,-5.156571253120847,0.5949597185944722
2.557029764759586,-2.8300364304420587,4.0619158729429365,0.3262499495029134,-5.3601514333117555,0.16013136510004686
2.5287294004551653,-2.883637944775176,4.065178372437965,0.3278512631539139,-5.578201447893211,-0.300770240926848
2.4998930210074133,-2.939419959254108,4.068456885069504,0.32484356074464543,-5.812223837007779,-0.7897275324686659
2.470498821414872,-2.997542197624186,4.0717053206769505,0.3169462854199588,-6.063756490452912,-1.308940857818928
2.4405233994386304,-3.0581797625287153,4.07487478353115,0.3038568768417695,-6.3343657198677965,-1.8608290530607836
2.409941601813343,-3.121523419727393,4.077913352299567,0.2852485863111617,-6.625636034514938,-2.4480248428874303
2.378726367616069,-3.1877797800725425,4.080765838162678,0.26076833788228737,-6.939155563916882,-3.0733635878388728
2.3468485698153434,-3.2571713357117114,4.0833735215415015,0.23003470200389864,-7.276495879181019,-3.739863547161228
2.314276856458226,-3.3299362945035216,4.085673868561541,0.19263606653228635,-7.639184763970352,-4.450695435115297
2.280977493513191,-3.406328142143225,4.087600229226863,0.14812911218113337,-8.028670287080432,-5.2091386285774695
2.2469142120917587,-3.4866148450140293,4.089081520348675,0.09603772589535867,-8.446274350335848,-6.018520960536234
2.2120480636416184,-3.571077588517388,4.0900418976076285,0.035852516289996327,-8.893133757087904,-6.882138648964038
2.1763372877564446,-3.660008926088267,4.090400422770529,-0.032968870199644056,-9.370126810139544,-7.8031526263428255
2.139737198495562,-3.7537101941896625,4.090070734068532,-0.1110003964630723,-9.877783561495539,-8.784457441875247
2.1022000965536654,-3.852488029804618,4.088960730103901,-0.1988449708818248,-10.416178175836553,-9.82851912857607
2.063675216255619,-3.9566498115629836,4.0869722803950825,-0.2971301621675855,-10.98480252872449,-10.937179118744314
2.0241087181399893,-4.066497836850228,4.084000978773407,-0.4065019533550286,-11.582421246831682,-12.111422644523335
1.983443739771487,-4.182322049318545,4.079935959239856,-0.527616179800262,-12.206910022284466,-13.351112287817259
1.9416205192783016,-4.30439114954139,4.0746597974418535,-0.6611273026784346,-12.855081292427311,-14.654690654467748
1.8985766077828876,-4.432941962465663,4.068048524415069,-0.8076742092231121,-13.522504319427862,-16.018860701352544
1.854247188158231,-4.568167005659942,4.059971782322838,-0.9678628162366375,-14.203330290027331,-17.43825808472139
1.8085655181016316,-4.710200308560215,4.050293154160471,-1.1422453970838513,-14.890137097103624,-18.9051368568594
1.7614635150160294,-4.859101679531252,4.038870700189633,-1.3312967656524453,-15.57381256882422,-20.409097432176377
1.7128724982207169,-5.014839805219494,4.025557732533108,-1.535387739974209,-16.24349843293617,-21.936893070871125
1.662724100168522,-5.177274789548855,4.010203855133366,-1.7547566706829203,-16.886619337056093,-23.47235681166923
1.6109513522730334,-5.346140982919416,3.9926562884265366,-1.9894802387996127,-17.489020686477076,-24.996493016605775
1.5574899424438393,-5.521031189784187,3.9727614860385403,-2.2394451689656703,-18.035234773595874,-26.487774433213254
1.5022796305459973,-5.701383537520146,3.9503670343488837,-2.504322913297803,-18.508885776755452,-27.922675070310017
1.445265795170796,-5.8864723952877,3.9253238052159056,-2.783549664000903,-18.8932304549283,-29.276450129400192
1.386401071217919,-6.075404699836983,3.8974883085758965,-3.076314165294905,-19.17181353735225,-30.524147094136186
1.325647024219549,-6.267122835210506,3.866725166922947,-3.381555636236267,-19.32919696448562,-31.64179923526776
1.262975795867444,-6.460414804855362,3.8329096105605847,-3.6979736285889446,-19.351703567133168,-32.60771880660121
1.1983716478188904,-6.653931840526694,3.7959298742746954,-4.024050816654957,-19.228102495385723,-33.40377835530726
1.1318323294136234,-6.846212865480551,3.755689366108146,-4.3580886002080295,-18.950159545164777,-34.0165515679448
1.063370200758818,-7.035714460932199,3.7121084801060658,-4.698254115887478,-18.512982918053584,-34.438185301647806
0.993013056149496,-7.220844290112734,3.665125938947191,-5.042635968903956,-17.915113935500834,-34.66689412696501
0.9208046132483686,-7.399995429467743,3.614699579258151,-5.389304910173606,-17.15834004506091,-34.707005745548265
0.8468046589536912,-7.5715788299183515,3.560806530156415,-5.7363749676290885,-16.247238999287188,-34.56853374554451
0.7710888706545076,-7.7340512199112235,3.5034427804801243,-6.082060305084534,-15.188492232467105,-34.26630430619898
0.6937483584553954,-7.885936142235894,3.442622177429279,-6.424723348146523,-13.99002680827232,-33.81870637995008
0.6148889970330365,-8.025836410318618,3.3783749439478137,-6.762910411946024,-12.660055740148762,-33.24616357757868
0.5346306329298502,-8.152436967720107,3.3107458398283534,-7.095372047721811,-11.206085953771789,-32.569437542737546
0.4531062632526492,-8.264497827257824,3.239792119351135,-7.4210664231491865,-9.633954541408697,-31.807868640112424
0.37046128498007097,-8.360837372671911,3.1655814551196433,-7.739145109550311,-7.946942081975756,-30.977645608488306
0.2868529112533519,-8.440306793491668,3.08819000402414,-8.048921565635194,-6.14500213309918,-30.090178821522674
0.20244984331843519,-8.50175681482266,3.007700788367788,-8.34982335385042,-4.224143415788435,-29.15063961188658
0.11743227517020859,-8.543998248980543,2.924202554829284,-8.641329749969286,-2.17600912094029,-28.156727251563463
0.031992292680403156,-8.565758340189946,2.8377892573295913,-8.92289702248492,0.012282407482945193,-27.097740042986096
-0.05366529072149631,-8.565635516115117,2.748560287104742,-9.19387442291478,2.357940625907224,-25.95405917508918
-0.1393216458826475,-8.542056109856045,2.656621542875594,-9.453415014665671,4.881816909916282,-24.69720148834177
-0.22474220698120795,-8.493237940756883,2.5620873927289374,-9.70038702954909,7.607061659475971,-23.290652857273965
-0.30967458638877676,-8.417167324162124,2.4650835224334466,-9.933293558121829,10.55693687556314,-21.69174285140662
-0.393846259630398,-8.311597955406492,2.3657505868522284,-10.150210986635894,13.751615823206452,-19.85483896881852
-0.4769622391844629,-8.174081797174429,2.2642484769858693,-10.348759376324079,17.203888089269142,-17.73608925559361
-0.5587030571562072,-8.002042916281738,2.1607608832226286,-10.526120268880016,20.91387346493025,-15.299782343454075
-0.6387234863190245,-7.792904181632435,2.0554996805338286,-10.679118092314557,24.863151008869412,-12.52608617450869
-0.7166525281353489,-7.544272671543741,1.948708499610683,-10.804378954059644,29.00911546553891,-9.41946417199942
-0.7920952548507862,-7.254181516888352,1.8406647100700866,-10.898573595779638,33.28080494904072,-6.01650972686348
-0.8646370700196697,-6.921373467397944,1.7316789741122902,-10.958738693048273,37.57774513065691,-2.391441926461231
-0.9338508046936491,-6.545596016091375,1.6220915871818076,-10.982653112312885,41.7733098685104,1.3426866733545764
-0.9993067648545628,-6.127862917406271,1.5122650560586788,-10.969226245579339,45.72351043351294,5.038642698010887
-1.0605853940286256,-5.670627813071142,1.4025727936028853,-10.91883981859923,49.28095421292024,8.526017647419817
-1.1172916721593371,-5.177818270941939,1.293384395416893,-10.83357964212503,52.3121974707449,11.627450729138515
-1.1690698548687566,-4.654696296234491,1.1850485989956427,-10.717305134833646,54.7153785758181,14.177253011741687
-1.2156168178311015,-4.10754251047631,1.0778755476473063,-10.57553260471623,56.43447430204298,16.038569205119295
-1.2566922429358647,-3.54319776745588,0.972120221600144,-10.415146912665037,57.46714920776788,17.11532505695522
-1.2921242206104235,-2.968526275378201,0.8679687524734936,-10.243993662095484,57.86483654215839,17.35652179091
-1.3218094833642056,-2.389877909956617,0.7655288158525387,-10.070428444186383,57.725774501199794,16.75244026345223
-1.3457082624637717,-1.812620164944619,0.6648245314106749,-9.902904041551862,57.18342735452942,15.324203626897956
-1.3638344641132178,-1.2407858913993248,0.5657954909951562,-9.749662005282882,56.393494747994346,13.10925349466806
-1.3762423230272112,-0.6768509439193814,0.4682988709423274,-9.618569470336201,55.52247820246545,10.145392715342544
-1.383010832466405,-0.12162616189472686,0.3721131762389654,-9.517115543182776,54.73985982852758,6.455357262022234
-1.3842270940853523,0.42577243639054896,0.27694202080713765,-9.452561970562554,54.21481777126512,2.0328636443684385
-1.3799693697214468,0.9679206141032002,0.18241640110151208,-9.43223333411887,54.11737680074456,-3.1697718523452822
-1.3702901635804148,1.509094382110646,0.08809406776032339,-9.463931052642323,54.62296439518801,-9.252555841552274
-1.3551992197593083,2.055324026062526,-0.006545242766099843,-9.556456611057845,55.9180134648745,-16.37625917380479
-1.3346459794986831,2.614504160711271,-0.1021098088766783,-9.720219202795892,58.20112084535957,-24.76317129936671
-1.3085009378915704,3.196515369164867,-0.19931200090463722,-9.96785091578956,61.66582228688946,-34.67315816569506
-1.2765357841999216,3.8131735920337615,-0.2989905100625328,-10.31458249744651,66.4285351838574,-46.30661603587081
-1.238404048279584,4.477458943872335,-0.4021363350369979,-10.77764865780522,72.3083620218349,-59.50648391589977
-1.1936294588408607,5.200542564090684,-0.5099128216150501,-11.372713496964217,78.23968085133411,-72.9545391302936
-1.1416240331999539,5.982939372604025,-0.6236399565846923,-12.102258888267153,80.92784845851807,-82.31196601737759
-1.0817946394739135,6.792217857189206,-0.7446625454673639,-12.925378548440928,72.7397199103817,-77.26367513790332
-1.0138724609020215,7.519615056293023,-0.8739163309517732,-13.698015299819962,42.358154332537914,-42.31682143523922
-0.9386763103390913,7.9431965996184015,-1.0108964839499728,-14.121183514172355,-11.339721004034413,24.16650914386997
-0.8592443443429072,7.829799389578057,-1.1521083190916963,-13.879518422733655,-61.18818217292988,85.23504906107836
-0.7809463504471266,7.217917567848758,-1.2909035033190328,-13.027167932122872,-80.32036055487147,104.95074007618813
-0.708767174768639,6.414713962300043,-1.4211751826402614,-11.977660531360991,-76.16515073352393,94.22862270213393
-0.6446200351456386,5.653062454964804,-1.5409517879538714,-11.035374304339651,-65.24203434124752,75.4977611381378
-0.5880894105959905,5.000642111552328,-1.651305530997268,-10.280396692958274,-54.91659066659915,58.31492500215637
-0.5380829894804673,4.451476204886337,-1.7541094979268508,-9.69724744293671,-46.792089356263254,44.47183284734206
-0.4935682274316039,3.983555311323704,-1.851081972356218,-9.25252911446329,-40.74261732292276,33.5506775091885
-0.45373267431836684,3.5761291380944766,-1.9436072635008508,-8.917022339371405,-36.33373883857234,24.810642021664624
-0.4179713829374221,3.212791749708753,-2.032777486894565,-8.66891591915476,-33.17306065500598,17.625246335458932
-0.38584346544033454,2.881061143158693,-2.1194666460861127,-8.49266345580017,-30.962731680271695,11.532949955131988
-0.3570328540087476,2.5714338263559764,-2.204393280644114,-8.37733395624885,-29.483777008850723,6.2082495698458455
-0.33131851574518784,2.276596056267469,-2.288166620206603,-8.31525146055039,-28.570578011066562,1.4283219036759751
-0.3085525551825131,1.9908902761568035,-2.371319134812107,-8.300968241513631,-28.087710783615442,-2.949985579686703
-0.2886436524209451,1.710013168320649,-2.4543288172272435,-8.330468097310499,-27.90998996768885,-7.00205520160647
-0.2715435207377386,1.4309132686437604,-2.5376334982003486,-8.400488649326563,-27.904404324599334,-10.738176752208265
-0.25723438805130094,1.1518692253977671,-2.621638384693614,-8.507870416848647,-27.913058019553823,-14.099386915485292
-0.24571569579732327,0.872738645202229,-2.7067170888621006,-8.6488642860035,-27.737808796446743,-16.949846646765824
-0.236988309345301,0.5953605572377616,-2.7932057317221357,-8.818362752471158,-27.129962605284405,-19.07157008051173
-0.23103470377292337,0.3240609311849175,-2.8813893592468474,-9.009078453276276,-25.79211530170362,-20.171333665446078
-0.2277940944610742,0.0661397781678813,-2.97148014377961,-9.210791789930736,-23.402914710288503,-19.913774080091624
-0.2271326966793954,-0.16788936893500372,-3.0635880616789173,-9.409929530731652,-19.675674228695065,-17.994632555437516
-0.22881159036874543,-0.3646461112219544,-3.1576873569862336,-9.589875856286028,-14.452371827276291,-14.25627883039474
-0.232458051480965,-0.5091698294947173,-3.2535861155490937,-9.732438644589976,-7.811186583281318,-8.818665840311722
-0.23754974977591217,-0.5872816953275305,-3.3509105019949934,-9.820625302993093,-0.13586250157961216,-2.1624408010974054
-0.24342256672918747,-0.5886403203433266,-3.4491167550249244,-9.842249711004067,7.914368332080539,4.909459732842579
-0.24930896993262072,-0.5094966370225212,-3.547539252134965,-9.793155113675642,15.556018312363623,11.455168705934542
-0.2544039363028459,-0.353936453898885,-3.645470803271721,-9.678603426616297,22.098407160085667,16.651675964736423
-0.25794330084183476,-0.13295238229802833,-3.742256837537884,-9.512086666968933,27.120560440550566,19.99852435695663
-0.25927282466481505,0.13825322210747734,-3.8373777042075736,-9.312101423399367,30.529612532213683,21.37713840821374
-0.2578902924437403,0.44354934742961416,-3.930498718441567,-9.09833003931723,32.501849329583095,20.972579743476334
-0.2534547989694442,0.768567840725445,-4.02148201883474,-8.888604241882465,33.36640869861494,19.13204066530928
-0.24576912056218972,1.1022319277115944,-4.110368061253564,-8.697283835229372,33.494951938963155,16.23425753802998
-0.23474680128507378,1.437181447101226,-4.197340899605858,-8.534941259849072,33.22981988060887,12.60552376376066
-0.2203749868140615,1.7694796459073148,-4.282690312204348,-8.408886022211465,32.852961200520916,8.482551675303657
-0.20268019035498835,2.098009257912524,-4.366779172426463,-8.324060505458428,32.583469069749675,4.006483736076293
-0.1817000977758631,2.423843948610021,-4.450019777481047,-8.283995668097665,32.59016753410458,-0.7685222132653031
-0.15746165828976288,2.7497456239510667,-4.532859734162024,-8.291680890230317,33.00982072025096,-5.863655647960957
-0.12996420205025222,3.0798438311535765,-4.615776543064327,-8.350317446709926,33.966121896116064,-11.367049219577257
-0.09916576373871645,3.4195050501147373,-4.699279717531426,-8.4639879389057,35.58775394850563,-17.43132416404417
-0.06497071323756909,3.7753825895997934,-4.783919596920483,-8.638301180546142,38.025214748800806,-24.277586166331908
-0.027216887341571155,4.1556347370878015,-4.870302608725944,-8.88107704220946,41.46561241810688,-32.20408455860803
0.01433946002930686,4.57029086126887,-4.959113379148039,-9.20311788779554,46.14089713264543,-41.59239395646383
0.06004236864199557,5.031699832595325,-5.051144558025994,-9.61904182736018,52.31309742486924,-52.888061062471486
0.11035936696794882,5.554830806844017,-5.147334976299596,-10.147922437984894,60.1855033357588,-66.48556357275332
0.16590767503638898,6.156685840201606,-5.248814200679445,-10.812778073712428,69.59230649137454,-82.31427853590738
0.22747453343840504,6.852608905115351,-5.356941981416569,-11.635920859071502,79.07843135935165,-98.58609929358491
0.29600062248955855,7.643393218708868,-5.473301190007284,-12.621781852007352,83.58546864196256,-108.60479573102768
0.3724345546766472,8.479247905128494,-5.599519008527357,-13.707829809317628,70.63810884370133,-95.45183598665297
0.45722703372793216,9.185628993565507,-5.736597306620534,-14.662348169184158,22.92374393144267,-35.45594655651283
