th1 (rad),w1 (rad/s),th2 (rad),w2 (rad/s)
3.404844376300274,0.9616356125067262,3.781805164066452,-1.3656539393270604
3.414460732425341,0.9674497512045611,3.7681486246731812,-1.3159219427244369
3.4241352299373866,0.9745513405630024,3.754989405245937,-1.2683626185918786
3.4338807433430167,0.9830852493544165,3.7423057790600183,-1.2231054334976885
3.443711595836561,0.9931882223336803,3.7300747247250414,-1.18027280785726
3.453643478059898,1.0049885899148285,3.718271996646469,-1.1399792284097114
3.463693363959046,1.018606102578864,3.706872204362372,-1.102330534739193
3.4738794249848346,1.034151861649401,3.69584889901498,-1.067423339703649
3.4842209436013287,1.051728312097149,3.6851746656179434,-1.0353445348776955
3.4947382267223004,1.071429259023462,3.6748212202691666,-1.0061708260188746
3.505452519312535,1.0933398674049795,3.664759512008978,-0.9799682401384568
3.516385917986585,1.1175366044757757,3.6549598296075936,-0.9567915449299034
3.527561284031343,1.1440870856991137,3.6453919141582944,-0.9366835230086931
3.539002154888334,1.1730497886057265,3.6360250789282076,-0.9196740476428511
3.5507326527743914,1.2044736039042683,3.626828338451779,-0.9057789135213173
3.562777388813434,1.2383972003640136,3.617770549316566,-0.8949983858834234
3.575161360817074,1.2748481892962231,3.608820565457732,-0.8873154444286521
3.587909842710036,1.3138420863587918,3.5999474110134453,-0.8826937153548354
3.6010482635736243,1.3553810832286317,3.5911204738598967,-0.8810751061588694
3.6146020744059104,1.3994526596846761,3.582309722798308,-0.8823771838644664
3.6285966010027573,1.4460280878417313,3.5734859509596633,-0.8864903681613492
3.6430568818811744,1.4950609042736138,3.5646210472780497,-0.8932750459906128
3.6580074909239104,1.546485451541695,3.555688296818144,-0.9025587519334407
3.673472345439327,1.6002156163606627,3.5466627092988094,-0.9141335967129909
3.689474501602934,1.6561439144900585,3.5375213733316797,-0.9277541601789531
3.7060359407478347,1.7141410886859179,3.52824383172989,-0.9431360899029643
3.723177351634694,1.7740563911975158,3.5188124708308606,-0.9599556554923756
3.740917915546669,1.8357187116565419,3.509212914275937,-0.9778504951253036
3.7592751026632345,1.8989386807312696,3.499434409324684,-0.9964217487106163
3.7782644894705473,1.9635118273273222,3.4894701918375777,-1.0152376980770645
3.7978996077438203,2.029222793108349,3.479317814856807,-1.0338389295340267
3.8181918356749036,2.0958505173323596,3.4689794255614665,-1.0517449045105813
3.839150340848227,2.1631742063830197,3.458461976516361,-1.0684616824131359
3.860782082912057,2.230979808468753,3.4477773596922296,-1.083490404229155
3.8830918809967447,2.2990666391216954,3.436942455649938,-1.0963360363185581
3.9060825473879617,2.3672537607619186,3.425979095286752,-1.1065158106283837
3.929755084995581,2.435385719068688,3.414913937180468,-1.113566793963332
3.954108942186268,2.5033372829919225,3.403778269240835,-1.1170520793640362
3.979142315016187,2.571016918952173,3.3926077484471944,-1.1165652104860426
4.004852484205709,2.638368841078035,3.381442096342334,-1.1117326084675885
4.031236172616489,2.70537360162185,3.370324770257658,-1.1022139468699979
4.058289908632707,2.7720473013893683,3.3593026307889584,-1.0877005890571
4.0860103816466005,2.8384395941213585,3.3484256248983875,-1.0679123425689678
4.1143947775878145,2.9046307215009857,3.3377465014726977,-1.0425928826552222
4.1434410848028245,2.970727843364203,3.3273205726461454,-1.0115042470693512
4.173148363236466,3.036860923119118,3.317205530175452,-0.9744208096540086
4.203516972467657,3.1031783978919756,3.307461322078912,-0.931123110340377
4.234548756446577,3.1698428151639084,3.298150090975508,-0.8813918661609963
4.266247184598216,3.2370265614196088,3.2893361723138983,-0.8250024242070915
4.2986174502124115,3.304907751067516,3.2810861480718274,-0.7617198538237471
4.331666527723087,3.3736662910327464,3.27346894953359,-0.6912948195068339
4.3654031906334145,3.4434800912122605,3.2665560013385213,-0.613460332577929
4.399837991545537,3.5145213547813685,3.260421398012742,-0.5279294506058835
4.434983205093351,3.586952855156585,3.255142103506683,-0.4343939784074604
4.470852733644917,3.660924087462889,3.2507981637226084,-0.3325242215421817
4.507461974519546,3.7365671705412904,3.2474729215071867,-0.22196984992334656
4.544827646224959,3.813992369874307,3.2452532230079534,-0.10236194248806438
4.582967569923702,3.893283111662232,3.2442296035830727,0.026683699375636777
4.621900401040325,3.9744903635100606,3.244496440576829,0.16556186501175238
4.661645304675425,4.057626268199193,3.2461520592269464,0.31467175587878093
4.702221567357418,4.142656934780341,3.249298776785734,0.4744091895744183
4.743648136705221,4.229494317168605,3.254042868681478,0.6451570640899843
4.7859430798769065,4.317987146324771,3.2604944393223776,0.827273977164099
4.829122951340154,4.40791092989122,3.2687671790940187,1.0210809309559732
4.873202060639066,4.498957094615845,3.2789779884035783,1.226846109465874
4.918191631585224,4.590721423372135,3.291246449498237,1.4447677984513962
4.9640988458189454,4.682692030507072,3.305694127482751,1.6749556272070025
5.010925766124016,4.774237225704849,3.322443683754821,1.9174104489294699
5.058668138381065,4.864593734812648,3.3416177882441156,2.172003339450998
5.1073140757291915,4.95285587121093,3.3633378216386256,2.4384543777258725
5.1568426344413005,5.03796637600839,3.3877223654158843,2.7163120669030865
5.207222298201384,5.118709759961469,3.4148854860849154,3.004934449867186
5.2584093958009985,5.19370907299252,3.444934830583587,3.3034731525902705
5.310346486530924,5.261427085709911,3.47796956210949,3.6108617355672177
5.362960757388023,5.320172878247728,3.5140781794651623,3.9258098309964042
5.4161624861705,5.368114782284566,3.5533362777751263,4.246804575947815
5.469843633993346,5.403300500330631,3.595804323534604,4.572120807353776
5.5238766389966525,5.423685020992133,3.641525531608142,4.89984135451471
5.578113489206574,5.427166648598573,3.690523945153289,5.227888542571467
5.6323851556925595,5.4116310583330245,3.742802830579004,5.554067699944162
5.68650146627589,5.375002761792267,3.7983435075784455,5.876123036116463
5.740251493893813,5.315302713857084,3.85710473793961,6.191805713504739
5.793404521032383,5.230710011354968,3.9190227950746572,6.498953271122051
5.845711621145933,5.1196247502532115,3.984012327785878,6.795578773861088
5.896907868648465,4.9807281786501925,4.051968115524489,7.079967193906484
5.946715150434967,4.8130354100081085,4.1227677874635535,7.350775661047674
5.994845504535048,4.615935292102188,4.19627554407403,7.6071334859873
6.04100485745607,4.3892117370405135,4.272346878933903,7.848737459866424
6.084896974826475,4.133041071694026,4.350834253532567,8.075938088147838
6.126227385543415,3.847960868216504,4.431593634414046,8.289813331139605
6.16470699422558,3.5348072463086653,4.514491767725442,8.492228214937699
6.200055066688667,3.194619640014483,4.599414049874819,8.68588131629178
6.2320012630888115,2.8285142008635757,4.686272863037737,8.87434239530516
6.260286405097447,2.437529037018132,4.775016286990788,9.06208892721731
6.284661695467628,2.0224461791090254,4.865637176262961,9.254552309115166
6.304886157258719,1.5835967810606206,4.958182699354113,9.45818604733874
6.320722125069325,1.1206588583620647,5.052764559827501,9.68056634619341
6.331928713652945,0.6324641512976352,5.149570223289435,9.930526070876853
6.3382533551659215,0.11685025133921356,5.248875483998203,10.218296353564382
6.339421857679314,-0.42935631474456004,5.351058447533847,10.555563115032239
6.335128294531868,-1.0100207778705772,5.4566140786841695,10.955184589166908
6.3250280867531625,-1.6285627997572818,5.566165924575839,11.429940278255854
6.30874245875559,-2.284918197603035,5.680465327358397,11.988854115509577
6.285893276779559,-2.9683848962335504,5.8003538685134926,12.62804732258005
6.256209427817224,-3.6428437119055204,5.926634341739293,13.311175845581333
6.219780990698168,-4.223219617076647,6.059746100195106,13.937470388294972
6.177548794527402,-4.561260282513607,6.199120804078055,14.32132824736257
6.131936191702266,-4.500121625224459,6.3423340865516815,14.26394470751062
6.0869349754500215,-4.019597666163643,6.484973533626787,13.745929897497584
6.046738998788385,-3.2837103910415473,6.622432832601763,12.98530378574993
6.01390189487797,-2.48110065282688,6.7522858704592625,12.220747541690498
5.9890908883497005,-1.7097631876810788,6.874493345876168,11.564560363038225
5.9719932564728895,-0.9962889375803204,6.99013894950655,11.035685792296528
5.9620303670970864,-0.3384314897041367,7.100495807429515,10.618245419682827
5.958646052200045,0.2732525448724381,7.206678261626343,10.289444731941753
5.9613785776487696,0.8479507316750352,7.30957270894576,10.028272726495699
5.96985808496552,1.3926732280945995,7.409855436210717,9.817169951103438
5.983784817246466,1.9120900350679713,7.508027135721751,9.641701936172758
6.002905717597145,2.4088362878213703,7.604444155083479,9.489869770745614
6.026994080475359,2.883894446201222,7.699342852790935,9.351509633959033
6.055833024937371,3.3369542753398287,7.792857949130526,9.217869351901694
6.089202567690769,3.7667381199877212,7.885036642649543,9.081348436187906
6.126869948890646,4.171299039725903,7.975850127011422,8.935365016284026
6.168582939287905,4.548298860057608,8.065203777174263,8.774311536163161
6.214065927888481,4.895267442478482,8.152946892535894,8.593564538748858
6.263018602313267,5.209838855198862,8.238882537923383,8.38951840267395
6.315116990865255,5.489956640215661,8.322777721950121,8.159618167987405
6.370016557267412,5.734039650357557,8.404373903629995,7.902372790697138
6.427356953770988,5.941101782015612,8.483397631536967,7.617337119008361
6.486767971591144,6.110822577080026,8.55957100272705,7.3050578995153455
6.547876197361944,6.24357000285163,8.632621581722205,6.966985258415477
6.610311897390461,6.340380634516109,8.70229143430636,6.605355545982717
6.673715703735622,6.402905165391435,8.768344989766188,6.223053800756373
6.737744755389537,6.433328345731556,8.830575527773751,5.823464541841268
6.802078038846853,6.434272264631862,8.888810173192164,5.4103187154714005
6.866420761493171,6.408690810655028,8.942913360346878,4.987543152281657
6.930507669599722,6.359761720282591,8.992788791869694,4.55911747286342
6.994105286802548,6.290781275448094,9.03837996659833,4.128942362649795
7.057013099557029,6.20506565073936,9.079669390224828,3.7007225515934867
7.119063756064422,6.105862134419952,9.116676615740763,3.2778674733573085
7.180122377408622,5.996272820575915,9.149455290474336,2.8634121542678272
7.240085105614381,5.879192730208964,9.178089412017014,2.4599601698440723
7.2988770329164705,5.757263561206347,9.202689013715455,2.0696494359130333
7.356449668528534,5.632843380361467,9.223385508074585,1.694140268149857
7.412778102332149,5.507991631220223,9.240326910756083,1.334623758534526
7.4678580186443515,5.384467961903301,9.253673148341429,0.9918473201861868
7.521702698263384,5.263742696544857,9.263591621543291,0.6661534352311813
7.574340125228833,5.147016360757275,9.270253155895603,0.3575272993462576
7.625810288836406,5.035245545876904,9.273828428889065,0.06564918219091648
7.6761627442951745,4.929172525416374,9.274484920710973,-0.21005217561631934
7.725454469549338,4.829356351169951,9.27238439895481,-0.47034806429683135
7.773748033061038,4.7362035729084795,9.267680918311841,-0.7161622912801866
7.821110068790123,4.649997166102187,9.260519295399039,-0.9485288955769523
7.867610040451145,4.570922653700165,9.25103400644327,-1.1685555723816066
7.913319266988147,4.499090726906754,9.239348450719454,-1.377392643218384
7.958310174257214,4.434555879478734,9.225574524287271,-1.5762068722081715
8.002655733052002,4.377330655647373,9.20981245556519,-1.766158977906463
8.046429039608476,4.327395064746707,9.192150865786125,-1.9483832765644442
8.089702990255944,4.284700528781662,9.172667033020481,-2.1239674609755137
8.13254999554376,4.24916739504963,9.151427358410727,-2.293930012223707
8.175041669494256,4.2206745610855645,9.12848805828849,-2.4591921132488554
8.21724841510511,4.199039139160551,9.103896137156001,-2.620540171306524
8.259238806496716,4.183983401554966,9.077690735442935,-2.778574232996128
8.301078640512266,4.175085687874257,9.049904993112975,-2.933636942193343
8.342829497391008,4.1717119589157,9.020568623691041,-3.0857178492157136
8.384546616980165,4.172926115837455,8.989711445198884,-3.2343300377671396
8.42627587813854,4.177381572646328,8.957368144821212,-3.378362296420682
8.468049693865003,4.183206035126149,8.923584521857006,-3.515923442448112
8.509881754216265,4.187908102692549,8.888425287432524,-3.644218832503445
8.55176083524319,4.188357761857775,8.851983099107489,-3.7595319443501904
8.593644412861767,4.180915133895272,8.814387779663987,-3.8574149561017226
8.63545356420072,4.1617818185524,8.77581363010297,-3.933191708456432
8.677071382386243,4.127595274629222,8.736481713018406,-3.9828000204434053
8.718347335132535,4.076163102885585,8.696653712813973,-4.003826179574715
8.75910896616139,4.007087692819769,8.656615451018226,-3.99637901583902
8.799179843089588,3.921983598680744,8.616651660859835,-3.9633850666392374
8.838399679076396,3.824139371733878,8.577017810193443,-3.910098884373147
8.876641072793735,3.717755834335711,8.537916821349711,-3.8430183916834544
8.913818631137092,3.607090439622908,8.499486637432877,-3.7686727814005905
8.949889535533321,3.4958112188883854,8.461799909618872,-3.6927115137221227
8.984847647722205,3.3866830132387156,8.42487279448165,-3.6194663081561886
9.018714477854592,3.281538169769864,8.38867813140009,-3.5519169279841365
9.051529859552291,3.18141250308393,8.353158962120249,-3.4918910920543222
9.08334398458313,3.086738781057646,8.318240051199705,-3.440345529820571
9.114211372393708,2.997532197570532,8.2838365959015,-3.397635208178838
9.144186694369413,2.913540147472198,8.249860243819711,-3.3637314845153323
9.173322095844135,2.8343515319507566,8.216222928974558,-3.338382452206196
9.201665611163643,2.759471089627868,8.182839104452496,-3.3212233210210726
9.229260322059922,2.6883670840457463,8.149626871242285,-3.3118487091810445
9.256143992900379,2.6205001325073867,8.116508384150475,-3.3098579569401414
9.282348994225453,2.5553393215966156,8.083409804581073,-3.3148822455904514
9.30790238744142,2.492370059307953,8.050260982125168,-3.3265998936148296
9.3328260880345,2.4310967248556166,8.01699498318902,-3.344744218162022
9.357137055283056,2.37104215346408,7.9835475410074,-3.369106878641057
9.380847476817697,2.31174528313956,7.94985647222099,-3.3995385863648213
9.403964929649094,2.2527578177944765,7.915861086357341,-3.4359483608333155
9.426492507827039,2.193640458260477,7.881501602749008,-3.4783020405352474
9.448428912409643,2.1339590680720706,7.846718582343656,-3.5266204370091665
9.469768503090364,2.0732810385352427,7.8114523779735645,-3.5809772991315962
9.490501313475717,2.0111720742308896,7.775642604982249,-3.641497090136773
9.510613034218025,1.9471936218887436,7.739227634080881,-3.7083524439491953
9.530084970436912,1.880901205532972,7.702144109641389,-3.7817610385528733
9.548893982492242,1.81184400698959,7.664326499255861,-3.861981485244065
9.567012422562138,1.739566144921338,7.62570668440342,-3.9493076691127693
9.584408084011352,1.6636102615630801,7.586213607712293,-4.044060774914678
9.601044186626984,1.5835242292069542,7.545772999963146,-4.146577982300654
9.616879428919054,1.4988720417518038,7.50430722014014,-4.257196507281909
9.631868149336572,1.409250258457089,7.461735255067321,-4.37623130244436
9.645960651921143,1.3143117035445133,7.417972942042877,-4.503944321588392
9.659103768956589,1.213798459530388,7.372933498826994,-4.640502848275523
9.671241753551893,1.1075864471146524,7.326528470344239,-4.7859240743377836
9.68231761802304,0.9957439186671169,7.278669229600861,-4.940003064747395
9.692275057209711,0.8786057695156666,7.229269198953387,-5.102221747039064
9.701061114904867,0.7568643307016586,7.178246981482996,-5.271638058114112
9.708629758211885,0.6316747554069578,7.125530600901855,-5.446757475304845
9.714946505765955,0.5047686784253731,7.071063026148806,-5.62539455732651
9.719994192550208,0.3785630565205739,7.014809080575541,-5.804540394917271
9.723779823115414,0.25624205812668843,6.956763676626369,-5.980262944599557
9.726342243696681,0.1417798505313408,6.8969610471803735,-6.147679517815386
9.727760042201995,0.039864456190941686,6.835484252002219,-6.301050131056876
9.728158686763905,-0.04431671025277409,6.772473750691651,-6.434039879995874
9.727715519661377,-0.10545329967105349,6.708133351891692,-6.540179185036482
9.726660986664667,-0.138638295581195,6.6427315600413275,-6.613506745503436
9.725274603708856,-0.13997932041948727,6.576596492586293,-6.649315718988641
9.723874810504661,-0.10717749246774291,6.510103335396407,-6.644859594402263
9.722803035579984,-0.039930582093693906,6.443654739452384,-6.5998436749206535
9.722403729759048,0.059958081329226406,6.377656302703178,-6.5165593323714655
9.72300331057234,0.18880741482814362,6.312490709379463,-6.399611438271346
9.724891384720621,0.34156738852389956,6.24849459499675,-6.25530813197696
9.72830705860586,0.5124773726300984,6.18594151367698,-6.090872324064822
9.733431832332162,0.6957206708280718,6.1250327904363315,-5.913659003736722
9.740389039040442,0.8859540976506064,6.0658962003989645,-5.730522518818454
9.749248580016948,1.078652409541437,6.00859097521078,-5.5474047434168865
9.760035104112362,1.2702665125321,5.953116927776611,-5.36914494952279
9.772737769237683,1.4582327034908897,5.899425478281382,-5.199467263632733
9.787320096272591,1.6408843877336876,5.847430805645055,-5.041085266292873
9.803728940149927,1.81731432955941,5.797019952982126,-4.8958675179688935
9.821902083445522,1.987223613629185,5.748061277802437,-4.765021825640425
9.841774319581814,2.1507801402330156,5.700411059546033,-4.649271730599275
9.863282120984145,2.308498390665512,5.65391834224004,-4.5490116962399485
9.8863671048908,2.4611445353632626,5.60842822527764,-4.464436507911211
9.910978550244433,2.609666435354646,5.563783860198528,-4.3956458146619575
9.93707521459798,2.755145895119193,5.5198274020519085,-4.342727491594855
9.964626673549173,2.898769827893023,5.47640012713596,-4.305824543675309
9.993614371828103,3.041817137122809,5.433341881699207,-4.285190354133248
10.024032543199331,3.185658652429969,5.390489978157875,-4.2812366949752825
10.055889129723631,3.3317681010525755,5.347677611208122,-4.2945783351770705
10.089206810734158,3.481742659330251,5.304731827856352,-4.326077397738485
10.124024237327461,3.637331951052095,5.261471053878967,-4.376889762191968
10.160397556837982,3.8004742176567055,5.217702156257047,-4.448514519930125
10.198402299014548,3.973337372539442,5.173217011057746,-4.542845184937391
10.238135672739942,4.158359963324736,5.127788559208372,-4.662216875548587
10.279719272373189,4.35828110175952,5.081166390452886,-4.809434719166108
10.323302083390784,4.576136048218512,5.033072043261225,-4.987750839780881
10.36906344387297,4.815169410227838,4.983194534863416,-5.200722058651159
10.417215137975248,5.078570228569279,4.9311873142769045,-5.451812910778237
10.46800084026094,5.368846243044172,4.876669185169122,-5.743485721366511
10.521689302691382,5.686512976693075,4.819234327955457,-6.075319611760973
10.578554432458313,6.027602567956479,4.758481131837848,-6.440459440414301
10.638830458137878,6.379505705823826,4.694076537433705,-6.819707039231002
10.702625515196116,6.715564178354421,4.625879467041394,-7.173840439797078
10.769781156979661,6.992006448200722,4.554141062643423,-7.439221241809962
10.839701221461668,7.156003197839957,4.479748850225324,-7.5390650511911605
10.911261253440069,7.1717089051427125,4.404358199713412,-7.420091942649325
10.982978342491496,7.048598408212844,4.330157280286919,-7.092553825408115
11.053464326573625,6.838157243532837,4.259231742032838,-6.625906561554476
11.121845899008953,6.59979251791727,4.192972676417293,-6.101187368328762
11.187843824188127,6.374518699016465,4.131960802734006,-5.574084681652668
11.251589011178291,6.182028677234393,4.076219955917479,-5.070648758951304
11.313409297950635,6.028373920374932,4.025513468327967,-4.597866752702811
