th1 (rad),w1 (rad/s),th2 (rad),w2 (rad/s)
1.7216277609256143,-0.15064945358845203,2.869048762616579,1.0642943542191103
1.7201212663897298,-0.24486292045487762,2.8796917061587703,1.0764142443764195
1.7176726371851812,-0.33878446414226593,2.8904558486025347,1.0880343418302474
1.7142847925437585,-0.432378313884755,2.901336192020837,1.0988986023983098
1.709961009404911,-0.5256173616670865,2.9123251780448203,1.1087540872192871
1.70470483578824,-0.6184838304470429,2.923412718917013,1.1173510154731858
1.6985199974837695,-0.710969887724587,2.9345862290717446,1.1244426912069148
1.6914102986065236,-0.8030781931735508,2.945830655983814,1.1297852925541298
1.683379516674788,-0.8948223706802152,2.957128508909355,1.1331375138765887
1.6744312929679859,-0.9862273969692703,2.968459884048121,1.134260054251855
1.6645690189982931,-1.0773299009128467,2.9798024845906395,1.132914949193545
1.6537957199891646,-1.1681783694611387,2.991131634082575,1.1288647463980197
1.6421139362945532,-1.2588332577401322,3.0024202815465553,1.1218715305427047
1.629525603717152,-1.3493670020690687,3.013638996851982,1.1116958066047578
1.6160319336964613,-1.439863935303425,3.02475595491803,1.0980952557406827
1.601633294343427,-1.5304201038730914,3.0357369074754366,1.080823382423918
1.586329093304696,-1.6211429850499124,3.0465451412996756,1.0596280762831045
1.570117663454197,-1.7121511012625863,3.057141422062507,1.0342501169751608
1.552996152441571,-1.80357352562937,3.0674839232322584,1.0044216555702632
1.5349604171852773,-1.8955492692803302,3.077528139787961,0.9698647114676224
1.516004924492474,-1.9882265365022647,3.087226786902637,0.9302897299769017
1.4961226591274515,-2.0817618283047423,3.096529684202406,0.8853942525750463
1.475305040844404,-2.176318868755609,3.1053836267281567,0.8348617596524683
1.453541852156848,-2.272067321494394,3.1137322443246815,0.7783607544219006
1.430821178941904,-2.369181256386527,3.1215158518689003,0.715544166623128
1.4071293663780389,-2.467837318592211,3.1286712935351315,0.6460491656382295
1.3824509931921167,-2.568212544756742,3.135131785191514,0.5694974843797832
1.3567688677445493,-2.6704817640836556,3.1408267600353117,0.48549636733761203
1.3300640501037126,-2.7748145163958977,3.145681723708688,0.3936402676746646
1.3023159049397537,-2.8813714157913566,3.1496181263854344,0.2935134280853768
1.27350219078184,-2.990299888251164,3.1525532606662883,0.1846934866729738
1.2435991918993283,-3.1017292158881657,3.154400195533018,0.06675625029254684
1.2125818997404467,-3.215764830962928,3.1550677580359436,-0.06071822890669171
1.1804242514308174,-3.3324818210140803,3.1544605757468767,-0.19813815558671313
1.1470994332206765,-3.4519176341098348,3.1524791941910095,-0.34589098547299074
1.1125802568795782,-3.5740640117521227,3.1490202843362796,-0.5043328741182881
1.0768396167620569,-3.698858227210828,3.1439769555950967,-0.6737766112109933
1.0398510344899485,-3.8261737688941393,3.1372391894829867,-0.8544781613051726
1.0015892968010072,-3.955810680137867,3.128694407869935,-1.0466220421808288
0.9620311899996286,-4.0874858448871185,3.1182281874481266,-1.2503058991786151
0.9211563315507574,-4.220823587114981,3.1057251284563403,-1.46552477024039
0.8789480956796075,-4.355347021911401,3.0910698807539365,-1.6921556700232405
0.8353946254604935,-4.490470647212145,3.074148324053704,-1.92994323591789
0.7904899189883721,-4.6254946851096665,3.054848891694525,-2.1784872542230502
0.7442349721372754,-4.759601659044561,3.0330640191522944,-2.437232899968777
0.6966389555468298,-4.891855619232294,3.008691690152607,-2.705464459997292
0.6477203993545068,-5.02120430043242,2.9816370455526338,-2.9823031536073454
0.5975083563501825,-5.146484318994803,2.9518140140165605,-3.2667094174969913
0.5460435131602345,-5.266429305607775,2.9191469198415905,-3.557489696507608
0.4933792201041567,-5.379680652292015,2.8835720228765145,-3.8533074108012
0.43958241358123656,-5.484800361178425,2.8450389487685026,-4.152697401764591
0.3847344099694523,-5.580285356506618,2.803511974750857,-4.454082852371283
0.3289315564043861,-5.6645825954646,2.758971146227144,-4.755793494683521
0.2722857304497401,-5.736104413405781,2.7114132112803087,-5.056083911101582
0.2149246863156823,-5.793243773371716,2.660852372169293,-5.3531509410670495
0.15699224858196512,-5.834389445809805,2.6073208627586224,-5.645149627094139
0.09864835412386706,-5.857941585000798,2.550869366487681,-5.930207745258484
0.04006893827385908,-5.862328633535073,2.491567289035096,-6.206439702305271
-0.01855434806149165,-5.846026894127328,2.4295028920120436,-6.4719613480781355
-0.07701461700276493,-5.807584362808394,2.364783278531262,-6.724907924454546
-0.13509046063084887,-5.745650415813604,2.2975341992867166,-6.963457808589505
-0.19254696478898492,-5.659012586906015,2.2278996212008217,-7.185864762720643
-0.24913709065804507,-5.546640890176556,2.1560409735736155,-7.390500945245212
-0.30460349955981064,-5.4077389150589505,2.0821359641211634,-7.57591188516146
-0.35868088871040016,-5.241799308155243,2.006376845269549,-7.74088297672174
-0.4110988817919526,-5.048659434816497,1.9289680155023317,-7.8845149416218625
-0.4615854761401176,-4.828551278943366,1.850122866086113,-8.006303413671946
-0.5098709889295512,-4.582138387047645,1.7700598319493936,-8.106215753443735
-0.5556923728000276,-4.310532313491828,1.6889976744149564,-8.184756912497376
-0.5987976959349459,-4.0152819089834795,1.6071501052899826,-8.243016122875266
-0.6389505150247807,-3.69833102046305,1.52471994406123,-8.282687688641554
-0.6759338252294113,-3.3619435180919335,1.4418930671748145,-8.306062180619348
-0.7095532604103306,-3.008598474799016,1.358832445368621,-8.315988476849897
-0.7396392451583208,-2.640862001899685,1.275672560600122,-8.315811621892857
-0.7660478651773177,-2.261244869300789,1.1925144443811935,-8.309295536194362
-0.7886603138703256,-1.8720560012944805,1.1094214890192498,-8.300542449547564
-0.8073808738832704,-1.475261020185623,1.026416064523774,-8.293922157795786
-0.8221334840851267,-1.0723524305604446,0.9434768429458162,-8.294023849382995
-0.8328570083907311,-0.6642343665588031,0.8605366044519863,-8.305641743976384
-0.8394993520563191,-0.2511208120594602,0.7774801870122224,-8.333803746449904
-0.8420105601769137,0.16755736782766428,0.6941421495477234,-8.383850270523952
-0.840334986498637,0.5932435580855946,0.6103036468424838,-8.461568396636329
-0.834402550917781,1.0283515650480468,0.5256879628761205,-8.573383658829954
-0.8241190352673006,1.4763688547784677,0.439954126287821,-8.726604933899095
-0.8093553467195159,1.941953699662167,0.35268807694883003,-8.929699287921954
-0.7899358097228942,2.4309739871890597,0.2633910840696105,-9.192524232288276
-0.7656260698510037,2.95034006600533,0.17146584174672772,-9.526319519414923
-0.7361226691909504,3.5072577771009383,0.07620264655257848,-9.942955207758802
-0.701050091419941,4.107013421945584,-0.023226905525009542,-10.452225704887054
-0.6599799572004852,4.747344976096412,-0.12774916257388008,-11.054505582899287
-0.6125065074395211,5.405851160021612,-0.23829421840287296,-11.72380693153312
-0.5584479958393049,6.01717466579407,-0.35553228771820417,-12.376514286221626
-0.4982762491813642,6.4501924981549665,-0.4792974305804204,-12.839500511447614
-0.43377432419981454,6.5378260381146704,-0.6076924356948965,-12.889820652721417
-0.36839606381866785,6.214422924612586,-0.7365906422221107,-12.44137686486489
-0.306251834572542,5.6144906805422,-0.8610044108707596,-11.676817593787648
-0.25010692776712,4.93859403123402,-0.9777725868086361,-10.86191243575015
-0.20072098745477981,4.302128288213414,-1.0863917111661376,-10.143155135110634
-0.15769970457264568,3.737516030226813,-1.187823262517244,-9.555842796928735
-0.12032454427037755,3.241545173165631,-1.2833816904865314,-9.089894326510345
-0.08790909253872123,2.801707822635696,-1.374280633751635,-8.725041472397493
-0.05989201431236427,2.4053109079753234,-1.4615310484756099,-8.442354616568752
-0.03583890523261103,2.041743778862427,-1.5459545946412974,-8.226702448327076
-0.015421467443986762,1.702629010408634,-1.6282216191245682,-8.066557159822334
0.001604822660099578,1.381459650465163,-1.7088871907227916,-7.953241190115563
0.01541941916475121,1.0731984183456171,-1.7884196026239472,-7.880198535481758
0.026151403348207383,0.7739561243513333,-1.8672215879787648,-7.8424105433123
0.03389096459172072,0.4807618812668027,-1.9456456934118878,-7.835949425115528
0.038698583404388746,0.191411695165134,-2.024005187663043,-7.857636668483704
0.04061270035604009,-0.09562108986405266,-2.1025815543478803,-7.9047750356993145
0.03965648945739956,-0.38122765243473045,-2.1816293047048734,-7.974930260384201
0.035844212933052254,-0.6656693906992042,-2.2613786073087154,-8.065746080097643
0.02918751902606021,-0.9485575089084687,-2.342036068109692,-8.174782777320598
0.019701943936975524,-1.2288164712016751,-2.423783895882898,-8.299375104497944
0.007413779224958773,-1.5046424898629565,-2.5067776469278775,-8.436510666696703
-0.007632645673670791,-1.773470316944467,-2.5911427535948444,-8.58273464993478
-0.025367348843115464,-2.031964013858776,-2.6769701000941923,-8.734090978702474
-0.045686988981703223,-2.2760491541433647,-2.764311009881217,-8.886112909304158
-0.06844748052313687,-2.5010038313891485,-2.8531721389742586,-9.033876700655904
-0.09345751883702835,-2.701622539866957,-2.9435109059808178,-9.172129214662597
-0.12047374423569793,-2.8724594245165305,-3.035232198127444,-9.295493296429488
-0.14919833848086322,-3.008145445023598,-3.128187131091739,-9.398743746055633
-0.1792797929310992,-3.1037590513553974,-3.2221745685522953,-9.477133250010533
-0.21031738344465317,-3.1552150473643725,-3.3169459010524007,-9.526734856250494
-0.2418695339182969,-3.1596254607097394,-3.4122132496149056,-9.544759155824044
-0.2734657885253943,-3.1155831583571536,-3.507660841173146,-9.529803236302644
-0.3046216201089659,-3.0233255653271365,-3.6029588735361724,-9.481995664220427
-0.3348548757622372,-2.8847514380455515,-3.6977788301783767,-9.403015846107532
-0.36370239014269273,-2.7032850739471708,-3.791808988639452,-9.295984080956252
-0.39073524088216444,-2.4836050844980906,-3.8847688294490146,-9.165236946171202
-0.41557129172714535,-2.231274239996883,-3.9764211989107268,-9.016018200340172
-0.4378840341271142,-1.952319090404616,-4.066581380914129,-8.85412563279634
-0.4574072250311603,-1.6528109007119185,-4.155122637242092,-8.685557576408051
-0.47393533403827953,-1.3384929269378034,-4.241978213006173,-8.51619872541731
-0.48732026330765754,-1.0144854579713,-4.327140200260346,-8.351574722736423
-0.4974651178873705,-0.6850831666575634,-4.410655947487711,-8.196691454457266
-0.5043159495539462,-0.35364322891968236,-4.492622862032284,-8.055961492521195
-0.5078523818431431,-0.022550447875559876,-4.573182476957496,-7.933209521567129
-0.5080778863218987,0.3067613911729858,-4.652514572173167,-7.831742421911079
-0.5050102724101688,0.63375481529343,-4.730831996392277,-7.75446806403145
-0.4986727242572345,0.9587220520749442,-4.808376677032592,-7.70404888530658
-0.48908550373648507,1.2827246672512238,-4.8854171658856576,-7.683080647893222
-0.47625825706397285,1.6075539336039668,-4.962247972364589,-7.694292194905481
-0.4601827177279332,1.9357233063554746,-5.039190894313644,-7.740767631617319
-0.44082548466437843,2.270502171797103,-5.116598570629817,-7.826197508810132
-0.4181204629464074,2.6159982971722453,-5.194860545717918,-7.955169459967779
-0.39196047997468497,2.9772934568684977,-5.274412240317596,-8.133509370624104
-0.362187545406,3.3606280869999106,-5.355747334023837,-8.368676065722674
-0.3285812645360009,3.7736051983218055,-5.439434094681064,-8.670180890321886
-0.29084521255278284,4.2253123563334025,-5.526135903584283,-9.049909506020633
-0.24859208898944882,4.72607059041167,-5.616634998644489,-9.521966675033603
-0.2013313830853321,5.286033015262038,-5.711854665394825,-10.100998700045661
-0.14847105293271173,5.910684253103227,-5.812864652395282,-10.796325451091043
-0.08936421040167947,6.588859773831927,-5.920827906906193,-11.59581231116692
-0.023475612663360193,7.266023417419413,-6.036786030017862,-12.429297977921987
0.04918462151083394,7.803034047523038,-6.161079009797082,-13.111532100056468
0.12721496198606433,7.973888878206333,-6.292194330797647,-13.338230297885076
0.20695385076812767,7.6273850152891285,-6.425576633776498,-12.907706097206399
0.28322770092101895,6.901689434131384,-6.554653694748563,-12.01280766556605
0.3522445952623328,6.079377490974032,-6.6747817714042235,-11.03663685877958
0.4130383701720731,5.322374031829344,-6.785148139992019,-10.191919801347339
0.4662621104903666,4.6666570274719446,-6.887067338005493,-9.520403270289657
0.512928680765086,4.100616454013999,-6.982271370708389,-9.002007458569047
0.553934845305226,3.6038025911808105,-7.07229144529408,-8.607050961016927
0.589972871217034,3.1579077178215162,-7.158361954904249,-8.310298769971922
0.6215519483952492,2.74853520127152,-7.241464942603969,-8.092732110915348
0.6490373004079644,2.364709674845134,-7.322392263713122,-7.940474690116165
0.6726843971564157,1.9980786462143354,-7.401797010614284,-7.8434262823762
0.6926651836185591,1.642256281938955,-7.480231273438046,-7.794143742093128
0.7090877464379487,1.2923664870657945,-7.558172710858978,-7.787002233417769
0.7220114113086067,0.944755328697513,-7.636042733193156,-7.817568356842585
0.7314589645955818,0.5968338536093263,-7.7142184167615815,-7.882115560974274
0.737427303131675,0.24701913738912218,-7.793039572371324,-7.977230528865327
0.7398974945055663,-0.10525221990043115,-7.872811877659977,-8.099478302036626
0.738844972306562,-0.45946167217643635,-7.9538066606803435,-8.245110926306994
0.7342503555847977,-0.8139230780876754,-8.036257769943413,-8.409820019815223
0.7261111248039209,-1.165705234638915,-8.120355970141565,-8.588548361403884
0.7144540724575318,-1.5106011991538588,-8.206241453755604,-8.77538839125144
0.6993480604659932,-1.843188110422772,-8.293995337668118,-8.963603385504419
0.6809161793617655,-2.15701916231841,-8.383631371523162,-9.145805184652929
0.6593459877385814,-2.4449747754133444,-8.475089423369692,-9.314305700494012
0.634896239984448,-2.6997699640598234,-8.568232480374633,-9.461626132576951
0.6078985403438497,-2.91457277460667,-8.662848741700403,-9.581103282817901
0.578752812597783,-3.0836463523320945,-8.758659774528581,-9.667491114384003
0.5479163490744621,-3.2029024556633754,-8.855334685672421,-9.717437494313844
0.5158873245178284,-3.27026212340031,-8.95250906061556,-9.729735368596454
0.4831847032838253,-3.2857616408797066,-9.049806414301525,-9.705302503462185
0.4503270868750282,-3.251403818430253,-9.146859439336147,-9.646913690962757
0.41781304869072566,-3.1708111567796053,-9.243328576245775,-9.558765336383104
0.3861049371229296,-3.0487686067214197,-9.338916229609605,-9.44597489088374
0.3556172510557154,-2.8907439762655436,-9.433375978518443,-9.31410561190902
0.32670981129306,-2.7024523596354695,-9.526517034637534,-9.168774694946874
0.29968528769670527,-2.4895016129933363,-9.618204781587002,-9.015367639362884
0.27479027156677194,-2.2571302987860564,-9.70835845798063,-8.858855609081973
0.25221896857891135,-2.0100326530624497,-9.79694701407145,-8.703698850623542
0.23211864204828686,-1.7522567475609114,-9.883984002577684,-8.553815474591557
0.21459607457267774,-1.487159515242955,-9.969522157323599,-8.412596796587259
0.19972447942024818,-1.2174029696158757,-10.053648125289472,-8.282954416817478
0.18755044972408944,-0.9449779015832445,-10.136477669457648,-8.16738827703524
0.178100670708257,-0.6712435883014973,-10.218151552228,-8.068068315865792
0.17138823482524201,-0.3969741737178271,-10.298832235386659,-7.986924996662307
0.16741849308806375,-0.12240422993154737,-10.378701485353282,-7.925746107334276
0.16619445078874828,0.15273247195648315,-10.457958946426626,-7.886279048727895
0.1677217755083131,0.42917579029882064,-10.536821736913904,-7.870339495010748
0.17201353341130132,0.7081276502292128,-10.615525131864011,-7.879928914615753
0.17909480991359344,0.9912596235192916,-10.694324421010169,-7.917365000899622
0.18900740614878636,1.2807428880666234,-10.773498071019166,-7.985430477022254
0.2018148350294526,1.5793033116423691,-10.853352375789388,-8.087546634783301
0.2176078681458763,1.8903028110764368,-10.93422784213722,-8.227977293516162
0.23651089625664065,2.2178433004216607,-11.016507615072381,-8.412063935374015
0.25868932926085725,2.566876398600341,-11.100628254426121,-8.646476957870458
0.2843580932468607,2.9432686783096473,-11.187093024004826,-8.939425236624608
0.31379078002995714,3.35369062691094,-11.276487276371071,-9.300658279012731
0.3473276862990665,3.8050037098921,-11.3694938591612,-9.740833678521355
0.38537772339798754,4.302377984775349,-11.466902195946412,-10.269216935690995
0.428401503245741,4.844450679366682,-11.569594365303322,-10.887400663970864
0.47684601003940785,5.41234447939462,-11.678468371943032,-11.574624822765703
0.530969454833354,5.949011599539026,-11.794214620170688,-12.259660871874333
0.5904595708287442,6.335206924557103,-11.916811228889431,-12.78758319502954
0.6538116400743152,6.405260875959853,-12.044687060839726,-12.940494541691939
0.7178642488339138,6.066154165157618,-12.174092006256645,-12.599129840537556
0.77852579048549,5.419610214516799,-12.30008330466202,-11.906313734799687
0.832721892630658,4.66535168859126,-12.419146442010017,-11.13069173602673
0.8793754095165706,3.9337227282012397,-12.530453359370284,-10.440922332519701
0.918712636798583,3.266320988435909,-12.634862582695481,-9.885113036566521
0.9513758466829421,2.662701375221959,-12.733713713061146,-9.456766338772892
0.9780028604351616,2.110493473242366,-12.828281376448874,-9.13544201405113
0.9991077951675853,1.5964766027473787,-12.919635796589386,-8.900948746139957
1.015072561195059,1.1095359847577444,-13.008645284050786,-8.736647044652813
1.0261679210426364,0.6410229084720673,-13.096011754497313,-8.629433397612004
1.0325781501273572,0.18445470231057676,-13.182306088473434,-8.568970381767874
1.0344226971504629,-0.26486166517438287,-13.267995792291112,-8.546898896120894
1.031774080498719,-0.7101359118318304,-13.35346478125232,-8.556199688838982
1.0246727213804008,-1.153315086060763,-13.43902677814071,-8.590713401137565
1.0131395705197932,-1.5952377957411519,-13.524933912152084,-8.644794517748812
0.9971871925623816,-2.0357476435670683,-13.611381857329572,-8.713074921741871
0.976829716126711,-2.473789980552486,-13.698512606546991,-8.790319890558157
0.9520918163211861,-2.90751244102277,-13.786415805452572,-8.871365343987094
0.9230166919109584,-3.3343850061565568,-13.875129458892443,-8.951127838428862
0.8896728418493928,-3.751349400905032,-13.964640737276731,-9.024677955087133
0.8521593478403424,-4.155000341147964,-14.054887516827602,-9.087363978184063
0.8106093444288628,-4.5417929646852295,-14.145761156609442,-9.134967418711607
0.7651914147820105,-4.908262870691674,-14.237110830796558,-9.163866906479944
0.7161087860750938,-5.251239244403759,-14.328749499861358,-9.171184373551469
0.6635963936310562,-5.568029233010194,-14.420461343596873,-9.15488900764379
0.6079161013009542,-5.8565540408598125,-14.512010233673312,-9.113840778895417
0.5493505608923561,-6.115423862094909,-14.603148641462266,-9.04776552265907
0.488196322271407,-6.343948179783625,-14.693626296688857,-8.957165315152128
0.42475684047357076,-6.542087712713603,-14.783197949840378,-8.843178334109899
0.3593359633464347,-6.710361989466477,-14.871629733181477,-8.707409133107426
0.2922323434517699,-6.849730619633716,-14.95870382451255,-8.551752132518459
0.22373503725543276,-6.9614664984641905,-15.044221345837736,-8.378228505432338
0.15412037227079084,-7.0470362118130225,-15.128003630892058,-8.188850998413766
0.08365001015266062,-7.107998190498639,-15.209892140876196,-7.985524468547031
0.012570028247674225,-7.145924110604366,-15.289747385561666,-7.76998367539291
-0.05888921285836943,-7.162344687832742,-15.367447222315596,-7.543765142321527
-0.13051265973669685,-7.158717892720716,-15.44288487373881,-7.308207022125836
-0.20209983866390402,-7.13641579307116,-15.515966943960068,-7.064469690782286
-0.2734639965946156,-7.096725500493749,-15.586611640867892,-6.813569818052319
