th1 (rad),w1 (rad/s),th2 (rad),w2 (rad/s)
5.853255693585189,2.785780536992775,0.05304632345089261,1.528083790067406
5.881113498955117,2.8919423308620518,0.06832716135156666,1.3928276197113085
5.9100329222637376,2.9958438183624603,0.08225543754867976,1.2556141539877272
5.939991360447362,3.0972889181168495,0.09481157908855703,1.1169812470917475
5.970964249628531,3.1960217623357203,0.1059813915594745,0.9776031951919868
6.002924467251888,3.291708671266839,0.11575742351139437,0.8383126031399768
6.0358415539645565,3.383918534429823,0.12414054954279413,0.7001233687010517
6.069680739308855,3.4721027695031177,0.13114178322980466,0.5642530109909667
6.104401767003886,3.5555768906464142,0.13678431333971433,0.4321413296093568
6.139957535910351,3.6335068065648257,0.1411057266358079,0.3054608268353335
6.176292603975999,3.704904167762032,0.14416033490416122,0.18611263622608193
6.213341645653619,3.7686361063914147,0.14602146126642204,0.0762003003238777
6.251028006717533,3.8234550557693288,0.14678346426966082,-0.0220266348163011
6.289262557275226,3.8680533025341077,0.1465631979214978,-0.10626558234430718
6.327943090300567,3.901143814532185,0.14550054209805474,-0.17429212074854591
6.3669545284458895,3.9215634174302796,0.1437576208905693,-0.22412302747293156
6.406170162620192,3.9283872465878744,0.14151639061583998,-0.2541942336078481
6.445454035086071,3.921036594496166,0.1389744482797615,-0.2635268701972734
6.484664401031033,3.8993588250121403,0.13633917957778877,-0.25184961754913926
6.523657989281154,3.863660633391123,0.13382068340229739,-0.21964950022312968
6.562294595615065,3.814685152247287,0.1316241884000661,-0.16813690426521244
6.6004414471375386,3.753536607096201,0.12994281935741397,-0.09913010868503397
6.637976813208501,3.681568494137122,0.12895151827056364,-0.014882856005219033
6.674792498149872,3.6002579772956986,0.12880268971051145,0.08211132395214091
6.710795077922828,3.51108856804159,0.12962380295003287,0.18930490941595285
6.745905963603244,3.415456739628787,0.1315168520441924,0.3042483314890473
6.780060530999532,3.31460944662919,0.13455933535908285,0.4246967640686645
6.813206625465824,3.209611877634101,0.13880630299976948,0.548671785911051
6.845302744242165,3.101339938239508,0.14429302085888,0.674485277406415
6.87631614362456,2.9904900958762854,0.15103787363294413,0.8007359434893568
6.906221044583323,2.87759950998471,0.1590452330678377,0.9262886886117173
6.934997039683171,2.7630707857651386,0.16830811995395487,1.0502451886424629
6.962627747540822,2.6471974074297164,0.1788105718403795,1.171911603386249
6.989099721615119,2.5301874501411548,0.190529687874242,1.2907671649832761
7.014401596116531,2.4121843481754954,0.20343735952407474,1.4064356609523723
7.038523439598285,2.2932842962028426,0.21750171613359848,1.5186606454502767
7.0614562825603135,2.173550347683648,0.23268832258810124,1.6272844745838475
7.08319178603715,2.0530235365393206,0.24896116733393972,1.7322308520880911
7.103722021402543,1.9317314639124357,0.26628347585482065,1.833490379897586
7.123039336041668,1.8096948206695735,0.2846183796537965,1.931108548218628
7.141136284248364,1.6869322992430245,0.3039294651359828,2.025175611587464
7.158005607240794,1.5634643113462838,0.32418122125185744,2.1158178422165186
7.173640250354256,1.4393158862073492,0.3453393996740226,2.2031897062500967
7.18803340921633,1.314519085330696,0.3673712967365236,2.2874665593518877
7.201178600069637,1.1891152380299594,0.39024596233004244,2.368837499041777
7.213069752449937,1.0631572778499483,0.4139343373204602,2.4474980404493336
7.223701325228436,0.9367124423611286,0.4384093177249535,2.523642300742481
7.233068449652047,0.8098655848560898,0.4636457407323783,2.5974543890544677
7.241167105500608,0.6827233315742778,0.48962028462292295,2.6690987096364327
7.247994338816351,0.5554192952230425,0.5163112717192873,2.738708906036056
7.2535485317685815,0.4281205145556044,0.5436983607796478,2.8063752177697254
7.257829736914138,0.30103521633177394,0.5717621129573451,2.8721301085187796
7.260840089077456,0.17442187116960123,0.6004834140425329,2.9359321834304533
7.262584307789152,0.048599315404689536,0.6298427358768375,2.997648676041441
7.263070300943199,-0.07604258757889767,0.6598192226372519,3.0570371887453915
7.26230987506741,-0.19903269027243453,0.6903895945247058,3.113727943929465
7.260319548164685,-0.3198101882360792,0.7215268739640005,3.1672085501047906
7.257121446282325,-0.43772022759418666,0.7531989594650484,3.2168141579847696
7.252744244006383,-0.5520161778073498,0.7853671010448962,3.2617267313947584
7.24722408222831,-0.6618716173226173,0.8179843683588437,3.300987713433232
7.2406053660550835,-0.7664049219062181,0.850994245493176,3.3335282208166688
7.232941316836022,-0.8647183295046115,0.8843295277013428,3.358219573970016
7.224294133540975,-0.9559512339350118,0.9179117234410429,3.3739441101246346
7.214734621201625,-1.03934428715374,0.9516511645422893,3.379681886167199
7.204341178330088,-1.1143072321566279,0.9854479834039612,3.374603817788052
7.193198106008522,-1.1804803646499218,1.0191940215818418,3.3581575533534145
7.1813933023620224,-1.2377785065370515,1.052775597115376,3.330130845129961
7.169015517296652,-1.2864083584800856,1.0860769055666757,3.2906797440622437
7.156151433711851,-1.3268550022945924,1.1189837030072982,3.2403155301696542
7.1428828836889044,-1.359839761569081,1.1513868583089948,3.1798530243855305
7.129284486073214,-1.3862574339888043,1.18318538855285,3.1103308496338062
7.115421911733326,-1.4071041802370283,1.2142886970491882,3.0329187111851015
7.101350869930956,-1.4234073540320573,1.2446178841610391,2.948826827892549
7.087116796390635,-1.4361658925492058,1.2741061524399646,2.859229085019833
7.072755137465143,-1.4463059657969086,1.302698443290163,2.7652062121573016
7.058292077807174,-1.4546528278961564,1.330350505411736,2.6677102461945186
7.043745549528213,-1.4619171104315927,1.3570276078736812,2.5675479217403274
7.029126378423896,-1.4686923903453455,1.3827030870910844,2.4653787628095283
7.014439454520443,-1.4754605403063796,1.4073568747191796,2.3617232374770576
6.999684849117379,-1.482601733943011,1.4309741070939501,2.2569768449257017
6.98485883177795,-1.4904066569341947,1.453543875543207,2.151426924895463
6.969954765208608,-1.4990892036526677,1.4750581447921618,2.045269958373429
6.9549638731720815,-1.5087985737798637,1.495510844375896,1.9386279741423766
6.939875887434283,-1.5196301704777753,1.5148971241173197,1.8315633193674508
6.924679585729505,-1.5316350414586042,1.5332127573109942,1.7240914964157283
6.9093632353149195,-1.5448278214510305,1.5504536722751514,1.6161920476314822
6.893914957100409,-1.559193260460862,1.5666155927514662,1.5078176279066091
6.878323024495801,-1.574691485577595,1.5816937690305324,1.39890148055706
6.862576109640025,-1.5912621675889227,1.595682783836103,1.2893635557495842
6.846663487964135,-1.6088277636991253,1.6085764193935987,1.17911550430544
6.830575210327144,-1.6272959952154102,1.6203675744366532,1.0680647576431668
6.81430225037499,-1.64656170114038,1.6310482220130849,0.9561178759777467
6.797836633363586,-1.6665081893335973,1.6406094007728624,0.8431833169675479
6.7811715514702495,-1.6870081885558836,1.649041233942538,0.7291737486299235
6.764301469584691,-1.7079244883850184,1.6563329714288373,0.6140080048419285
6.747222224700841,-1.7291103400846346,1.6624730514772565,0.4976127595221871
6.729931121299995,-1.7504096800147855,1.6674491790724784,0.3799239765866429
6.7124270244998465,-1.7716572278810172,1.6712484188383447,0.26088817668530706
6.694710452221036,-1.7926785047232965,1.6738573006051978,0.1404635481758095
6.676783667173804,-1.813289809712163,1.6752619360869558,0.018620918388399493
6.658650769076682,-1.8332981902171985,1.6754481452708399,-0.1046554083564476
6.64031778717451,-1.8525014359335081,1.6744015911872754,-0.22936694758469614
6.621792772815175,-1.8706881248135916,1.6721079217114285,-0.35550047472648266
6.603085891567039,-1.8876377459009022,1.6685529169641637,-0.48302762236889174
6.58420951410803,-1.9031209216704328,1.6637226407404748,-0.6119046532326484
6.565178304891326,-1.9168997499487905,1.6576035942081484,-0.7420724309587423
6.546009307391838,-1.9287282827332122,1.650182869898561,-0.8734566133689918
6.5267220245645055,-1.9383531561012461,1.641448303764871,-1.0059680944565397
6.507338493003493,-1.945514381770258,1.6313886228203056,-1.1395037219465602
6.487883349185791,-1.9499463066248206,1.61999358560084,-1.2739473168183557
6.468383886119542,-1.951378741606114,1.6072541124326565,-1.4091710196785383
6.448870098703481,-1.9495382557094638,1.593162402235871,-1.5450369863196758
6.429374716146387,-1.9441496244601482,1.5777120323726743,-1.681399451216035
6.409933219901785,-1.9349374151713192,1.560898037860514,-1.8181071731622351
6.390583845750072,-1.9216276836148551,1.5427169661288915,-1.9550062718630254
6.371367568913923,-1.9039497485890562,1.5231669034102613,-2.091943458198949
6.352328071428032,-1.8816380024309673,1.5022474688282719,-2.228769654349372
6.333511691403722,-1.854433707033057,1.4799597722847782,-2.3653439932396636
6.314967354333392,-1.8220867166730592,1.4563063323523815,-2.501538180241764
6.296746487166661,-1.7843570612899182,1.4312909505499638,-2.637241194097047
6.278902916553762,-1.7410163171206747,1.4049185386089933,-2.772364299081646
6.261492753382555,-1.691848686276175,1.3771948956181768,-2.9068463369368382
6.244574266519793,-1.6366517033408394,1.3481264322488085,-3.0406592654403446
6.228207749486384,-1.5752364859439352,1.317719839594405,-3.1738139109915164
6.212455384626945,-1.5074274480496626,1.2859817004844898,-3.3063659053122336
6.197381110146448,-1.4330614001624888,1.2529180414313674,-3.4384217810661384
6.183050496144824,-1.35198597069297,1.218533823620706,-3.5701452070523754
6.169530636437894,-1.2640572987649072,1.1828323715501823,-3.701763348940268
6.156890063450246,-1.1691369729296017,1.1458147380607797,-3.8335733432174495
6.14519869372095,-1.067088226087693,1.1074790046286052,-3.9659488649356924
6.134527811460073,-0.9577714501596429,1.0678195159792483,-4.099346745419424
6.124950096958476,-0.8410391741844281,1.026826048525054,-4.234313540510598
6.116539705216632,-0.7167307721635435,0.984482913119948,-4.3714918408479315
6.1093723974949965,-0.5846673575963547,0.9407679947114687,-4.511625917217151
6.103525723919033,-0.44464762163686833,0.8956517355392971,-4.655565948453629
6.099079247702664,-0.29644584769570004,0.8490960760547608,-4.804269494210752
6.096114789225707,-0.13981409299375355,0.8010533811126532,-4.9587979027696605
6.094716648295769,0.02550826740489273,0.7514654020849566,-5.120303753420149
6.094971730969818,0.19977253471212694,0.7002623645507551,-5.290002869170049
6.096969456316939,0.3831781539137421,0.6473623358590546,-5.4691203808503115
6.100801237856077,0.5757970909539682,0.5926711320505514,-5.658794090595735
6.106559208765616,0.7774460496117597,0.5360831911445941,-5.859909246233468
6.114333669261733,0.9874788803539071,0.47748409868225944,-6.072826579900198
6.124208458065272,1.204462396086483,0.41675583288325746,-6.296951951698803
6.136253082026137,1.4256949703423962,0.3537863133662694,-6.530088931576652
6.150510031729561,1.6465443930784465,0.2884854240505029,-6.767536357726846
6.166975475660346,1.859652378664905,0.22081006047323448,-7.000986518935051
6.185571999446995,2.0542280033691274,0.15080019528388397,-7.217515920033577
6.206114279480686,2.2159585294775175,0.07862503608354819,-7.399379592447041
6.228273864775462,2.3283739001796695,0.0046312401590777735,-7.525747045477516
6.251557603777258,2.376337909193164,-0.07062623029569738,-7.5773060106713555
6.27532098286919,2.351078385983054,-0.14639929040241095,-7.542948393923941
6.298831766729021,2.254179528036115,-0.22182877434165038,-7.425048806537373
6.321373562009382,2.0975124984364526,-0.2960792624070241,-7.239263475310921
6.342348686993746,1.8988328782274004,-0.3684718971601333,-7.008552956856048
6.361337015776019,1.6761135172794737,-0.4385574267286938,-6.755638036540458
6.378098150948814,1.4437968716519096,-0.5061138070940984,-6.4981574670970605
6.392536119665333,1.2117397084461505,-0.571095381765069,-6.247470512003218
6.404653516749795,0.9858462896041829,-0.6335700868851012,-6.009673318403013
6.4145119796458365,0.7692234850698638,-0.6936668200691313,-5.787239715305308
6.422204214496535,0.5632244900331796,-0.7515392172221843,-5.5804529796315805
6.427836459396866,0.3681982244486137,-0.8073437470185001,-5.38840866029352
6.4315184416413524,0.18396779575953942,-0.8612278336214353,-5.209639370354075
6.433358119598948,0.01011454055453867,-0.913324227324976,-5.042475479856802
6.433459265004493,-0.15386260635588156,-0.963748982123544,-4.885240583237502
6.431920638940934,-0.30846294155184684,-1.012601387955919,-4.736350009145028
6.428836009525416,-0.4541434667548856,-1.0599648880473693,-4.594354931517763
6.424294574857867,-0.5913029411062634,-1.105908437362547,-4.457957180539908
6.418381545446804,-0.7202793342365106,-1.1504880091679461,-4.326009039306831
6.411178752104439,-0.8413542463151762,-1.1937480995610144,-4.197505928458169
6.402765209641287,-0.9547606403878113,-1.2357231588455961,-4.071576216033234
6.393217603237409,-1.0606918363281326,-1.2764389210059284,-3.9474703260951327
6.382610684874128,-1.1593106331615943,-1.3159136242668796,-3.8245501785982787
6.371017578542512,-1.25075794807498,-1.3541591260528625,-3.702279376838814
6.358509999061762,-1.3351606557372866,-1.3911819198212507,-3.580214238784045
6.3451583925043895,-1.4126384785354922,-1.4269840622090912,-3.457995614099031
6.331032007719035,-1.4833098731065664,-1.4615640183500815,-3.335341365589266
6.316198908987969,-1.547296913080071,-1.4949174320059742,-3.2120393799152582
6.300725939857169,-1.6047292002415976,-1.5270378258051267,-3.08794098384611
6.2846786478547525,-1.6557468563643865,-1.5579172356435878,-2.9629546653721563
6.268121179291109,-1.7005026611140739,-1.5875467822973093,-2.8370400259545914
6.251116152679968,-1.739163410486472,-1.6159171825568552,-2.710201916712909
6.233724518575103,-1.771910576531634,-1.6430192017239844,-2.5824847350848574
6.216005412809787,-1.7989403532365351,-1.668844049074833,-2.453966878268857
6.1980160092774215,-1.8204631756120624,-1.6933837178575217,-2.3247553651289605
6.179811377521301,-1.836702799350641,-1.7166312715088112,-2.1949806492109785
6.161444349527795,-1.847895026964476,-1.738581078000921,-2.0647916523705248
6.142965399258149,-1.8542861631952043,-1.7592289945246262,-1.934351051705898
6.124422537626198,-1.8561312778736658,-1.7785725050416852,-1.8038308525728288
6.1058612248474615,-1.8536923485259313,-1.7966108135674135,-1.6734082780264783
6.0873243013622025,-1.847236348129296,-1.8133448963476784,-1.5432620006814208
6.068851937880909,-1.8370333358006046,-1.8287775163544926,-1.4135687372668084
6.050481604522903,-1.8233546001325598,-1.8429132037271607,-1.284500219597057
6.032248058521578,-1.806470896652632,-1.8557582059231312,-1.1562205487326338
6.014183349555052,-1.7866508127107714,-1.8673204114104576,-1.0288839321572756
5.9963168414279435,-1.7641592852211525,-1.8776092507320303,-0.9026327971635424
5.978675248575732,-1.7392562892677772,-1.8866355787036657,-0.7775962675652939
5.961282685683055,-1.7121957087733737,-1.8944115413793186,-0.6538889855253177
5.944160728595321,-1.6832243943267058,-1.9009504312345717,-0.5316102558204996
5.927328484652054,-1.6525814079295535,-1.9062665337927767,-0.4108434863331512
5.9108026705727585,-1.6204974498919569,-1.9103749686561082,-0.2916558959758459
5.894597696073839,-1.5871944593734948,-1.9132915276158666,-0.17409845960907838
5.878725751480104,-1.552885377114101,-1.9150325122119574,-0.05820605874482679
5.8631968977089635,-1.5177740566733593,-1.9156145727994056,0.05600219313131902
5.84801915714223,-1.4820553089382875,-1.9150545508680925,0.16852248103443782
5.833198604052847,-1.4459150636892757,-1.9133693260577482,0.2793657038037558
5.818739453415954,-1.40953063154602,-1.9105756690197107,0.3885568014622891
5.804644147100494,-1.3730710495583345,-1.9066901010050878,0.49613401953348146
5.790913436604911,-1.3366974939662688,-1.901728760809753,0.6021481326643421
5.777546461665248,-1.3005637441351336,-1.8957072794831096,0.7066616471103023
5.764540824223897,-1.2648166822796942,-1.8886406630120065,0.8097479986851874
5.7518926574011005,-1.2295968142351343,-1.8805431830251547,0.9114907597155271
5.739596689258749,-1.1950387971183238,-1.8714282754279994,1.0119828653838816
5.7276463012875665,-1.1612719601587211,-1.8613084467741605,1.1113258665968069
5.716033581685979,-1.1284208051679723,-1.8501951881081924,1.2096292131362312
5.704749373634299,-1.0966054729582186,-1.83809889597683,1.30700956728232
5.693783318904717,-1.0659421613970126,-1.825028800304007,1.4035901442280003
5.683123897290747,-1.0365434795696453,-1.810992898861727,1.4995000712936302
5.67275846249505,-1.008518720550661,-1.7959978981487907,1.5948737529973798
5.662673275289544,-0.9819740323744479,-1.780049160618817,1.689850223184523
5.652853534965799,-0.9570124627049851,-1.7631506583869716,1.7845724583359597
5.643283410338749,-0.9337338471463081,-1.745304933803612,1.879186617444455
5.633946071867286,-0.9122345037498867,-1.7265130676291673,1.9738411629445956
5.624823726829788,-0.8926066866266453,-1.7067746559997214,2.068685803468755
5.6158976599635215,-0.8749377391394733,-1.686087797965034,2.1638701819057604
5.607148282572127,-0.8593088713364361,-1.6644490961459764,2.2595422104612934
5.598555193858763,-0.8457934664301424,-1.6418536740413634,2.355845927155613
5.5900972591944615,-0.8344547965874266,-1.6182952147698073,2.4529187144120996
5.581752711228587,-0.825342998556334,-1.5937660276256864,2.550887679188853
5.5734992812430235,-0.8184911245959331,-1.568257150833798,2.649864945027185
5.565314369997064,-0.8139100444671418,-1.541758501383526,2.749941549974665
5.557175269552393,-0.8115819320863841,-1.5142590858837794,2.851179583063298
5.549059450231529,-0.8114520306910805,-1.4857472900531465,2.9536021318200625
5.540944929924619,-0.8134183622585767,-1.456211268734946,3.057180565890308
5.532810746302033,-0.8173190465805539,-1.425639463076043,3.161818668191448
5.524637555836228,-0.822916949118324,-1.3940212763941284,3.267333179741569
5.516408386345045,-0.8298815247905781,-1.3613479445967127,3.373430501086828
5.5081095710971395,-0.8377680244525638,-1.3276136395858444,3.479679669236886
5.499731890852614,-0.8459947559660667,-1.2928168428934756,3.5854824048159806
5.491271943292953,-0.8538199237918334,-1.2569620188453159,3.6900421118515254
5.482733744055035,-0.8603207716778913,-1.2200615977268006,3.7923352998244804
5.474130536338256,-0.8643793082336115,-1.1821382447285558,3.8910909716773885
5.46548674325592,-0.8646806223905882,-1.1432273350117819,3.984785843570376
5.456839937032014,-0.8597312258672841,-1.103379476576078,4.071665206045802
5.448242624773341,-0.8479051507312028,-1.06266282451562,4.149799669015527
5.439763573266029,-0.8275235372159581,-1.0211648278254648,4.217185408772527
5.43148833789387,-0.796968120528899,-0.9789929737377395,4.271888436034617
5.423518656688581,-0.7548202199777806,-0.9362740893773933,4.31222164107953
5.415970454488804,-0.7000062696294597,-0.893151872966598,4.336929292463515
5.408970391792509,-0.6319225348833819,-0.8497825800419629,4.345342604506282
5.4026511664436745,-0.5505103425409248,-0.8063291539969001,4.337468570628709
5.3971460630182655,-0.45626192227814355,-0.762954468290613,4.313986457853177
5.392583443795484,-0.35015408311003215,-0.7198146037120812,4.276149652996295
5.389081902964384,-0.23352581740109762,-0.6770531071821182,4.225615835460763
5.386746644790374,-0.10792858123408758,-0.6347969488275106,4.16424494780908
5.385667358978033,0.025020057859707567,-0.5931544993494198,4.0939062438972655
5.3859175595566295,0.16375629944448405,-0.5522154369104472,4.016324720035838
5.387555122551074,0.30685239962448574,-0.5120521897100888,3.9329806366659
5.3906236465473185,0.45306127177491834,-0.4727223833434298,3.845060949544954
5.395154259265068,0.6013302985642093,-0.43427177384798027,3.7534522953418463
5.40116756225071,0.7507938915186962,-0.3967372508945618,3.658762014923833
5.408675501165897,0.9007538558029037,-0.36014963074532347,3.561354717241955
