th1 (rad),w1 (rad/s),th2 (rad),w2 (rad/s),a1 (rad/s^2),a2 (rad/s^2)
0.38755737312722055,-0.30912427036640594,0.0018177577151047796,0.3254817282245412,-6.538469896603284,6.076164895733788
0.3844661304235565,-0.37450896933243877,0.005072574997350192,0.38624337718187907,-6.514965072986101,6.053916205194353
0.3807210407302321,-0.4396586200622998,0.008935008769168983,0.4467825392338226,-6.483836900435703,6.023521176704215
0.3763244545296091,-0.5044969890666569,0.01340283416150721,0.5070177510008648,-6.44390692784799,5.983185717593905
0.37127948463894256,-0.5689360583451367,0.018473011671515858,0.5668496081768039,-6.393773139363153,5.930779110761578
0.3655901240554912,-0.6328737897387683,0.024141507753283897,0.6261573992844196,-6.331803788841813,5.8638268313049435
0.3592613861581035,-0.6961918276271865,0.030403081746128092,0.684795667597469,-6.256136280227585,5.779510741386237
0.35229946788183164,-0.7587531904294623,0.037251038422102783,0.7425907750113314,-6.164684062365038,5.674680862261512
0.344711935977537,-0.8204000310531127,0.0446769461722161,0.7993375836339466,-6.055155127768747,5.545883802491475
0.3365079356670059,-0.8809515823308002,0.052670322008555565,0.8547964216588613,-5.925086243390027,5.389413686112441
0.32769841984369785,-0.9402024447647004,0.06121828622514418,0.9086905585199857,-5.771897355230978,5.201391873029119
0.31829639539605087,-0.9979214183170102,0.07030519181034403,0.9607044772502769,-5.5929704976207475,4.977881613442452
0.30831718121288076,-1.0538511232932177,0.0799122365828468,1.0104832933847014,-5.385756750197114,4.715042672546553
0.29777866997994856,-1.107708690795189,0.0900170695166938,1.0576337201101669,-5.147913044993656,4.409328509944539
0.28670158307199667,-1.1591878212451254,0.10059340671779547,1.1017270052096122,-4.8774676916037984,4.057724457931167
0.2751097048595454,-1.2079624981611634,0.11161067676989159,1.142304249788924,-4.573009251905364,3.6580193577038886
0.26303007987793375,-1.253692590680217,0.12303371926778083,1.1788844433659629,-4.233888011141628,3.209095495233325
0.2504931539711316,-1.2960314707916332,0.13482256370144047,1.210975398318296,-3.8604133093719972,2.7112132000309406
0.23753283926321525,-1.334635603885353,0.14693231768462342,1.2380875303186054,-3.4540244463052687,2.1662585790478412
0.22418648322436172,-1.3691758483484058,0.15931319298780947,1.2597501161090838,-3.0174092184646284,1.577917619801507
0.21049472474087766,-1.399349940533052,0.1719106941489003,1.2755292923070989,-2.554544045112519,0.951739649309271
0.19650122533554715,-1.4248953809841773,0.1846659870719713,1.2850466888001917,-2.0706344645027555,0.29505983074633674
0.18225227152570536,-1.4456017256292049,0.19751645395997322,1.287997287107655,-1.571945027886166,-0.3832352673178306
0.1677962542694133,-1.4613211759080664,0.21039642683104978,1.2841649344344768,-1.0655223673040892,-1.0730942530674652
0.15318304251033263,-1.4719763995811073,0.22323807617539454,1.273433991903802,-0.5588319716884219,-1.7638112293341084
0.13846327851452156,-1.4775647192979915,0.23597241609443256,1.255795879610461,-0.05934432984861283,-2.444610014566061
0.12368763132154165,-1.4781581625964777,0.24853037489053717,1.2313497794648003,0.4258842040880198,-3.1052385854560685
0.10890604969557686,-1.4738993205555975,0.26084387268518516,1.2002973936102397,0.8905888749905703,-3.736507573152419
0.09416705649002088,-1.4649934318056919,0.27284684662128755,1.1629323178787154,1.3295924537186372,-4.330716358553185
0.07951712217196397,-1.4516975072685054,0.28447616980007473,1.1196251542931837,1.7389937185110087,-4.8819297426949975
0.06500014709927891,-1.4343075700833954,0.2956724213430066,1.0708058568662338,2.1162398885229265,-5.386092382523973
0.050657071398444956,-1.4131451711981662,0.30638047991166895,1.016944933040994,2.460091015840248,-5.840991508021793
0.03652561968646329,-1.3885442610397638,0.31654992924207886,0.9585350179607761,2.7704969635783256,-6.246096243710226
0.02264017707606565,-1.3608392914039806,0.32613527942168663,0.8960740555236738,3.0484145075334026,-6.60231170137309
0.009031784162025845,-1.3303551463286467,0.33509601997692334,0.8300509385099429,3.2955932739296934,-6.911687829124434
-0.004271767301260622,-1.2973992135893497,0.34339652936202275,0.7609340602186986,3.514355915658096,-7.1771185212413595
-0.017245759437154118,-1.2622556544327688,0.35100586996420974,0.689162875006285,3.707391972478111,-7.402058273556681
-0.029868315981481805,-1.2251817347079876,0.35789749871427257,0.6151422922707183,3.8775780522393286,-7.590274219182701
-0.04212013332856168,-1.1864059541855942,0.36404892163697977,0.5392395500788912,4.027830663719676,-7.745642595725139
-0.05398419287041763,-1.1461276475483975,0.3694413171377687,0.46178312412163985,4.160993004540347,-7.871991672511395
-0.0654454693459016,-1.104517717502994,0.3740591483789851,0.3830632073965259,4.279753522298879,-7.972988280267391
-0.07649064652093154,-1.0617201822800053,0.37788978045295035,0.303333324593852,4.386592027478043,-8.052062209657157
-0.0871078483437316,-1.0178542620052249,0.38092311369888887,0.2228127024972804,4.4837482565321904,-8.112361485203214
-0.09728639096378384,-0.973016779439903,0.3831512407238617,0.14168908764524826,4.57320771960397,-8.156731402051573
-0.10701655875818288,-0.9272847022438633,0.38456813160031417,0.06012177362473253,4.656700103084599,-8.187710795262547
-0.11628940578062151,-0.8807177012130173,0.3851693493365615,-0.021755334327892936,4.735706182343586,-8.207539946346458
-0.12509658279275168,-0.8333606393895814,0.38495179599328255,-0.10383073379135752,4.811469958881804,-8.218175574772328
-0.1334301891866475,-0.7852459398007633,0.38391348865536895,-0.18601248953908078,4.885013459756404,-8.221309360449718
-0.14128264858465514,-0.7363958052031992,0.3820533637599781,-0.268225583143578,4.957152267355095,-8.21838731506573
-0.14864660663668713,-0.6868242825296483,0.37937110792854234,-0.35040945629423526,5.028510361717394,-8.210628033120614
-0.15551484946198363,-0.6365391789124744,0.37586701336559997,-0.4325157366254414,5.099533254832375,-8.19903840564074
-0.16188024125110836,-0.5855438463641506,0.3715418559993455,-0.5145061206818489,5.17049868801634,-8.184425785877167
-0.16773567971474987,-0.5338388594839871,0.366396794792527,-0.5963503785406206,5.241524366476388,-8.167405879645923
-0.17307406830958974,-0.4814236158192232,0.3604332910071208,-0.6780244373370798,5.312572338066201,-8.148405818557812
-0.17788830446778198,-0.4282978924385612,0.35365304663374997,-0.759508495522658,5.383449704387303,-8.12766198718595
-0.1821712833921676,-0.37446339539468815,0.3460579616785234,-0.8407851153945175,5.453805399377166,-8.105212239172982
-0.18591591734611448,-0.3199253414009165,0.3376501105245782,-0.9218372377862474,5.523122800579789,-8.080882175839145
-0.18911517076012366,-0.2646941133951186,0.3284317381467157,-1.002646059544639,5.590707969274903,-8.054265198368999
-0.19176211189407485,-0.2087870337023696,0.31840527755126935,-1.083188711528329,5.6556733674768145,-8.024696108385783
-0.19384998223109856,-0.15223030002760143,0.3075733904359861,-1.1634356726121868,5.716916996220958,-7.991218154251926
-0.19537228523137457,-0.09506113006539185,0.29593903370986424,-1.243347854154706,5.773097069901305,-7.952543642314269
-0.19632289653202847,-0.0373301593663788,0.28350555516831716,-1.3228732905778489,5.822602622453346,-7.907008604569075
-0.19669619812569225,0.020895866858154657,0.2702768222625387,-1.4019433766235396,5.863520878155535,-7.852522600071842
-0.1964872394571107,0.07953107563971001,0.2562573884963033,-1.4804686026242582,5.893602866178333,-7.786515602005562
-0.19569192870071359,0.13846710430149334,0.24145270247006073,-1.5583337586443138,5.910229672091645,-7.705885168485853
-0.19430725765769866,0.19756940102240977,0.22586936488361758,-1.6353926103291723,5.910382956234841,-7.606948792166727
-0.19233156364747456,0.25667323058475816,0.20951543878032586,-1.7114620982508395,5.890624962999862,-7.485408524527908
-0.18976483134162697,0.3155794802147568,0.19240081779781745,-1.7863161834961185,5.84709518298154,-7.336337662934707
-0.1866090365394794,0.37405043204457217,0.17453765596285625,-1.8596795601254656,5.775533005571517,-7.154202333616179
-0.18286853221903368,0.4318057621002873,0.1559408603616016,-1.9312215834616275,5.671337854578614,-6.932933853456693
-0.1785504745980308,0.4885191406460735,0.1366286445269853,-2.0005509219961946,5.5296799530257426,-6.666070151749821
-0.17366528319157007,0.543815940176331,0.11662313530702337,-2.0672116235136926,5.3456752506818095,-6.346985228261308
-0.16822712378980675,0.5972726926831491,0.09595101907188644,-2.1306814757963055,5.114636107355236,-5.969223147450046
-0.16225439686297527,0.6484190537567014,0.07464420431392338,-2.190373707270806,4.832403796525045,-5.5269456672941875
-0.15577020632540825,0.6967430917219518,0.05274046724121532,-2.2456431639437477,4.495758609737243,-5.015488634866425
-0.14880277540818873,0.7417006778193242,0.03028403560177784,-2.295798050292412,4.102887769744026,-4.432000972152135
-0.1413857686299955,0.7827295555167645,0.007326055098853718,-2.3401180600139333,3.653871370933217,-3.7761125758080683
-0.13355847307482785,0.8192682692260966,-0.016075125501285616,-2.377879185772014,3.1511252213123284,-3.050547940699383
-0.12536579038256687,0.85077952143922,-0.03985391735900576,-2.4083846651790077,2.5997223702370205,-2.26157849897343
-0.11685799516817467,0.8767767451415902,-0.06393776401079584,-2.431000450168742,2.0075097405947506,-1.4191988543192404
-0.10809022771675877,0.8968518425475377,-0.08824776851248327,-2.4451924387119344,1.3849497954773924,-0.5369301921139159
-0.0991217092912834,0.9107013405023117,-0.1126996928996026,-2.4505617406330735,0.7446529481560077,0.3687970965915758
-0.09001469588626029,0.9181478699838718,-0.13720531030593333,-2.4468737696671576,0.10062070793590973,1.2796552459751556
-0.08083321718642157,0.9191540770632308,-0.1616740480026049,-2.434077217207406,-0.53271976302203,2.176715882252673
-0.07164167641578927,0.9138268794330106,-0.18601482017467896,-2.4123100583848793,-1.1415595874638078,3.041854441414681
-0.06250340762145916,0.9024112835583725,-0.21013792075852775,-2.3818915139707326,-1.713679019459361,3.859055544678972
-0.05347929478587543,0.885274493363779,-0.23395683589823507,-2.343300958523943,-2.2392082774859574,4.615432871661674
-0.04462654985223764,0.8628824105889193,-0.2573898454834745,-2.2971466298073264,-2.7110878963320633,5.301840862654209
-0.03599772574634845,0.8357715316255987,-0.2803613117815478,-2.2441282211807843,-3.1252011902754835,5.913041970141054
-0.02764001043009246,0.8045195197228439,-0.30280259399335563,-2.1849978014793736,-3.4802118588831963,6.447475711016875
-0.01959481523286402,0.7697174011340119,-0.32465257200814934,-2.1205230443692047,-3.777182186911799,6.906733356302962
-0.011897641221523902,0.7319455792648939,-0.3458578024518414,-2.051455710806175,-4.019065002160247,7.2948656943005
-0.004578185428874963,0.6917549292432914,-0.36637235955990316,-1.97850705386317,-4.210157766148727,7.61764411506533
0.0023393638635579514,0.6496533515818042,-0.38615743009853487,-1.9023306127125166,-4.3555876531943,7.881868082839778
0.008835897379375993,0.6060974750498611,-0.40518073622566003,-1.8235119318841189,-4.460871267158641,8.094777346479253
0.014896872129874604,0.5614887623782747,-0.42341585554450123,-1.7425641584193263,-4.531568912452073,8.263594780832964
0.020511759753657353,0.516173073253754,-0.44084149712869447,-1.6599282106109967,-4.573035094429212,8.395200988513848
0.025673490486194894,0.4704427223094618,-0.4574407792348044,-1.5759762007258582,-4.590255316289509,8.495926199039195
0.030377917709289513,0.4245401691465667,-0.473200541242063,-1.4910169387354664,-4.587753526426169,8.57143749365323
0.03462331940075518,0.37866263388230503,-0.4881107106294177,-1.405302563798934,-4.569553177383051,8.62669775235414
0.038409945739578226,0.3329671021084745,-0.5021637362674071,-1.3190355862753926,-4.539176124419442,8.665974666025013
0.04173961676066297,0.2875753408642801,-0.515354092130161,-1.2323758396151425,-4.499666162739211,8.692881820911689
0.04461537016930577,0.242578679236888,-0.5276778505263124,-1.1454470214060257,-4.453626945577111,8.710437976741066
0.04704115696167465,0.1980424097811169,-0.5391323207403727,-1.058342641638615,-4.40326679418874,8.721134488896471
0.04902158105948582,0.1540097418392295,-0.5497157471567587,-0.9711312967496503,-4.350445246501037,8.72700402895945
0.05056167847787812,0.11050528937421913,-0.5594270601242552,-0.8838612564600558,-4.2967180196752395,8.729686247422956
0.05166673137162031,0.06753810917746675,-0.5682656726888559,-0.7965643939858262,-4.243378411506232,8.730487845764006
0.05234211246339498,0.025104325062404433,-0.5762313166287141,-0.7092595155281862,-4.191494110893068,8.730435790849262
0.05259315571401902,-0.01681061604652624,-0.5833239117839959,-0.6219551576196936,-4.141939015120702,8.730323235509754
0.05242504955355376,-0.05823000619773326,-0.5895434633601928,-0.534651925264596,-4.095420042242342,8.730748218112804
0.051842749491576426,-0.09918420662015667,-0.5948899826128388,-0.447344443083468,-4.0524991480863655,8.732145494787634
0.05085090742537486,-0.13970919810102034,-0.5993634270436734,-0.36002298813559164,-4.013610862107721,8.734811983171939
0.049453815444364654,-0.17984530672209756,-0.6029636569250293,-0.2726748683038722,-3.9790756836176726,8.738926319556244
0.04765536237714368,-0.21963606355827428,-0.605690405608068,-0.18528560510830977,-3.949109657779075,8.744562989891717
0.04545900174156094,-0.259127160136065,-0.6075432616591511,-0.0978399752093926,-3.923830398421382,8.751701415124545
0.04286773014020029,-0.2983654641202788,-0.608521661411245,-0.010322961058147145,-3.9032597551950885,8.760230269918772
0.0398840754989975,-0.3373980616722297,-0.6086248910218265,0.07727934164104057,-3.887323244532845,8.7699472023528
0.036510094882275204,-0.3762712941175581,-0.607852097605416,0.16497881366456857,-3.875846283324534,8.780554008324359
0.03274738194109962,-0.41502975695080346,-0.6062023094687703,0.25278435374781216,-3.868547185833082,8.791647204110097
0.028597084371591586,-0.4537152288091343,-0.6036744659312921,0.34070082578891314,-3.8650268127177463,8.8027038395776
0.02405993208350024,-0.49236549693631176,-0.6002674576734031,0.4287278641846891,-3.864754701608031,8.813062310094486
0.019136277114137124,-0.5310130439523921,-0.5959801790315562,0.516858487285634,-3.867051469144536,8.821897867354293
0.013826146674613203,-0.5696835586438375,-0.5908115941586999,0.6050774659591769,-3.8710672658900513,8.82819251305886
0.008129311088174829,-0.608394231302738,-0.5847608194991081,0.6933593910897655,-3.875756104107219,8.830699006461982
0.0020453687751474494,-0.6471517923438102,-0.5778272255882104,0.7816663811543854,-3.879845986893613,8.827898858276455
-0.004426149148290652,-0.6859502522127463,-0.5700105617766665,0.86994536973715,-3.881804976893166,8.817954462318793
-0.011285651670418114,-0.724768301981678,-0.5613111080792951,0.9581249143603379,-3.8798036952658626,8.798655989630307
-0.018533334690234896,-0.7635663389343366,-0.5517298589356917,1.0461114742566409,-3.8716752892566046,8.76736441014883
-0.02616899807957826,-0.8022830918269026,-0.5412687441931253,1.1337851183581291,-3.854874711752615,8.720953100595434
-0.034191828997847284,-0.8408318389444287,-0.529930893009544,1.2209946493640835,-3.826440285389183,8.655752037166335
-0.04260014738729157,-0.8790962417983206,-0.5177209465159032,1.3075521697357468,-3.7829620362145087,8.567500641223956
-0.05139110980527478,-0.9169258621604657,-0.5046454248185457,1.3932271761479864,-3.7205632061990372,8.45131798740887
-0.06056036842687944,-0.954131494222456,-0.4907131530570658,1.4777403560220752,-3.634903649304917,8.301702243768803
-0.070101683369104,-0.9904805307155052,-0.47593574949684503,1.5607573784597633,-3.521216314671151,8.112574665277926
-0.08000648867625905,-1.0256926938622168,-0.4603281757122474,1.6418831251125425,-3.374390351328825,7.877386697299458
-0.09026341561488122,-1.059436597375505,-0.44390934446112196,1.720656992085537,-3.189115872376144,7.589310857748129
-0.10085778158863627,-1.0913277560992665,-0.4267027745402666,1.7965501006630182,-2.9601050832666167,7.241535664369076
-0.11177105914962894,-1.1209288069319325,-0.4087372735336364,1.868965457306709,-2.6824009672439653,6.827680103476391
-0.12298034721894827,-1.1477528166043722,-0.39004761896056933,1.9372422583414728,-2.3517765428517525,6.3423319394876625
-0.134457875384992,-1.1712705820328897,-0.3706751963771546,2.0006655777363496,-1.9652136798013635,5.781694898959382
-0.1461705812053209,-1.1909227188309033,-0.35066854059979113,2.0584825267259435,-1.521430466302553,5.144302265817475
-0.15807980839362992,-1.2061370234939288,-0.3300837153325317,2.1099255493841182,-1.0214021003420681,4.431721372636667
-0.1701411786285692,-1.2163510444973495,-0.30898445983869055,2.154242763110485,-0.4687970470416349,3.649141531825279
-0.1823046890735427,-1.221039014967766,-0.2874420322075857,2.190734178428738,0.12976452222113075,2.8057177932961976
-0.19451507922322034,-1.2197413697455546,-0.2655346904232983,2.2187913563617,0.7647201544928984,1.9145470671591196
-0.2067124929206759,-1.2120941682006257,-0.2433467768596813,2.237936827033291,1.4239051464751884,0.99219125117577
-0.21883343460268215,-1.1978551167358737,-0.2209674085893484,2.2478587395450487,2.0932334587119303,0.057734653773832134
-0.2308119857700409,-1.1769227821487545,-0.19848882119389794,2.248436086082787,2.7576615078364908,-0.8685427180688995
-0.24258121359152843,-1.1493461670703895,-0.17600446033307007,2.239750658902098,3.4023110594749584,-1.7667039927821786
-0.2540746752622323,-1.11532305647564,-0.1536069537440491,2.2220836189742763,4.013585695437306,-2.6186775467886987
-0.26522790582698874,-1.075187199521267,-0.13138611755430632,2.1958968435063895,4.580113136077383,-3.40953168036551
-0.2759797778222014,-1.0293860681604932,-0.10942714911924242,2.1618015267027344,5.093384965108766,-4.128326567486938
-0.2862736385038063,-0.9784522185094056,-0.08780913385221507,2.1205182610278652,5.548032921989043,-4.768462446393869
-0.2960581606889004,-0.9229718892895151,-0.06660395124193642,2.0728336365639266,5.941754768355974,-5.327545262896579
-0.30528787958179554,-0.8635543416059553,-0.045875614876297155,2.019558183934961,6.2749614711753825,-5.806871688207723
-0.3139234229978551,-0.8008047268942016,-0.025680033036947544,1.9614894670528837,6.550248602738336,-6.210677542749289
-0.3219314702667971,-0.7353022408668182,-0.006065138366418706,1.8993826916253909,6.771797391240258,-6.545296024399877
-0.3292844926754653,-0.6675842669544156,0.012928688549835202,1.833929731381392,6.9447923561623695,-6.818345551756657
-0.3359603353450094,-0.598136343392792,0.03126798586364912,1.7657462758638254,7.074913878808404,-7.0380268146657725
-0.3419416987789373,-0.5273872046047079,0.04892544862228738,1.6953660077171677,7.167935065675463,-7.212568205802505
-0.3472155708249844,-0.45570785394795327,0.06587910869945905,1.6232403256591428,7.229428902404443,-7.349826489470446
-0.3517726493644639,-0.3834135649239088,0.08211151195605049,1.5497420607644383,7.264576217496998,-7.457028351997742
-0.35560678501370296,-0.31076780274893884,0.09760893256369488,1.4751717772444608,7.278056923774334,-7.540627635920858
-0.35871446304119237,-0.2379872335111955,0.11236065033613948,1.3997655008852523,7.274004588040589,-7.606250022873212
-0.3610943353763043,-0.1652471876307896,0.126358305344992,1.3237030006565202,7.256005522486428,-7.658698779204538
-0.3627468072526122,-0.09268713240592531,0.13959533535155721,1.247116012864475,7.227126536855509,-7.701999459643181
-0.3636736785766715,-0.020415867037370222,0.15206649548020196,1.170096018268043,7.189959003590452,-7.739466467410609
-0.3638778372470452,0.051483722998534306,0.1637674556628824,1.092701353593937,7.146670235169828,-7.773779087307288
-0.36336300001705985,0.12295042535023258,0.17469446919882176,1.014963562720864,7.099056000608519,-7.807058565605254
-0.3621334957635575,0.19394098535631776,0.1848441048260304,0.9368929770648114,7.04859021051992,-7.840940872937403
