th1 (rad),w1 (rad/s),th2 (rad),w2 (rad/s),a1 (rad/s^2),a2 (rad/s^2)
0.4310597345597666,1.482761663465448,4.423882010629833,-2.921578754778813,-4.68019072630112,7.963976987772862
0.4458873511944211,1.4359597562024367,4.394666223082044,-2.8419389849010845,-4.480881175863762,7.700282488131977
0.46024694875644545,1.391150944443799,4.366246833233033,-2.7649361600197646,-4.310965156491829,7.446564312257069
0.4741584582008834,1.3480412928788807,4.338597471632835,-2.690470516897194,-4.169671158370253,7.198489482112124
0.48763887112967225,1.3063445812951782,4.311692766463863,-2.6184856220760726,-4.056364606512775,6.952228103410032
0.500702316942624,1.2657809352300504,4.285507910243102,-2.548963341041972,-3.9704615190187753,6.704458709232188
0.5133601262949246,1.2260763200398626,4.260018276832683,-2.48191875394965,-3.911350064707373,6.452383434053296
0.5256208894953232,1.1869628193927888,4.235199089293186,-2.417394919609117,-3.878321386848077,6.193747196397361
0.537490517689251,1.148179605524308,4.211025140097095,-2.3554574476451435,-3.8705115216999237,5.926855205139642
0.5489723137444942,1.1094744903073088,4.187470565620644,-2.296188895593747,-3.8868563835148415,5.650583496960846
0.5600670586475672,1.0706059264721604,4.164508676664706,-2.2396830606241385,-3.926061593553372,5.364377937484513
0.5707731179122888,1.0313453105366266,4.142111846058465,-2.1860392812492933,-3.9865884131438114,5.0682381979170605
0.581086571017655,0.9914794264051885,4.120251453245972,-2.1353568992701226,-4.066656251785634,4.762684611357421
0.5910013652817069,0.9508128638873321,4.098897884253271,-2.0877300531565486,-4.164261250101065,4.448707416147851
0.6005094939205802,0.9091702513863215,4.078020583721705,-2.04324297899507,-4.277209401903851,4.127699557726955
0.6096011964344434,0.866398157367283,4.057588153931754,-2.0019659834178007,-4.40316171015008,3.801375770893621
0.6182651780081163,0.8223665402657822,4.0375684940975765,-1.9639522257088646,-4.539688091130792,3.4716819312242118
0.6264888434107742,0.7769696593544743,4.017928971840488,-1.9292354063966226,-4.684326246248045,3.140699511239234
0.6342585400043189,0.7301263968919938,3.9986366177765214,-1.8978284112842303,-4.834641565791349,2.81055032377869
0.6415598039732389,0.6817799812340802,3.979658333663679,-1.8697229080464435,-4.988284320472184,2.4833065699462606
0.6483776037855796,0.6318971380293584,3.9609611045832147,-1.8448898423469808,-5.143040893801757,2.1609105866154588
0.6546965751658732,0.5804667290913409,3.942512206159745,-1.8232807364808263,-5.296876535072185,1.8451077169641912
0.6605012424567867,0.5274979637406191,3.924279398794937,-1.8048296593111843,-5.447967971034676,1.5373945470341719
0.6657762220941928,0.4730182840302723,3.9062311022018252,-1.7894557138408427,-5.594725102525816,1.2389835100297146
0.6705064049344955,0.41707103300501414,3.888336545063417,-1.7770658787405456,-5.735801839329494,0.9507836920179007
0.6746771152645457,0.3597130146117192,3.8705658862760113,-1.7675580418203665,-5.8700968231339266,0.673396681733509
0.6782742454106628,0.3010120463803799,3.8528903058578075,-1.7608240750030313,-5.996745312096446,0.40712555864120265
0.6812843658744666,0.24104459325941546,3.8352820651077772,-1.7567528194166193,-6.115103835810413,0.1519946332183301
0.6836948118070608,0.17989355490131131,3.817714536913611,-1.755232873084436,-6.224729384037051,-0.09222266664720367
0.6854937473560739,0.11764626106094081,3.8001622081827664,-1.756155099750908,-6.325354890950424,-0.32597036281844965
0.6866702099666834,0.05439271215143657,3.7826006571852573,-1.7594148033790926,-6.416862653261567,-0.5498733632587468
0.6872141370881978,-0.009775914381179099,3.7650065091514664,-1.7649135370116802,-6.499257113302405,-0.7646998762007134
0.687116377944386,-0.07476848551420315,3.7473573737813495,-1.7725605357736873,-6.572638183180391,-0.9713245336415249
0.686368693089244,-0.14049486734600708,3.7296317684236127,-1.7822737811101026,-6.637176014612863,-1.1706935541803287
0.6849637444157839,-0.20686662749213572,3.7118090306125118,-1.793980716651906,-6.69308785530708,-1.3637928852426786
0.6828950781408626,-0.27379750604520653,3.6938692234459927,-1.8076186455043328,-6.740617393752055,-1.5516199114876281
0.6801571030804106,-0.3412036799827271,3.6757930369909495,-1.823134844619209,-6.780016790222441,-1.7351590148415592
0.6767450662805833,-0.40900384788495153,3.6575616885447575,-1.8404864347676246,-6.811531427153863,-1.9153610288534724
0.6726550278017338,-0.4771191621564902,3.639156824197081,-1.8596400450561594,-6.83538728696163,-2.093126446108051
0.6678838361801689,-0.5454730350261066,3.6205604237465194,-1.88057130951724,-6.851780776951289,-2.2692921079279134
0.6624291058299078,-0.6139908427956194,3.6017547106513472,-1.9032642305965193,-6.8608707644975855,-2.4446210234661017
0.6562891974019516,-0.6825995504405953,3.582722068345382,-1.9277104408311803,-6.862772555581456,-2.6197949221668533
0.6494632018975456,-0.7512272759964098,3.56344496393707,-1.9539083900528489,-6.857553540371694,-2.7954091308891633
0.6419509291375814,-0.8198028114001268,3.543905880036542,-1.9818624813617405,-6.845230235471593,-2.9719693767105895
0.6337529010235802,-0.8882551137548427,3.5240872552229243,-2.0115821751288463,-6.8257664690183075,-3.1498901415015546
0.6248703498860317,-0.9565127784450258,3.503971433471636,-2.043081076543862,-6.799072478104538,-3.329494228911931
0.6153052221015815,-1.0245035032260712,3.4835406227061974,-2.076376018832981,-6.765004714881955,-3.511013243799563
0.6050601870693207,-1.0921535503748907,3.4627768625178676,-2.111486151270977,-6.72336618586759,-3.69458872487428
0.5941386515655719,-1.1593872122335667,3.4416620010051577,-2.1484320385197195,-6.673907176761458,-3.880273710987056
0.5825447794432362,-1.2261262840011813,3.4201776806199606,-2.18723477562959,-6.616326241435277,-4.0680345584982165
0.5702835166032244,-1.292289546415534,3.3983053328636648,-2.227915121214572,-6.550271358093694,-4.25775286067057
0.557360621139069,-1.357792259996471,3.376026181651519,-2.2704926498212776,-6.475341177751612,-4.4492273497879244
0.5437826985391043,-1.422545671773987,3.3533212551533063,-2.314984923319157,-6.3910863102297,-4.642175688882612
0.5295572418213644,-1.4864565348762842,3.330171405920115,-2.3614066802079834,-6.297010611190693,-4.836236083096439
0.5146926764726016,-1.5494266409881912,3.306557339118035,-2.4097690410389476,-6.192572450841063,-5.03096866158883
0.4991984100627197,-1.6113523654966018,3.2824596487076456,-2.4600787276548357,-6.077185961449983,-5.225856600530427
0.4830848864077537,-1.6721242251111017,3.2578588614310973,-2.51233729366014,-5.950222277515994,-5.420306977207279
0.46636364415664266,-1.7316264478862617,3.232735488494496,-2.5665403634322126,-5.811010800012406,-5.61365136583685
0.44904737967778,-1.7897365558863858,3.207070084860174,-2.6226768770905813,-5.6588405354382125,-5.805146208639844
0.4311500141189162,-1.846324961240768,3.180843316089268,-2.6807283391769796,-5.492961582123289,-5.993973022304639
0.4126867645065085,-1.9012545770620009,3.154036032697498,-2.740668069400026,-5.31258686101586,-6.179238531449849
0.3936742187358885,-1.9543804456721594,3.126629352003498,-2.8024604547145247,-5.116894216476108,-6.359974858125972
0.3741304142791669,-2.0055493878369206,3.0986047474563527,-2.8660602032957843,-4.9050290446112,-6.535139940652747
0.3540749204007977,-2.0545996782830325,3.0699441454233947,-2.931411602702312,-4.676107642239234,-6.703618406648706
0.3335289236179674,-2.101360754705425,3.0406300293963717,-2.998447786768799,-4.429221507982606,-6.864223183922655
0.31251531607091315,-2.145652969785251,3.010645551528684,-3.0670900186080257,-4.163442866923831,-7.015698198181699
0.29105878637306065,-2.1872873984544894,2.9799746513426038,-3.1372470005898427,-3.8778317295368327,-7.156722576520343
0.26918591238851575,-2.226065715749858,2.9486021813367054,-3.208814226355046,-3.5714448310590154,-7.285916847433989
0.24692525523101716,-2.261780164060448,2.9165140390731548,-3.281673394829386,-3.243346824755152,-7.401851697222678
0.22430745359041268,-2.2942136323079994,2.883697305124861,-3.355691911801613,-2.892624116028069,-7.503059903001381
0.2013653172673327,-2.32313987346828,2.850140386006845,-3.430722510831627,-2.5184017171304283,-7.588052106148363
0.1781339185326499,-2.3483238906395845,2.8158331608985288,-3.5066030318931105,-2.1198634662022964,-7.655337107071963
0.15465067962625406,-2.3695225253016075,2.780767130579598,-3.58315640296383,-1.6962758804799571,-7.703447341148284
0.130955454373238,-2.386485284106407,2.7449355665499593,-3.660190876375313,-1.247015792448747,-7.730970123876826
0.10709060153217392,-2.3989554420308945,2.708333657786206,-3.7375005776140813,-0.7716017406846797,-7.736585117710699
0.08310104711186497,-2.4066714594377414,2.670958652010065,-3.814866428791188,-0.269728847251511,-7.719108261686134
0.05903433251748756,-2.4093687479102566,2.6328099877221534,-3.8920575114080496,0.2586933925700128,-7.677542108875636
0.034940645038384996,-2.4067818139845563,2.593889412608073,-3.968832932496806,0.8135013525853835,-7.611132132098451
0.010872826898539432,-2.3986468004587023,2.554201083283105,-4.04494425381779,1.3942369187558499,-7.519428089556762
-0.01311364110604759,-2.384704431271144,2.513751640744927,-4.120138534713358,2.000108360863127,-7.402349004304759
-0.03696068541875903,-2.3647033476625126,2.4725502553977936,-4.194162024756405,2.6299547237724945,-7.2602497332041205
-0.060607718895384154,-2.338403800424788,2.4306086351502296,-4.2667645220884465,3.282216454380371,-7.093986525605536
-0.08399175689963204,-2.305581635880984,2.387940989929345,-4.337704387344502,3.9549153149136935,-6.904978457409843
-0.10704757325844187,-2.266032482731847,2.3445639460559002,-4.4067541719186005,4.645646818172209,-6.695261242490493
-0.12970789808576033,-2.219576014550125,2.300496404336714,-4.473706784343506,5.351588395666163,-6.467529747414495
-0.1519036582312616,-2.1660601305934635,2.2557593364932793,-4.538382081817651,6.069526223171971,-6.225165641799374
-0.17356425953719623,-2.1053648683617436,2.2103755156751026,-4.600633738235644,6.795903045616159,-5.972247067329842
-0.19461790822081368,-2.037405837905582,2.164369178292746,-4.660356208908943,7.526888458428821,-5.713538039908164
-0.2149919665998695,-1.9621369533212938,2.117765616203657,-4.7174915893080245,8.258471947063693,-5.454456511083151
-0.23461333613308244,-1.879552233850657,2.070590700310577,-4.772036154418856,8.986577634422982,-5.20102156086474
-0.253408858471589,-1.789686457506427,2.0228703387663884,-4.824046370027504,9.707198253538548,-4.959781980558221
-0.2713057230466533,-1.6926144749710417,1.9746298750661133,-4.873644189833086,10.41654449992277,-4.737730395401616
-0.2882318677963637,-1.588449029971814,1.9258934331677824,-4.9210214937871015,11.111204792572085,-4.54220890875631
-0.30411635809608184,-1.477336982046093,1.8766832182299114,-4.966443582874665,11.78830974948883,-4.380813852744081
-0.3188897279165428,-1.3594538845512047,1.8270187824011648,-5.010251721402105,12.445695500375919,-4.261308455741018
-0.33248426676205484,-1.2349969295474454,1.7769162651871437,-5.052864805959516,13.082060404217673,-4.1915529837509835
-0.3448342360575293,-1.1041763255052688,1.7263876171275485,-5.094780335797026,13.697110836432978,-4.1794621480324325
-0.35587599931258196,-0.967205217140939,1.6754398137695783,-5.13657495727735,14.291693412639448,-4.232999343339811
-0.36554805148399133,-0.8242882830145445,1.6240740641968048,-5.1789049507107485,14.867913212874123,-4.360216715961464
-0.3737909343141368,-0.6756091508858033,1.5722850146896974,-5.2225071178703635,15.429240101309892,-4.56934934653595
-0.3805470258229948,-0.5213167498727044,1.5200599435109938,-5.268200611335723,15.980607912463881,-4.868971189263574
-0.38576019332172184,-0.36151067074806553,1.4673779373976366,-5.316890323228359,16.528513891987682,-5.26822004446866
-0.3893753000292025,-0.19622553182818872,1.414209034165353,-5.369572523673045,17.081128120329073,-5.777098891288418
-0.3913375553474844,-0.025414250624897994,1.3605133089286225,-5.42734351258593,17.648424444912944,-6.406861346950286
-0.3915916978537334,0.15106999382423145,1.3062398738027632,-5.491412126055432,18.242345293129762,-7.170489517189842
-0.39008099791549106,0.33349344675552905,1.2513257525422088,-5.563117021227331,18.877011880882257,-8.08327215079419
-0.3867460634479358,0.5222635655643516,1.1956945823299354,-5.643949742735273,19.568987262204605,-9.163487798690484
-0.38152342779229226,0.7179534381863977,1.1392550849025826,-5.735584620722178,20.337589319173272,-10.433187436870217
-0.3743438934104283,0.9213293313781303,1.0818992386953608,-5.83991649509088,21.205227960652273,-11.91904529756433
-0.365130600096647,1.133381610984653,1.023500073744452,-5.959106948066523,22.197692991923375,-13.653188459248096
-0.3537967839868005,1.3553585409038869,0.9639090042637867,-6.095638832659004,23.344221302570066,-15.673790873943517
-0.3402431985777616,1.5888007539295876,0.9029526159371967,-6.2523767413984395,24.676974207013572,-18.02495727410635
-0.3243551910384657,1.8355704959997234,0.8404288485232123,-6.432626314139503,26.22915878962731,-20.754889626254275
-0.3059994860784685,2.0978620838959965,0.7761025853818173,-6.640175210402045,28.030237412882105,-23.91025384255848
-0.28502086523950854,2.3781644580248176,0.7097008332777969,-6.87927774882763,30.09512381426802,-27.522537067075866
-0.26123922065926036,2.679115696167498,0.6409080557895206,-7.154503119498389,32.40134074800489,-31.578123525192055
-0.2344480636975854,3.003129103647547,0.5693630245945367,-7.4702843547503095,34.842995404091816,-35.95663230718948
-0.2044167726611099,3.351559057688465,0.4946601810470336,-7.829850677822204,37.14307367881551,-40.311574373462584
-0.17090118208422528,3.72298979447662,0.41636167426881154,-8.23296642155683,38.701242438026334,-43.860694787273495
-0.13367128413945908,4.110002218856883,0.33403201005324323,-8.671573369429565,38.37847582878149,-45.08543740374184
-0.09257126195089024,4.4937869771446985,0.2473162763589476,-9.122427743466982,34.346938802016744,-41.51342971282734
-0.047633392179443255,4.837256365164866,0.15609199892427778,-9.537562040595256,24.46401132887947,-30.215658541532754
0.0007391714722054105,5.081896478453661,0.060716378518325204,-9.839718626010583,7.8994712418476105,-10.027945409590558
0.05155813625674202,5.160891190872137,-0.037680807741780634,-9.93999808010649,-12.448624407313511,15.141981734118156
0.10316704816546339,5.036404946799002,-0.13708078854284553,-9.788578262765308,-30.266627287809577,36.77205118023806
0.1535310976334534,4.733738673920906,-0.2349665711704986,-9.420857750962927,-40.73844038772887,48.472344062140614
0.20086848437266247,4.326354270043618,-0.32917514868012787,-8.93613431034152,-43.947431318117786,50.548102981892114
0.24413202707309867,3.88687995686244,-0.4185364917835431,-8.430653280522598,-42.75127205391309,46.980743663749564
0.28300082664172305,3.459367236323309,-0.5028430245887691,-7.960845843885103,-39.739941918631914,41.27653198821323
0.3175944990049561,3.0619678171369897,-0.5824514830276201,-7.5480805240029705,-36.3568672422396,35.333660077285394
0.348214177176326,2.698399144714594,-0.6579322882676497,-7.194743923230116,-33.21308363534743,29.916628132718735
0.37519816862347194,2.3662683083611196,-0.7298797274999509,-6.895577641902928,-30.499534738762367,25.233616126152736
0.39886085170708313,2.061272960973496,-0.7988355039189802,-6.643241480641401,-28.23050044986062,21.26879449560447
0.4194735813168181,1.77896795647489,-0.8652679187253942,-6.430553535685356,-26.357359177079424,17.933808005343984
0.43726326088156703,1.5153943647040957,-0.9295734540822478,-6.251215455631916,-24.815915917005924,15.128621330911605
0.452417204528608,1.2672352055340366,-0.992085608638567,-6.0999292423228,-23.54417019763353,12.762924286149502
0.46508955658394835,1.0317935035577013,-1.053084901061795,-5.972299999461305,-22.48784447731203,10.7616802826706
0.47540749161952534,0.806915058784581,-1.1128079010564083,-5.8646831966346,-21.601167008058635,9.064808452262042
0.48347664220737113,0.5909033887039947,-1.1714547330227543,-5.774035112111979,-20.846017081565826,7.625027990992909
0.4893856760944111,0.38244321788833646,-1.2291950841438741,-5.69778483220205,-20.190671396326007,6.40540186028853
0.4932101082732944,0.1805365039250764,-1.2861729324658946,-5.633730813599165,-19.60861222026939,5.377106650827616
0.4950154733125452,-0.0155496182776175,-1.3425102406018863,-5.579959747090888,-19.07754146762687,4.517560879835371
0.49485997712976904,-0.20632503295388618,-1.3983098380727952,-5.534784138292535,-18.57862103551929,3.808901329589568
0.4927967268002302,-0.3921112433090791,-1.4536576794557206,-5.49669512499664,-18.09591529523013,3.236755054088667
0.4888756143671394,-0.5730703962613805,-1.508624630705687,-5.464327574455753,-17.615998841251763,2.7892510115860314
0.48314491040452556,-0.7492303846738981,-1.5632679064502446,-5.436435064339893,-17.12769165912456,2.456224476965855
0.4756526065577866,-0.9205073012651437,-1.6176322570936434,-5.411872819570235,-16.621886800164024,2.22857930387492
0.46644753354513513,-1.086726169266784,-1.6717509852893457,-5.389587026531485,-16.091439487798496,2.0977838823148094
0.4555802718524673,-1.247640564144769,-1.7256468555546607,-5.368609187708337,-15.531090465515396,2.0554849542839135
0.4431038662110196,-1.402951468799923,-1.779332947431744,-5.348054338165498,-14.937400291515043,2.093229002543385
0.42907435152302037,-1.5523254717150734,-1.832813490813399,-5.327122048140064,-14.308675399417963,2.2022838307736317
0.41355109680586966,-1.695412225709253,-1.8860847112947996,-5.305099209832328,-13.644871267756734,2.373553536777768
0.3965969745487771,-1.8318609383868203,-1.939135703393123,-5.28136367446455,-12.947463020404381,2.597578826408631
0.3782783651649089,-1.9613355685908642,-1.9919493401377684,-5.255387886200463,-12.219279075725801,2.864612133759841
0.35866500947900026,-2.083528359348122,-2.044503218999773,-5.226741764862864,-11.464298760009214,3.1647539996951797
0.337829725885519,-2.1981713469482145,-2.096770636648402,-5.195094224865913,-10.68741966835317,3.4881343330353762
0.3158480124160369,-2.305045543631746,-2.148721578897061,-5.160212881535559,-9.89420452912121,3.825120183905664
0.29279755697971943,-2.4039875889229583,-2.2003237077124167,-5.121961679696502,-9.09062000665734,4.1665309802812445
0.26875768109048986,-2.4948937889895317,-2.251543324509382,-5.08029636989369,-8.282781012426028,4.503843062137891
0.24380874320059454,-2.577721599113792,-2.302346288208319,-5.035257939272311,-7.476713643941172,4.829367766915727
0.21803152720945662,-2.6524887355532036,-2.3526988676010423,-4.986964261603154,-6.678148006773852,5.136390995621026
0.19150663985392458,-2.7192702156209423,-2.402568510217074,-4.9356003516469436,-5.892349251969356,5.419266652973269
0.16431393769771516,-2.778193708140636,-2.4519245137335433,-4.881407685117211,-5.123991645554159,5.673461048607786
0.1365320006163088,-2.8294336245961773,-2.5007385905847155,-4.824673074631133,-4.377076870686074,5.8955497246545105
0.10823766437034701,-2.873204393303038,-2.5489853213310267,-4.765717577384588,-3.654894483415025,6.083171797039433
0.07950562043731663,-2.9097533381371883,-2.5966424971048725,-4.704885859414193,-2.960019822112772,6.2349494835885775
0.05040808705594474,-2.939353536358316,-2.6436913556990143,-4.642536364578308,-2.294342886525049,6.350381940429899
0.021014551692361577,-2.9622969652235667,-2.6901167193447972,-4.579032545174009,-1.65912079087332,6.429722899804503
-0.00860841795987409,-2.9788881731323,-2.7359070447965372,-4.514735316175964,-1.0550462754706387,6.473851077411133
-0.038397299691197095,-2.9894386358870064,-2.7810543979582967,-4.449996805401852,-0.4823252740365645,6.484141143256462
-0.06829168605006716,-2.994261888627372,-2.825554366012315,-4.3851553939692876,0.05924251586784952,6.46234149094889
-0.09823430493634089,-2.9936694634686933,-2.869405919952008,-4.3205319790597985,0.5701849196104382,6.410463337878411
-0.12817099957102782,-2.987967614272589,-2.912611239742606,-4.256427345681014,1.0512840256861558,6.330684036286192
