th1 (rad),w1 (rad/s),th2 (rad),w2 (rad/s)
2.032439577374583,-0.4439593519790507,1.996039394704095,-2.028236775328367
2.0279999838547926,-0.5316821645754356,1.9757570269508113,-2.029772314065026
2.0226831622090384,-0.6196593602950796,1.955459303810161,-2.0318410863442367
2.0164865686060875,-0.7079843181889803,1.9351408929467186,-2.034296340663185
2.009406725424198,-0.7967559731590066,1.9147979295400868,-2.0369779777545927
2.0014391656926076,-0.88607691986565,1.8944281497625408,-2.0397152194870594
1.9925783964939512,-0.9760516355534746,1.87403099756767,-2.0423291008522386
1.9828178801384164,-1.0667848187068056,1.8536077065591476,-2.0446348070606395
1.9721500319513483,-1.1583798317318938,1.8331613584885413,-2.0464438910453024
1.9605662336340293,-1.2509372291806873,1.8126969195780882,-2.0475664169733183
1.9480568613422224,-1.3445533478182543,1.792221255408355,-2.0478130834837573
1.93461132786404,-1.439318930556901,1.7717431245735173,-2.0469973870278864
1.920218138558471,-1.5353177524689758,1.7512731507032384,-2.044937891481046
1.9048649610337811,-1.632625213369186,1.730823771788428,-2.0414606755697355
1.8885387089000893,-1.7313068575503259,1.7104091650327307,-2.0364020348818355
1.8712256403245862,-1.8314167770062426,1.6900451446839122,-2.0296115203724594
1.8529114725545237,-1.9329958498670161,1.6697490294801876,-2.020955400176889
1.8335815140558536,-2.0360697609667,1.6495394754784187,-2.0103206357382293
1.8132208164461865,-2.140646746860158,1.6294362691210365,-1.9976194659213096
1.7918143489775848,-2.24671500390925,1.6094600744618233,-1.9827946926028341
1.7693471989384923,-2.3542396963864634,1.589632127535795,-1.965825756262797
1.7458048019746277,-2.4631595035416947,1.569973869973167,-1.946735677625405
1.7211732069392107,-2.5733826525467434,1.550506513196913,-1.9255989177225756
1.6954393804137433,-2.6847824012371477,1.5312505240196872,-1.9025501691059532
1.6685915564013718,-2.797191964478415,1.5122250223286278,-1.8777940294435929
1.6406196367565877,-2.910398925345449,1.4934470820341919,-1.851615418672341
1.6115156475031331,-3.024139241963223,1.4749309278474685,-1.8243904753122178
1.5812742550835008,-3.1380910571054907,1.4566870230943463,-1.796597500724172
1.5498933445124459,-3.2518686427461403,1.4387210480871047,-1.768827309729423
1.5173746580849845,-3.365016963658443,1.4210327749898104,-1.7417920968102116
1.4837244884484,-3.477007513449639,1.4036148540217084,-1.716331655407197
1.4489544133139036,-3.5872362428491513,1.3864515374676365,-1.6934155267877347
1.413082050885412,-3.6950245296288773,1.369517382199759,-1.6741394588809335
1.3761318055891232,-3.79962418390043,1.3527759876109497,-1.6597145004444878
1.3381355637501189,-3.9002273834023864,1.3361788426065049,-1.6514472330433283
1.299133289916095,-3.9959821342825235,1.3196643702760715,-1.650710140630722
1.2591734685732698,-4.086013319498726,1.3031572688697644,-1.6589019880735312
1.2183133353782827,-4.169448643364458,1.286568248989029,-1.6773993059963335
1.176618848944638,-4.245447892879302,1.2697942559290658,-1.7075015302304652
1.134164370015845,-4.313233079235169,1.252719240626761,-1.7503737687212886
1.0910320392234933,-4.37211641689707,1.2352155029395482,-1.8069922277435595
1.0473108750545226,-4.42152296061325,1.2171455806621125,-1.8780976823720483
1.0030956454483901,-4.4610051867656955,1.1983646038383922,-1.9641618030479622
0.9584855935807332,-4.490247855163346,1.1787229858079125,-2.0653696581328016
0.9135831150290997,-4.509062926389201,1.1580692892265845,-2.181619573477816
0.8684924857652077,-4.5173758175417,1.1362530934918063,-2.312539214138375
0.8233187275897906,-4.515205513071397,1.1131277013504226,-2.457514776570136
0.7781666724590767,-4.5026417571574,1.0885525535847211,-2.6157289334244505
0.7331402548875027,-4.479822654450714,1.0623952642504766,-2.7862028107176258
0.6883420283429955,-4.446915580148094,1.0345332361433004,-2.9678377010087456
0.6438728725415146,-4.40410354319093,1.004854859133213,-3.159453154785387
0.5998318371096053,-4.3515782835112775,0.9732603275853591,-3.3598192175526402
0.5563160542744925,-4.2895406033377,0.9396621354098327,-3.567681610611231
0.5134206482411154,-4.218207847912236,0.9039853193037204,-3.78177941068793
0.4712385697619931,-4.137828101194973,0.866167525196841,-4.000855200012175
0.42986028875004334,-4.048700528270947,0.8261589731967193,-4.223657754469793
0.38937328346733385,-3.9512013246621254,0.7839223956520214,-4.448937188373842
0.3498612702207126,-3.8458148525004026,0.7394330237682829,-4.6754321840752695
0.3114031216957086,-3.7331696721888825,0.6926787019275302,-4.901848623700338
0.27407142497381975,-3.61407921748212,0.6436602156905269,-5.126828749520381
0.23793063279899856,-3.489586684858763,0.592391928195323,-5.348910085452893
0.20303476595041092,-3.3610131436390343,0.5389028273407941,-5.566473988556461
0.16942463451402057,-3.230006699030451,0.48323808745522945,-5.777685170129173
0.13712456752371605,-3.0985885022006676,0.42546123575393774,-5.9804261857484615
0.10613868250170937,-2.9691882954053757,0.36565697389645313,-6.172235049122766
0.07644679954765561,-2.844658041121708,0.3039346234052255,-6.350259793645007
0.048000219136438524,-2.728247620580171,0.2404320254687754,-6.511250277389634
0.020717742930636815,-2.623523218952535,0.17531952269487905,-6.65161277164966
-0.0055174892588885326,-2.534209768128869,0.10880339497838246,-6.767553112835327
-0.030859586940177226,-2.463947515253106,0.04112786385002919,-6.855324390702393
-0.05549906209270829,-2.415972293002829,-0.02742538005699474,-6.911571363984513
-0.07965878502273657,-2.3927578791702158,-0.09654109369683987,-6.933727703798917
-0.10358636381443873,-2.3956878493901566,-0.16587837073482903,-6.9203852982329614
-0.1275432423083403,-2.4248378245023794,-0.23508222371715864,-6.871537400506351
-0.1517916205533641,-2.4789329256602572,-0.30379759772222215,-6.788617406024744
-0.17658094980996666,-2.555499316320933,-0.3716837717824696,-6.67431256296703
-0.202135942973176,-2.6511715748376097,-0.4384268974121399,-6.5322026584766295
-0.2286476587215521,-2.762076714779538,-0.5037489239969062,-6.366322620666895
-0.2562684258693475,-2.8842083610579854,-0.5674121502035752,-6.1807536798845
-0.28511050947992733,-3.013727769266083,-0.6292196870024201,-5.9793156447745615
-0.31524778717258817,-3.1471644261585916,-0.6890128434501658,-5.76538640775897
-0.3467194314341741,-3.2815200681457295,-0.7466667075277554,-5.541836634071874
-0.37953463211563143,-3.4142974495253786,-0.8020850738684742,-5.3110478348710775
-0.4136776066108852,-3.543479688860895,-0.8551955522171849,-5.074978884379109
-0.44911240349949416,-3.667482534595184,-0.905945341060976,-4.835252484715894
-0.485787228845446,-3.785095451458814,-0.9542978659081349,-4.593242526540376
-0.5236381833600341,-3.895421203257256,-1.0002302911735388,-4.350151830120676
-0.5625923953926066,-3.997818906598087,-1.0437318094747456,-4.1070759297206125
-0.6025705844585875,-4.091852514459499,-1.0848025687719518,-3.865052372901171
-0.6434891096031825,-4.177245025281679,-1.1234530925009636,-3.6250969942899114
-0.6852615598559993,-4.253837970263207,-1.1597040624438626,-3.388229403675564
-0.7277999395586314,-4.321555546721894,-1.1935863564806182,-3.1554899843079465
-0.7710154950258503,-4.380372887773969,-1.2251412563236976,-2.92795035130528
-0.81481922390359,-4.430288234047999,-1.2544207598367505,-2.7067186657046767
-0.8591221062440699,-4.471299114339039,-1.2814879464937972,-2.492940547949835
-0.9038350973874603,-4.503382998885732,-1.3064173519732956,-2.2877956549761613
-0.9488689273763176,-4.526483223631282,-1.3292953085230572,-2.0924893377518115
-0.9941337596126304,-4.540501251727171,-1.3502202019005753,-1.9082382562741322
-1.039538772129902,-4.545296474483147,-1.3693025844633167,-1.7362485022758827
-1.0849917368747335,-4.540694667668129,-1.3866650694860754,-1.5776848057248511
-1.1303986835514148,-4.526505804963232,-1.4024419175433238,-1.433629935704173
-1.1756637416010471,-4.502551098382805,-1.4167782169003655,-1.3050345756334591
-1.2206892525848752,-4.468697864815976,-1.4298285626567002,-1.1926597747794956
-1.265376231233035,-4.424899223553094,-1.4417551604044951,-1.0970163668674389
-1.309625223468566,-4.371234012239069,-1.4527253240731695,-1.018308045078204
-1.3533375635909566,-4.307941140478931,-1.4629084045239515,-0.9563863876824721
-1.3964169749957458,-4.235442408669706,-1.4724722684007763,-0.9107262671211407
-1.438771399082443,-4.154348972619927,-1.4815795310719877,-0.8804282207474962
-1.4803148888086421,-4.065449111230536,-1.4903838132794627,-0.8642505674606534
-1.5209693799209476,-3.969678238457944,-1.4990263189540691,-0.8606691059655507
-1.5606661623055271,-3.8680753057993553,-1.5076330100137247,-0.8679574520859586
-1.5993469153635207,-3.761731950377676,-1.5163125845345844,-0.8842778268247447
-1.6369642348672975,-3.6517413902805096,-1.5251553628028318,-0.9077712295511533
-1.6734816487701025,-3.5391531499285436,-1.5342330750983433,-0.9366374190521167
-1.708873180269388,-3.4249377080137644,-1.5435994492888645,-0.9691982349647086
-1.7431225573495257,-3.309962816951147,-1.5532914316385116,-1.0039414423993889
-1.7762221855190372,-3.1949811825803325,-1.5633308460625055,-1.039545509672889
-1.8081719973448405,-3.080627784925758,-1.5737263011592344,-1.0748879670760425
-1.838978275194098,-2.9674244416882156,-1.5844751808299948,-1.1090411161433917
-1.86865251961098,-2.8557891373665303,-1.5955655919914287,-1.1412590482402405
-1.8972104109846453,-2.7460479481847875,-1.6069781824738312,-1.1709595077800758
-1.924670890466493,-2.638447879108512,-1.618687777551632,-1.1977034134148592
-1.9510553692575783,-2.533169441429267,-1.6306648116857805,-1.221174066292439
-1.976387063671871,-2.4303382487575993,-1.6428765523487048,-1.2411573695088198
-2.000690446159447,-2.3300352589179574,-1.655288126043793,-1.2575238199573808
-2.0239907987486263,-2.2323055361127975,-1.667863364243367,-1.2702126232802977
-2.046313854109754,-2.1371655662088562,-1.6805654904761698,-1.279218006850883
-2.0676855097718425,-2.0446092485760494,-1.6933576705446787,-1.2845776361445393
-2.088131602257603,-1.954612730633929,-1.706203446906124,-1.2863629473457718
-2.1076777295639424,-1.867138262825069,-1.7190670763795817,-1.2846711686440426
-2.126349112192193,-1.7821372447044006,-1.731913788066022,-1.2796187951461555
-2.144170484639237,-1.6995526159786647,-1.7447099760174836,-1.2713362938857546
-2.1611660107990236,-1.61932072537843,-1.7574233389563412,-1.259963836741539
-2.177359218052808,-1.5413727886863862,-1.7700229773237566,-1.2456478842653789
-2.1927729459396716,-1.4656360270275077,-1.7824794561664103,-1.2285384689355756
-2.2074293062099466,-1.392034558591895,-1.7947648408557662,-1.2087870502523355
-2.2213496517958657,-1.3204901016337365,-1.8068527113582895,-1.1865448354642392
-2.2345545528122033,-1.25092253383811,-1.8187181597129318,-1.1619614782548646
-2.2470637781505842,-1.1832503427539869,-1.8303377744954805,-1.1351840834763005
-2.258896281578124,-1.1173909936595283,-1.8416896153302436,-1.1063564592191228
-2.2700701915147192,-1.0532612346390329,-1.8527531799224348,-1.0756185684603743
-2.2806028038611097,-0.9907773535095332,-1.8635093656070385,-1.0431061415518776
-2.290510577396205,-0.9298553972704068,-1.8739404270225573,-1.008950418204149
-2.299809131368909,-0.8704113617300655,-1.8840299312045987,-0.9732779936580882
-2.3085132449862096,-0.8123613566957059,-1.8937627111411797,-0.9362107486527074
-2.3166368585531667,-0.7556217504353602,-1.9031248186277068,-0.8978658467913543
-2.3241930760575205,-0.7001092959062074,-1.9121034770956202,-0.8583557861469541
-2.3311941690165825,-0.6457412403848405,-1.9206870349570897,-0.8177884945656314
-2.337651581420431,-0.5924354195506076,-1.9288649199027461,-0.7762674602400482
-2.343575935615937,-0.5401103366961543,-1.9366275945051465,-0.7338918908209849
-2.348977038982899,-0.4886852275177278,-1.9439665134133564,-0.6907568956934854
-2.3538638912580763,-0.4380801108306769,-1.9508740823702913,-0.6469536871240931
-2.358244692366383,-0.38821582553081263,-1.957343619241532,-0.6025697968390887
-2.362126850621691,-0.3390140541549223,-1.963369317209923,-0.55768930526198
-2.36551699116324,-0.2903973334644189,-1.9689462102625428,-0.5123930811562114
-2.368420964497884,-0.24228905257005254,-1.9740701410741048,-0.4667590298145337
-2.3708438550235846,-0.19461343922157817,-1.97873773137225,-0.4208623482330166
-2.3727899894158004,-0.14729553499593911,-1.9829463548545803,-0.3747757859243992
-2.3742629447657597,-0.10026116022486575,-1.9866941127138242,-0.3285699101778364
-2.3752655563680083,-0.05343686960367807,-1.9899798118156027,-0.2823133746724958
-2.375799925064045,-0.006749899514912616,-1.9928029455623277,-0.2360731904105757
-2.3758674240591944,0.03987189181818305,-1.9951636774664334,-0.18991499795845637
-2.3754687051410124,0.08650009016254517,-1.997062827446018,-0.14390333997805574
-2.374603704239387,0.1332057958443038,-1.9985018608457985,-0.09810193299731668
-2.373271646280944,0.1800596977579771,-1.9994828801757716,-0.05257393731063243
-2.371471049303364,0.2271321494731701,-2.0000086195488778,-0.007382223816804215
-2.3691997278086325,0.27449324605568726,-2.000082441787046,0.037410363507863344
-2.3664547953480755,0.32221290018070353,-1.9997083381519674,0.0817407509437203
-2.3632326663462684,0.37036091607370203,-1.9988909306425302,0.12554538578637545
-2.359529057185531,0.4190070597657439,-1.9976354767846665,0.16875999636297634
-2.3553389865878738,0.46822112408792843,-1.9959478768210368,0.2113193634048624
-2.3506567753469945,0.5180729867492953,-1.9938346831869882,0.25315710520029927
-2.3454760454795016,0.5686326597353918,-1.9913031121349851,0.2942054793478404
-2.3397897188821477,0.6199703281222968,-1.9883610573415067,0.33439520441425724
-2.3335900156009246,0.672156376212328,-1.9850171052973642,0.3736553053884536
-2.326868451838801,0.7252613986501035,-1.9812805522434798,0.4119129875350494
-2.3196158378523,0.7793561938556525,-1.9771614223681293,0.4490935441127289
-2.3118222759137437,0.8345117366964602,-1.972670486927002,0.4851203044614346
-2.3034771585467793,0.8907991267907325,-1.9678192838823876,0.5199146302120358
-2.2945691672788717,0.9482895081638247,-1.9626201375802672,0.5533959688701008
-2.2850862721972334,1.0070539551382922,-1.9570861778915662,0.5854819758149143
-2.2750157326458504,1.0671633182901987,-1.951231358133417,0.6160887178839927
-2.2643440994629485,1.1286880230101684,-1.9450704709545772,0.6451309742346487
-2.2530572192328466,1.191697811622769,-1.9386191612122308,0.6725226531432384
-2.241140241116619,1.256261418094498,-1.9318939346807984,0.69817734687552
-2.2285776269356736,1.3224461620503094,-1.9249121612120432,0.7220090507896385
-2.2153531653151703,1.3903174460758618,-1.917692070704147,0.7439330774563067
-2.2014499908544116,1.4599381370719946,-1.9102527399295839,0.7638672018148731
-2.1868506094836917,1.5313678087342681,-1.9026140679114352,0.7817330792041761
-2.171536931396349,1.604661818074804,-1.8947967371193934,0.7974579844217471
-2.155490313215601,1.6798701843661714,-1.886822157275176,0.8109769265795481
-2.1386916113719394,1.7570362341389425,-1.8787123880093806,0.8222352010914299
-2.12112124903055,1.8361949712120862,-1.8704900359984662,0.8311914460789249
-2.102759299318429,1.9173711266777085,-1.862178121537677,0.8378212749422175
-2.083585588051652,2.0005768410631966,-1.8537999087882548,0.8421215585208267
-2.06357981964102,2.085808930669838,-1.8453786932030465,0.8441154273312165
-2.0427217303343217,2.173045693895159,-1.8369375389297342,0.8438580543112499
-2.0209912733953703,2.2622432232682486,-1.8284989583866218,0.8414432580346556
-1.9983688411626879,2.3533312076101036,-1.8200845258062752,0.8370109313624516
-1.9748355290865869,2.44620823933628,-1.8117144164926506,0.8307552461192649
-1.950373446693224,2.540736687904936,-1.803406864031458,0.8229335053902582
-1.9249660798141748,2.636737265041908,-1.7951775289775553,0.8138754065922814
-1.8985987071637558,2.733983492825472,-1.7870387749116325,0.8039923375034526
-1.871258872235501,2.832196391694497,-1.778998851536598,0.7937861547368406
-1.842936908318556,2.931039827273035,-1.7710609899892296,0.7838566972901436
-1.8136265100458258,3.030117081233109,-1.763222423016328,0.7749070845725684
-1.7833253392334947,3.128969322098761,-1.7554733521706023,0.7677456698835518
-1.752035646012507,3.2270767169803696,-1.7477958954717667,0.7632834127882864
-1.7197648788427033,3.3238629065552763,-1.7401630613438839,0.7625254558563619
-1.6865262497771505,3.4187034226233037,-1.7325378067853203,0.7665559053564507
-1.6523392155509176,3.5109383284505022,-1.7248722477317557,0.7765152715995618
-1.6172298322664125,3.5998888995150446,-1.71710709501576,0.7935707363938016
-1.5812309432712621,3.684877569774441,-1.709171387651822,0.8188803352098044
-1.5443821675735177,3.7652497307706807,-1.700982584299724,0.8535531462571725
-1.5067296702658108,3.840395418196229,-1.6924470528371522,0.8986084739037847
-1.4683257160838485,3.909768602922966,-1.6834609680981143,0.9549375738201362
-1.429228030054619,3.9729018456832104,-1.6739115923599128,1.023271499580215
-1.3894990115977868,4.029414526920037,-1.6636788773641107,1.1041580697243378
-1.3492048663285865,4.079013670021233,-1.6526372966668672,1.1979498307487377
-1.3084147296283741,4.121487379941032,-1.6406577983593797,1.3048034475352042
-1.2671998558289639,4.156691905738931,-1.6276097638840277,1.4246895005585951
-1.2256329367715746,4.184534101033088,-1.6133628688784418,1.5574105127057762
-1.1837875957612438,4.204951469406077,-1.5977887637513841,1.7026243713184521
-1.141738081067183,4.217892014122843,-1.5807625200381996,1.859870208135148
-1.0995591609259547,4.223295828963245,-1.5621638179568482,2.0285941665080993
-1.0573262026363224,4.221079891594931,-1.5418778762917673,2.2081731495366337
-1.0151154037203731,4.211126984883303,-1.519796144796401,2.397935411229806
-0.9730041338715401,4.1932791813632475,-1.495816790684103,2.597177563862282
-0.9310713420579075,4.1673359459553385,-1.46984501504548,2.805178124926261
-0.8893979825983541,4.133056664761936,-1.4417932337962174,3.0212080724375534
-0.8480674159507348,4.090167286692754,-1.4115811530718418,3.2445390182839295
-0.8071657430838072,4.038370748200795,-1.3791357628890026,3.474449570860447
-0.7667820356017993,3.9773609158832253,-1.3443912671803981,3.710230272494692
-0.727008426442967,3.9068399097233537,-1.3072889644554513,3.951187191269133
-0.6879400273457335,3.8265388543353915,-1.26777709254276,4.1966438367831564
-0.6496746388023795,3.7362423508811005,-1.2258106541749285,4.445940558191999
-0.6123122152935685,3.6358172817311027,-1.1813512485930084,4.698429962004538
-0.5759540424762575,3.5252469713283108,-1.134366948972963,4.95346614112725
-0.5407015727629744,3.404672243424795,-1.0848322875616905,5.210384622646275
-0.5066548503287264,3.2744415286362933,-1.0327284413352278,5.468468929201463
-0.4739104350423634,3.135172825351794,-0.9780437520432131,5.72689857800351
-0.44255870678884546,2.9878308290621813,-0.920774766263178,5.984672417443588
-0.41268039849822363,2.833822541168365,-0.8609280420887421,6.240500890706808
-0.38434217308654,2.6751134191654478,-0.798523033181674,6.492662045391746
-0.3575910388948855,2.5143623851880914,-0.7335964127277564,6.738820511514374
-0.3324474150430046,2.355065906935734,-0.6662082076126127,6.9758187481246745
-0.3088967559736473,2.2016867298640337,-0.5964500201313659,7.199468643979718
-0.28687988867500697,2.0597205089930894,-0.5244553336915687,7.404400932129238
-0.26628268358507606,1.935626599922487,-0.4504113243702763,7.584066370643195
-0.24692641758585118,1.8365299758503015,-0.37457066066384437,7.731010537995484
-0.22856111782734817,1.7696150116243818,-0.2972605552838895,7.837530228336772
-0.21086496771110436,1.741209809606176,-0.21888525300052178,7.896722479520726
-0.1934528696150426,1.7557092144062505,-0.13991802820531452,7.903746576066146
-0.1758957774709801,1.814647363664811,-0.06088056244465305,7.856910703647275
-0.15774930383433197,1.9162814085464464,0.017688544591819705,7.7581317180722715
-0.1385864897488675,2.0558896552125785,0.09526986177254242,7.612523724409807
