th1 (rad),w1 (rad/s),th2 (rad),w2 (rad/s)
4.417556109701813,2.0799689818079554,3.5481245708354305,-0.8828120354510662
4.438355799519893,2.165378111331293,3.53929645048092,-0.8661203568982723
4.460009580633206,2.2499278835449403,3.5306352469119373,-0.8440822937913781
4.4825088594686555,2.3337115594952182,3.5221944239740237,-0.8164809014413348
4.5058459750636075,2.4168352331717413,3.51402961495961,-0.7831029005921539
4.530014327395325,2.49941571681333,3.5061985859536886,-0.7437364482243423
4.555008484563458,2.581578164054298,3.498761221471445,-0.6981688358549158
4.580824266204001,2.663453478809696,3.4917795331128962,-0.6461842486126801
4.607458800992098,2.745175544945595,3.4853176906267693,-0.5875617128618666
4.634910556441554,2.8268782966061656,3.479442073498151,-0.5220733521158571
4.663179339407615,2.9086926330454435,3.4742213399769923,-0.4494830621996441
4.69226626573807,2.9907431662237483,3.469726509354996,-0.3695457084703133
4.722173697400307,3.073144775333024,3.466031052270293,-0.2820069412811361
4.752905145153637,3.1559989306501244,3.4632109828574817,-0.18660372113959722
4.784465134460138,3.2393897403508674,3.461344945646086,-0.08306564200978074
4.816859031863647,3.3233796687165835,3.460514289225988,0.02888286068206189
4.850092828550813,3.408004873062196,3.4608031178328087,0.1495193326096954
4.884172877281435,3.493270110270102,3.462298311158906,0.2791190721232753
4.919105578384135,3.5791431726503724,3.4650895018801386,0.417949775515925
4.954897010110639,3.665548827660054,3.469268999635298,0.5662649918815781
4.9915524983872395,3.75236225754258,3.474931649554114,0.7242963417753358
5.0290761209626655,3.8394020239109588,3.482174612971867,0.8922444814061365
5.067470141201775,3.9264226192846383,3.4910970577859284,1.0702688328183274
5.106734367394621,4.013106712911338,3.5017997461141115,1.2584761521226504
5.146865434523734,4.099057251713645,3.514384507635338,1.4569080733968656
5.187856007040871,4.1837896380852655,3.5289535883693066,1.6655278455805247
5.229693903421723,4.266724272848565,3.545608866825112,1.8842065725231867
5.272361146150209,4.347179821263084,3.5644509325503435,2.1127093698105432
5.31583294436284,4.424367628692512,3.585578026248449,2.350681961907647
5.360076620649765,4.4973877753968585,3.6090848458675255,2.5976383536179055
5.4050504984037335,4.565227310889008,3.635061229403705,2.8529503133947824
5.450702771512623,4.626761240563804,3.6635907325376524,3.11583949402561
5.496970383918262,4.680756843604391,3.6947491274779085,3.3853730794249794
5.543777952354306,4.725881874146316,3.728602858272158,3.660463875652409
5.591036771095769,4.760717130239853,3.7652074970286824,3.9398757515310323
5.638643942398168,4.783773760693419,3.8046062545439927,4.222235272388571
5.686481680005102,4.7935155124554605,3.8468286072678786,4.506050253896559
5.7344168351296565,4.7883858957107925,3.891889109806844,4.7897357874871185
5.782300694086764,4.76683995663849,3.9397864676817154,5.071648051285759
5.829969093653149,4.7273799977356985,3.990502948194573,5.350125919316991
5.877242893630506,4.6685941765682255,4.044004207387743,5.623540018233536
5.923928835396189,4.589196457800006,4.100239607570078,5.890348462231172
5.969820799974189,4.488065914592838,4.15914309219239,6.149158040933172
6.014701459120117,4.364282913700776,4.220634672601721,6.398789175625081
6.058344288257125,4.217159329934306,4.2846225643579725,6.638342550394911
6.1005158815564675,4.046259688812214,4.351005989861922,6.867265041618452
6.140978478444589,3.8514101023248983,4.419678640278106,7.085412502352814
6.179492579467838,3.6326920993949834,4.4905327653016345,7.293107200039102
6.215819500461787,3.3904189847127957,4.5634638373020255,7.491188330461502
6.249723690308915,3.1250931630780903,4.638375720606641,7.6810550698329605
6.280974621939696,2.8373438631432113,4.715186271304971,7.864703047408327
6.309348060571128,2.5278457675950206,4.7938333017790535,8.044756809048014
6.334626518247078,2.197220094477758,4.8742808698695335,8.224502586720893
6.356598719191855,1.8459206531418415,4.956525895736743,8.407927148940836
6.375057925723274,1.4741085277724109,5.040605167226151,8.599769112141134
6.389799011000998,1.0815210255380188,5.126602858347563,8.805587775361118
6.400614221256379,0.6673450798895124,5.214658736101174,9.031849082965874
6.407287672055274,0.23011623885817545,5.304977226930832,9.286013858373247
6.409588834443856,-0.2323100348776117,5.397837365514565,9.576579161292546
6.40726573409508,-0.7226100822606236,5.493603157127491,9.912945663781711
6.400039633272473,-1.243435138616714,5.592732613765308,10.304811678000151
6.387605281886306,-1.7959484026242731,5.69578073054531,10.760429529208762
6.369645797860064,-2.3764531743764383,5.803385025837398,11.2823548457256
6.345881266116299,-2.969369277185783,5.916208574294654,11.858259266379363
6.3161875733444415,-3.5346840249226026,6.034791166958447,12.444079943695293
6.280840733095215,-3.992362054763501,6.1592319663954,12.942545418197785
6.24091711254758,-4.222933432714191,6.288657420577378,13.202865742947465
6.198687778220438,-4.122656145743099,6.420686078006852,13.0936560675032
6.157461216763007,-3.699535920033706,6.551622638681884,12.630064481691013
6.12046585756267,-3.0810407986800366,6.677923283498794,11.980443097836819
6.0896554495758695,-2.404666341530024,6.797727714477162,11.318562385677152
6.06560878616057,-1.7468313754170355,6.910913338333933,10.733023197152272
6.048140472406399,-1.1329402726834996,7.018243570305456,10.245318295358318
6.0368110696795645,-0.5648508888967849,7.12069675325904,9.847915571710947
6.031162560790596,-0.036912930055174376,7.219175908976149,9.525262772983051
6.030793431490045,0.4575768864479495,7.31442853670598,9.261648146176848
6.035369200354524,0.9242886855531327,7.407045018167748,9.04337498406125
6.044612087210056,1.3673979443466795,7.497478768008361,8.858976464911448
6.0582860666535225,1.7896564203714793,7.5860685326574755,8.698889054041672
6.076182630857238,2.1926070026689057,7.673057423197892,8.555058969055102
6.098108700883927,2.5768166295310175,7.758608012888443,8.420618097432541
6.123876867179237,2.942093267504519,7.842814193862768,8.289653078110925
6.153297799854282,3.287682407185077,7.925710724643878,8.15705699851687
6.186174623926132,3.6124458549525276,8.007281294629047,8.018444869214031
6.222299082475658,3.9150254874586063,8.087465743321188,7.870113765408524
6.261449337350244,4.193992508992883,8.166166880975274,7.7090304675357535
6.303389262440172,4.447980659836843,8.24325718565063,7.5328319575878
6.34786906903854,4.675800538515081,8.318585505226508,7.339826910908127
6.394627074423691,4.876531942145241,8.39198377433559,7.128989330186267
6.443392393845143,5.049591815564685,8.463273667637452,6.899938609537326
6.493888312000791,5.194776761649531,8.532273053732826,6.652903380049748
6.545836079617286,5.312280733951145,8.598802087533324,6.388669193430166
6.598958886956797,5.4026901355711185,8.662688779467626,6.108512192083437
6.652985788312509,5.466959792158048,8.72377390138846,5.81412224495664
6.707655386234089,5.5063739927455915,8.781915123838028,5.507519598929862
6.762719126161545,5.522496984236435,8.836990319827326,5.190969039612333
6.8179440960039095,5.517117061493467,8.888900010223448,4.866895087642986
6.873115266618844,5.4921878727057045,8.937568961099878,4.5378011032874905
6.9280371453459,5.449769920108233,8.982946972132753,4.206194513246346
6.982534844546983,5.391974603138868,9.025008917265216,3.8745198117274806
7.036454590578371,5.320912593368061,9.06375411538249,3.5451005475071153
7.089663716512051,5.2386478650236254,9.099205120857562,3.2200911586625356
7.1420501951622875,5.1471583143063375,9.131406032444188,2.901439202375472
7.1935217783053504,5.048303554866567,9.160420424467942,2.5908582008224377
7.2440048138540165,4.943800150825307,9.186329006476166,2.289810963487241
7.29344281536227,4.835204232580097,9.20922711611104,1.999502859770859
7.341794857688071,4.723901140549824,9.229222144708748,1.7208841360516813
7.389033869093569,4.6111014753056505,9.246430986069266,1.4546600414907922
7.435144883846625,4.497842719730834,9.260977586484174,1.2013072863629533
7.480123311043934,4.384995456274147,9.272990659347803,0.9610952307462673
7.523973265606675,4.273273137417565,9.282601611655267,0.7341101962179603
7.566705996980851,4.163244377324093,9.289942713617446,0.5202813969094957
7.608338440754092,4.055346805699374,9.295145527586541,0.3194071739081775
7.648891908811086,3.9499016441272707,9.298339599325622,0.13118045717616367
7.688390925252358,3.847128311614107,9.299651403897384,-0.04478735957231875
7.726862208368499,3.7471585221503103,9.29920353030166,-0.2089446901113194
7.764333793590002,3.650049488446675,9.297114083400547,-0.3617805021682053
7.800834288474469,3.5557959825520236,9.293496278378866,-0.503807675740062
7.8363922482999895,3.4643411199809626,9.288458201621465,-0.6355489599032332
7.871035659499799,3.3755858270714367,9.282102712022432,-0.7575254068666485
7.904791517770513,3.289397022062304,9.274527457953766,-0.8702470921925313
7.9376854879911365,3.2056145911026737,9.265824987031841,-0.9742058923211713
7.969741633902164,3.1240572742718813,9.25608292810863,-1.0698700780604407
8.000982206644883,3.0445275971692123,9.245384227328024,-1.15768048898703
8.031427482616575,2.96681599401369,9.233807422438154,-1.2380480729006798
8.061095642556712,2.8907042713051285,9.221426941709147,-1.3113526016310142
8.090002685269763,2.8159685591607277,9.208313415692837,-1.3779424055905078
8.11816237086137,2.7423818920176877,9.194533991636932,-1.4381350012581826
8.145586189781547,2.669716552384426,9.18015264162435,-1.492218515628891
8.17228335530539,2.597746301016226,9.165230456468061,-1.5404538373338081
8.198260818315553,2.5262486040227836,9.149825918094724,-1.58307744361888
8.223523304355782,2.455006951276271,9.133995143658534,-1.620304863773681
8.248073373868545,2.3838133400712156,9.117792095020798,-1.652334741167235
8.271911507269257,2.3124709721952326,9.101268747609126,-1.6793534462474047
8.295036216991209,2.2407971805076654,9.084475213146652,-1.7015401706907884
8.317444188796285,2.1686265624713497,9.067459811439743,-1.7190723982830387
8.339130454421,2.0958142535292406,9.050269087456913,-1.7321316024662683
8.360088596956292,2.0222392248897267,9.03294777143225,-1.7409089672269684
8.380310989205189,1.9478074420658262,9.01553868175998,-1.7456108729467879
8.399789063625846,1.8724546780949334,8.998082573030512,-1.7464638402858494
8.418513610406796,1.7961487458639283,8.980617934627654,-1.7437185932968886
8.436475097865435,1.7188909049897,8.963180748694684,-1.7376528985400839
8.453664006915332,1.6407162168854363,8.945804219709284,-1.7285728692566618
8.470071169084186,1.5616926708065086,8.928518491016717,-1.716812497922053
8.48568809579225,1.48191898310878,8.911350366037498,-1.702731295583693
8.500507285623337,1.4015210753407588,8.89432305308166,-1.68671006326857
8.514522496376745,1.320647352302572,8.877455952448974,-1.6691449827513918
8.527728969899771,1.2394630131137516,8.86076450262146,-1.6504403690982405
8.540123600030908,1.1581437199241356,8.844260098930478,-1.6310005524188897
8.55170503723015,1.0768690060150765,8.82795009340629,-1.6112214317047575
8.5624737272903,0.9958158192310975,8.811837879089243,-1.5914822581980081
8.572431885482612,0.9151525670723277,8.795923056507263,-1.5721381588028127
8.581583411153336,0.8350339629889864,8.780201674919235,-1.5535138114949825
8.589933750783226,0.7555968817196541,8.764666536804285,-1.5358985522053712
8.597489719600423,0.6769573298051226,8.74930755128223,-1.5195430474577265
8.604259292898474,0.5992085400023417,8.734112120807653,-1.5046575293200404
8.610251378298498,0.5224201163937382,8.719065545514454,-1.491411474574523
8.615475579462435,0.446638097203613,8.70415143076871,-1.4799345275487
8.619941960434472,0.3718857667310525,8.689352085493223,-1.4703184183172324
8.623660818101783,0.29816503462084776,8.67464890131005,-1.4626196121597947
8.626642468447992,0.22545820567526823,8.660022705188451,-1.45686243597348
8.628897050504744,0.1537299812165827,8.645454080828717,-1.4530424550365593
8.630434350316909,0.08292955832996951,8.630923656278352,-1.4511299114703864
8.631263645900209,0.012992721607910401,8.616412357163648,-1.4510730774730012
8.631393573116288,-0.05615615013479597,8.60190162638892,-1.4528014170717105
8.63083201161494,-0.12460221454132556,8.587373612218203,-1.4562284866318564
8.629585989469527,-0.19243846488062005,8.572811327351884,-1.46125453501512
8.627661604820721,-0.25976421182358467,8.558198782001734,-1.4677687885898543
8.625063962702486,-0.32668374914460285,8.543521094115835,-1.4756514245186454
8.621797125211039,-0.3933051955680816,8.528764579870648,-1.4847752486005095
8.617864073255358,-0.45973949897524763,8.513916827384643,-1.495007102352219
8.613266678265605,-0.5260995856263714,8.49896675636112,-1.506209028939842
8.608005682409342,-0.5924996353294558,8.483904666071723,-1.5182392299170053
8.602080686056047,-0.6590544630679352,8.468722273772553,-1.5309528452709553
8.595490141425367,-0.7258789880491876,8.453412745319843,-1.5442025886635578
8.588231351544875,-0.7930877721056478,8.437970719433208,-1.5578392684895774
8.580300473823819,-0.8607946106049466,8.422392326748312,-1.571712223846909
8.571692527717769,-0.929112160305805,8.406675204509844,-1.585669703011574
8.562401406114711,-0.9981515897860962,8.390818507479727,-1.5995592107445764
8.55241989021685,-1.0680222390613328,8.374822915372281,-1.6132278498794947
8.541739667826237,-1.1388312757261647,8.358690636873487,-1.6265226822578214
8.530351355068975,-1.2106833353265185,8.34242541005091,-1.6392911342729075
8.51824452171571,-1.2836801336547388,8.32603249870818,-1.6513814731125604
8.505407720379162,-1.357920038208933,8.309518683977055,-1.6626433813010586
8.491828519997073,-1.4334975851275322,8.292892250164044,-1.6729286593694543
8.477493544145798,-1.5105029264592362,8.27616296357035,-1.6820920894536349
8.462388514881205,-1.5890211906184404,8.259342042675813,-1.6899924963427746
8.446498302975021,-1.6691317362760363,8.242442117712386,-1.6964940469625784
8.429806985612261,-1.7509072767303404,8.22547717724276,-1.7014678344249508
8.412297912844958,-1.8344128480078428,8.20846249889851,-1.7047937984932324
8.393953784364879,-1.9197045896238305,8.191414560913579,-1.7063630403892776
8.37475673846864,-2.006828302234035,8.174350930509686,-1.7060805959526548
8.3546884554463,-2.095817741596652,8.157290124550158,-1.7038687366949445
8.333730278030334,-2.186692603781852,8.14025143718321,-1.699670872426591
8.311863351992516,-2.279456153102695,8.123254728458944,-1.6934561306296052
8.289068790461489,-2.3740924428197085,8.106320167152647,-1.6852246848473604
8.265327866033292,-2.470563080744722,8.089467920304173,-1.6750138946471784
8.240622235225844,-2.568803499418643,8.072717781357701,-1.6629052999801432
8.214934200231658,-2.6687187061427156,8.0560887283579,-1.6490324789425825
8.188247013170232,-2.7701785149858087,8.039598403568473,-1.6335897251199756
8.160545228020373,-2.8730123046218834,8.023262506317273,-1.6168414233573078
8.131815104974155,-2.977003406219204,8.007094092083701,-1.5991318954619933
8.102045070911963,-3.081883307714616,7.991102773129081,-1.580895345712631
8.071226237834816,-3.1873259658990984,7.975293819671955,-1.5626653589451192
8.039352978175826,-3.2929426433599676,7.959667166082504,-1.5450831961656837
8.006423551742227,-3.398277824970512,7.944216334120847,-1.5289039083566012
7.972440773492521,-3.5028069011975242,7.9289272950372816,-1.5149990760086354
7.937412704480546,-3.605936405386014,7.913777304277195,-1.504354823796468
7.901353340426686,-3.707007621248994,7.89873375603923,-1.4980637167059763
7.864283264214197,-3.805304290220314,7.88375311887217,-1.4973092861100443
7.826230221311993,-3.900064903929628,7.86878002601107,-1.503342328196457
7.787229572272697,-3.9904996405664894,7.853746602729105,-1.517448802142664
7.747324575867032,-4.07581140797193,7.838572114707678,-1.5409101149324955
7.706566461787313,-4.155219756986506,7.823163013558353,-1.5749577158440553
7.665014264217448,-4.227985749737565,7.807413436399912,-1.6207250496656271
7.622734406720072,-4.2934353736914135,7.791206185903256,-1.679200782426047
7.579800052983158,-4.350978947011138,7.774414178078996,-1.7511875625567566
7.536290263513046,-4.4001242697368355,7.756902302453429,-1.8372702417594453
7.492289020815678,-4.4404820358696435,7.738529600035834,-1.9377964406078831
7.447884200456981,-4.471763104455777,7.719151635629755,-2.052870781228782
7.403166569412424,-4.493768407015928,7.698622927817468,-2.1823623509878707
7.358228885342264,-4.506373290359366,7.676799304307589,-2.325923384874981
7.31316515243867,-4.50950875742984,7.653540070458839,-2.4830160683745492
7.2680700648643715,-4.503142284284352,7.628709909775094,-2.6529439172243743
7.223038642021528,-4.48726069095289,7.602180470602851,-2.8348843548425764
7.178166035112,-4.461857051227727,7.573831627054425,-3.0279197119298384
7.133547464599722,-4.426923002242411,7.543552429935126,-3.23106468248383
7.089278234577298,-4.382447206485728,7.511241783110288,-3.4432890652471153
7.045453762512441,-4.3284202296400744,7.476808892457816,-3.6635352394415976
7.00216956021604,-4.264845777976055,7.4401735400634,-3.8907301846608204
6.9595211024362795,-4.191758096108354,7.401266238216792,-4.123791939376111
6.917603521475196,-4.109245338809314,7.360028318823031,-4.361630228229579
6.876511068087103,-4.017478863805929,7.316412016540735,-4.603140628011076
6.836336279449044,-3.9167486023005287,7.270380610260624,-4.847191153111408
6.797168793426039,-3.8075048951363524,7.22190869872951,-5.092599606210851
6.759093744474675,-3.690407354874877,7.170982702667401,-5.338099573085378
6.722189670925926,-3.5663812983064394,7.117601706936547,-5.582292717284317
6.686525857942861,-3.4366818783013513,7.061778779763704,-5.823585332748695
6.652159039159848,-3.3029648976085544,7.003542926436217,-6.060108379944346
6.619129390183763,-3.1673609408956502,6.942941842636774,-6.289623096124587
6.587455780774806,-3.0325453531535653,6.880045611675528,-6.509419512421382
6.557130327243271,-2.901790272935518,6.814951416551314,-6.716223506545813
6.528112424513916,-2.7789765592672118,6.747789181485856,-6.906139304634694
6.5003226589212435,-2.6685346964245555,6.678727788439509,-7.074666634770783
6.473637311956998,-2.575278894486129,6.607981122091801,-7.216839625542858
6.447884523012137,-2.504104934887026,6.535812725836372,-7.327528552442438
6.422843473663266,-2.4595480851607174,6.462537440311948,-7.401914729441751
6.398247992811659,-2.445245383789152,6.388518293017531,-7.436089200973391
6.373795538973767,-2.4634048713432155,6.3141574010077965,-7.4276523763680755
6.349161490260335,-2.5144229150238773,6.239880877244116,-7.3761428997824146
6.324017261110097,-2.5967752631787007,6.166119448246292,-7.283143961399499
6.29804950847831,-2.707228357053564,6.093288008632297,-7.152015390470836
6.270977224907774,-2.841309005310976,6.021767854727589,-6.987334968346633
6.242564134854665,-2.993891972538812,5.951894505044122,-6.7942263629802655
6.212625215129277,-3.159754824829379,5.8839522414143195,-6.5777567124592595
6.181027666880984,-3.333998616827056,5.818174674289727,-6.3425189160533595
6.147687680712713,-3.512301774782642,5.754749485129193,-6.0924252265179994
6.112564662964886,-3.6910270183855682,5.693825232864013,-5.830674954735235
6.075654392781031,-3.867224613736601,5.635518483316661,-5.559834054222171
6.036982146643665,-4.038575650788338,5.579920142774439,-5.281968306668847
5.996596390135782,-4.20330829372878,5.527100459707751,-4.998788589754786
5.954563307198494,-4.360107285474241,5.477112573810203,-4.711784493144935
5.910962234343751,-4.508026863580688,5.429994728878754,-4.422336100747281
5.865881965707945,-4.646410698440963,5.385771367871281,-4.131802225095867
5.819417858723535,-4.774818934656085,5.344453345620322,-3.841587790934049
5.771669669376974,-4.892960953389325,5.306037467710982,-3.553194776343334
5.722740059843081,-5.0006322742339355,5.270505519947548,-3.268261187512484
5.672733737100741,-5.097654560331426,5.237822908072423,-2.9885916068166254
5.621757191497427,-5.183818712754226,5.207936992004257,-2.7161812184195857
