th1 (rad),w1 (rad/s),th2 (rad),w2 (rad/s)
2.2852944057995632,-0.7183599707113085,2.949536109325746,-2.6004578245265866
2.27811080609245,-0.7829540959289008,2.92353153108048,-2.5714846583818534
2.270281265133161,-0.8485436159959147,2.8978166844966617,-2.5439772256688866
2.261795828973202,-0.9150282731079529,2.872376912239973,-2.518041196112884
2.2526455462421224,-0.982308946159061,2.847196500278844,-2.4937832046456285
2.242822456780532,-1.0502879976743624,2.822258668232388,-2.4713101634671015
2.2323195768037882,-1.118869494402545,2.7975455665977167,-2.4507287582546016
2.2211308818597626,-1.1879592927896971,2.7730382790151706,-2.4321451335228597
2.2092512889318656,-1.2574649870575638,2.748716827679942,-2.415664763262588
2.19667663906129,-1.3272957237126564,2.724560180047316,-2.401392494696129
2.1834036818241636,-1.39736189171715,2.7005462551003547,-2.389432745692789
2.1694300629069923,-1.467574702050409,2.6766519276434266,-2.3798898303617295
2.154754315886488,-1.5378456738692117,2.652853029339809,-2.372868382737337
2.139375859147796,-1.6080860469109202,2.6291243455124356,-2.368473845325663
2.1232949986786864,-1.6782061412249687,2.605439607059179,-2.3668129875327977
2.106512937266437,-1.7481146858652992,2.581771477183851,-2.36799441852333
2.089031790407784,-1.817718137964563,2.558091532998618,-2.372129059697802
2.0708546090281383,-1.8869200127908807,2.5343702424016397,-2.3793305435566103
2.0519854089002294,-1.955620244113015,2.5105769369660735,-2.3897155080627943
2.032429206459099,-2.0237145926166664,2.486679781885446,-2.4034037585717836
2.0121920605329326,-2.091094118358787,2.462645744299728,-2.4205182728271493
1.9912811193493447,-2.1576447314421943,2.4384405615714564,-2.4411850283116316
1.9697046720349227,-2.2232468333537443,2.4140287112883403,-2.4655326352901112
1.9474722037013852,-2.287775059844838,2.389373384935439,-2.4936917630893554
1.9245944531029369,-2.3510981349510547,2.3644364673045457,-2.5257943514283787
1.9010834717534264,-2.413078844858966,2.339178523790262,-2.5619726028308856
1.8769526833048367,-2.4735741399487834,2.313558797761953,-2.602357756185574
1.852216941905349,-2.532435373593037,2.2875352202000974,-2.6470786452147044
1.8268925881694185,-2.589508687299162,2.26106443374795,-2.6962600487832
1.8009975012964268,-2.6446355536721216,2.234101833260118,-2.7500208424207533
1.7745511457597056,-2.6976534915591692,2.2066016248359106,-2.808471961906154
1.747574610844114,-2.7483969717244543,2.178516905216849,-2.871714190026653
1.7200906411268693,-2.796698536563825,2.1497997633165826,-2.9398357764140837
1.692123655761231,-2.8423901637530467,2.1204014055524416,-3.012909897406787
1.6636997541237004,-2.8853049113238294,2.090272306578374,-3.090991957927768
1.634846705010462,-2.9252788904227085,2.0593623869990965,-3.1741167301521513
1.605593916106235,-2.962153621796598,2.027621219697575,-3.262295314034276
1.575972379888269,-2.9957788426402727,1.9949982665572323,-3.3555118923994023
1.5460145914618664,-3.0260158414819984,1.9614431476332383,-3.4537202381899776
1.5157544330470465,-3.0527414097409187,1.9269059452513386,-3.556839913662895
1.4852270189496373,-3.075852508669117,1.8913375461147097,-3.664752081202261
1.4544684938629462,-3.0952717584134573,1.854690025302687,-3.7772948237220216
1.4235157762788115,-3.1109538601545097,1.8169170770654668,-3.894257850858618
1.3924062376772663,-3.1228930601453904,1.7779744985568806,-4.0153764478231055
1.3611773070758124,-3.1311317522819575,1.7378207340786496,-4.140324510957965
1.3298659895529927,-3.1357702883401832,1.69641748896907,-4.268706513930299
1.298508286669591,-3.1369780149840323,1.653730423829767,-4.400048270125536
1.2671385065197507,-3.135005474488587,1.6097299411285115,-4.533786412706162
1.2357884517748647,-3.1301975797971906,1.5643920770014499,-4.669256620345273
1.2044864759768927,-3.1230073900983704,1.5176995107979971,-4.805680793675861
1.173256402075909,-3.114009856527709,1.4696427028612384,-4.942153656402073
1.142116303510632,-3.103914568604393,1.4202211662972177,-5.077629634189488
1.1110771578245882,-3.0935761110219198,1.3694448699553228,-5.210911360791051
1.080141396714369,-3.0840001592060924,1.3173357563474122,-5.340641756281957
1.049301395122308,-3.076342957847721,1.2639293387845927,-5.465302255383163
1.018537965543831,-3.071901446759101,1.2092763162307612,-5.583220310193306
0.9878189510762398,-3.0720911887451092,1.153444113128828,-5.69258955111928
0.9570980391887888,-3.078409629123142,1.0965182176176351,-5.791505696651103
0.9263139428975573,-3.092383295596858,1.0386031606511241,-5.878020177791255
0.8953901099415887,-3.1154994676466057,0.9798229588732116,-5.950211302761774
0.8642351152651226,-3.1491255387283035,0.9203208458455938,-6.006269698688174
0.8327438598778396,-3.1944223751310976,0.8602581488587121,-6.044591191865793
0.8007996361265286,-3.2522607087656135,0.7998122369400542,-6.06386711993458
0.7682770290388725,-3.323151051490181,0.7391735657407084,-6.063160448322742
0.7350455185239707,-3.40719698005192,0.6785419612574809,-6.041956956340806
0.7009735487234515,-3.5040786477942807,0.6181223916940728,-6.00018444420189
0.6659327622455087,-3.6130685688554856,0.5581205472520538,-5.938198666398176
0.6298020765569539,-3.7330763376786678,0.4987385605880721,-5.856740935985484
0.5924713131801672,-3.8627144764233408,0.44017115122821726,-5.756877240531913
0.5538441684159338,-4.000375161916459,0.38260237882289816,-5.639930961762358
0.5138404167967692,-4.144307510228734,0.3262030692052746,-5.507420610858885
0.47239734169448183,-4.292686943102356,0.2711288630966857,-5.361011072073659
0.42947047226345825,-4.443671027998316,0.21751875237594914,-5.2024828960363445
0.3850337619834751,-4.595439160667305,0.1654939234155857,-5.0337203571780575
0.3390793703768021,-4.746215929874861,0.11515671984380511,-4.856716015425752
0.2916172110780535,-4.894279740180068,0.06658955968954759,-4.673587613322986
0.2426744136762528,-5.037959351935795,0.019853683556317732,-4.486602119104517
0.19229482015689486,-5.175621669965878,-0.02501233763472744,-4.298201232718578
0.14053860345723607,-5.305654635886914,-0.06799434996191323,-4.11102234374382
0.08748205709836693,-5.4264496360111805,-0.10910457339935142,-3.927908533765862
0.033217560738255124,-5.536388465939597,-0.14838365873701004,-3.7519007267715594
-0.022146323921140847,-5.633840449651257,-0.18590266600472563,-3.586204748043923
-0.07848472841765342,-5.71717545040961,-0.22176471348516485,-3.434126377640541
-0.13565648292174953,-5.7847977201728105,-0.25610597726157025,-3.2989692344041748
-0.19350446012347763,-5.835203259622954,-0.289095669605612,-3.183894293601503
-0.25185649271970717,-5.8670592714914385,-0.32093461254162703,-3.091746458294311
-0.31052708543462154,-5.879298650619623,-0.3518520771245701,-3.0248623878860754
-0.3693200719408178,-5.871216445345437,-0.38210070100343085,-2.984882871720219
-0.4280322363942722,-5.84255090753681,-0.41194952972063303,-2.972599245709544
-0.48645774546964027,-5.793531410194971,-0.4416755221777285,-2.987863204109444
-0.54439305957159,-5.724880470522182,-0.4715541542188229,-3.0295808796544805
-0.6016418642768119,-5.637766616377338,-0.5018499630153677,-3.0957964559021787
-0.6580195304405853,-5.533715917051124,-0.5328079275743894,-3.183852421404692
-0.7133566896110966,-5.414498751305819,-0.5646464517884363,-3.2905989732384913
-0.7675016771241547,-5.282011903432638,-0.5975524415208212,-3.4126186455953316
-0.8203217961584811,-5.138173846061318,-0.6316786279767745,-3.546434971600546
-0.8717035346190943,-4.9848448738169635,-0.66714297769278,-3.6886832961259715
-0.921551983357264,-4.823776404134086,-0.7040298106540397,-3.8362334608242357
-0.9697897473986048,-4.656587638236947,-0.742392145262282,-3.98626421813831
-1.0163556237809743,-4.484764041440984,-0.7822547874436652,-4.136295912785275
-1.0612032641953841,-4.309670752479966,-0.8236177465715179,-4.2841910034628095
-1.1042999717201838,-4.1325743894632945,-0.866459656606146,-4.428132277835073
-1.1456257156148166,-3.9546679560045184,-0.9107409793844967,-4.566587341829124
-1.1851723951748618,-3.77709499947213,-0.9564068528027879,-4.6982661516998805
-1.222943345169583,-3.6009704323602145,-1.0033895143197866,-4.822076648101603
-1.258953049493185,-3.427396329090915,-1.0516102808008028,-4.93708224644906
-1.2932270127840941,-3.257471545786359,-1.1009811032652934,-5.042464095113791
-1.3258017282419576,-3.092294265188934,-1.1514057442164314,-5.137490544298453
-1.356724670893847,-2.932956679325842,-1.202780649659416,-5.221496005220434
-1.3860542376871055,-2.780531151303243,-1.2549956097116204,-5.293871110855562
-1.4138595492001378,-2.6360475140024358,-1.307934320820176,-5.354065591410033
-1.4402200243401622,-2.5004618144012203,-1.3614749767342762,-5.401604349773479
-1.4652246424841744,-2.3746178753583616,-1.415491020232011,-5.436115750541111
-1.488970821237758,-2.2592044686700956,-1.469852177737422,-5.457369175086614
-1.5115628659244589,-2.154712437136845,-1.5244258694882882,-5.465316739657581
-1.5331099902958274,-2.0613973468171496,-1.579079036884864,-5.4601322669213275
-1.5537239637639988,-1.9792536766518487,-1.6336803595540772,-5.442239820897064
-1.5735165005305172,-1.908005740618669,-1.6881027577630479,-5.412324923577547
-1.5925965579367038,-1.8471183917752032,-1.7422260069988234,-5.3713241162073295
-1.611067741854456,-1.7958274491935795,-1.7959392481608967,-5.320392350518194
-1.6290260163463917,-1.753186494973995,-1.8491431716660787,-5.2608518055610345
-1.6465578812961317,-1.718124114236575,-1.901751689721689,-5.194128963376959
-1.6637391224384974,-1.689504463314162,-1.9536929793554587,-5.121688285287701
-1.6806341670716392,-1.6661844248827984,-2.004909862208336,-5.044970387643696
-1.6972960113204671,-1.6470622133023225,-2.055359566084773,-4.965340645669025
-1.7137666334534905,-1.6311145009831964,-2.1050129725414632,-4.884051456298432
-1.7300777784633223,-1.6174213049386985,-2.1538534871044477,-4.8022187740052455
-1.7462519915127093,-1.6051795564258018,-2.2018756748445,-4.720811546558795
-1.7623037870769673,-1.5937072975329925,-2.249083790310088,-4.640651526116143
-1.7782408600522972,-1.5824408483065289,-2.2954903055712497,-4.562420544592011
-1.7940652685353624,-1.5709272286277054,-2.3411145110171696,-4.486672504755663
-1.8097745408216395,-1.5588137907304567,-2.385981236064726,-4.413847806483056
-1.825362678728944,-1.545836581458564,-2.4301197141295567,-4.344288501583874
-1.8408210445435298,-1.5318085169539029,-2.4735625991453953,-4.27825302008553
-1.8561391297130687,-1.5166080756341118,-2.5163451293462504,-4.215929769015745
-1.87130521046941,-1.5001689202701785,-2.5585044270364077,-4.157449250755747
-1.8863068996721117,-1.4824706462084214,-2.6000789195439653,-4.102894588168874
-1.9011316061341959,-1.4635307085554043,-2.641107865425654,-4.052310496574151
-1.91576691321975,-1.4433974910558185,-2.6816309703913954,-4.005710829921168
-1.930200888130308,-1.422144428587138,-2.7216880786906072,-3.9630848700510595
-1.9444223324161796,-1.3998650712283423,-2.761318927391118,-3.924402539678561
-1.958420983128463,-1.3766689711787476,-2.8005629527879035,-3.8896187135599556
-1.9721876728402503,-1.3526782775176747,-2.839459139923503,-3.858676786469714
-1.9857144556154271,-1.3280249331884462,-2.8780459077882004,-3.831511636509381
-1.9989947049473116,-1.3028483805810853,-2.9163610241532942,-3.8080521012613735
-2.0120231887531226,-1.277293694765537,-2.954441545165908,-3.7882230642952717
-2.024796125700778,-1.2515100756769464,-2.992323775808861,-3.7719472315136997
-2.0373112264575477,-1.2256496417844982,-3.030043248123998,-3.759146661180249
-2.0495677228753926,-1.1998664777221852,-3.0676347147358003,-3.749744098247147
-2.0615663876526145,-1.1743158969576328,-3.105132155718272,-3.7436641526493153
-2.0733095466221907,-1.1491538878691399,-3.142568797244765,-3.740834352316496
-2.084801085500882,-1.1245367176939016,-3.1799771407679303,-3.7411860945062623
-2.096046452677821,-1.10062067382839,-3.2173890017129927,-3.7446555134087145
-2.1070526594161048,-1.077561926036174,-3.25483555684708,-3.7511842775669173
-2.1178282786764666,-1.0555164963742092,-3.292347399622749,-3.760720327268798
-2.1283834436402085,-1.034640326199538,-3.329954602895437,-3.773218559495603
-2.138729846902204,-1.0150894315644228,-3.367686788490393,-3.7886414660831984
-2.148880741217848,-0.9970201397345473,-3.405573203151225,-3.8069597293113393
-2.1588509426151936,-0.9805894005427506,-3.4436428004443385,-3.8281527780471287
-2.168656836620621,-0.9659551668758953,-3.48192432822481,-3.8522093067119294
-2.17831638828938,-0.9532768388264805,-3.520446421291929,-3.8791277586081603
-2.1878491566776446,-0.9427157659504416,-3.5592376988780106,-3.9089167744351734
-2.197276314337149,-0.9344358016702288,-3.5983268666223625,-3.9415956060502184
-2.2066206723538513,-0.9286039031442402,-3.6377428226828648,-3.977194494604237
-2.2159067113852937,-0.9253907688703367,-3.677514767628907,-4.015755011017919
-2.225160619073997,-0.9249715048657452,-3.7176723177390865,-4.0573303552758775
-2.2344103341226544,-0.927526308413466,-3.758245621291845,-4.101985609118383
-2.243685597206789,-0.9332411560127111,-3.7992654773830288,-4.149797934308637
-2.253018008766916,-0.9423084792246513,-3.840763456726115,-4.200856705650329
-2.2624410935591626,-0.9549278084514671,-3.882772023782618,-4.25526356421882
-2.2719903716436773,-0.9713063601932616,-3.9253246594248066,-4.313132371734661
-2.28170343524561,-0.9916595378423365,-3.968455983142153,-4.374589041528056
-2.2916200306240335,-1.016211309431234,-4.012201873557434,-4.439771214990372
-2.301782143718346,-1.045194417774692,-4.056599585707337,-4.508827744658973
-2.3122340878960927,-1.0788503689630289,-4.101687863153927,-4.581917936022143
-2.323022591585723,-1.117429134020958,-4.147507042514149,-4.65921048967937
-2.3341968829259327,-1.1611884856311978,-4.194099147410943,-4.740882073622581
-2.345808767782245,-1.2103928771079902,-4.241507968147168,-4.827115442183659
-2.3579126965533246,-1.2653117543981016,-4.289779122569005,-4.918097003837177
-2.3705658140973056,-1.326217174100585,-4.338960092607377,-5.014013724987548
-2.3838279858383116,-1.3933805819518814,-4.389100229857252,-5.115049241851747
-2.3977617916578304,-1.4670685879722387,-4.44025072227577,-5.2213790387485
-2.412432477537553,-1.5475375581535111,-4.492464512663255,-5.333164540271984
-2.427907853119088,-1.6350268305991065,-4.545796158065975,-5.4505459594481716
-2.444258121425079,-1.7297503597861443,-4.600301617660456,-5.573633747431944
-2.4615556250229402,-1.8318866006494314,-4.656037955134775,-5.702498507033553
-2.4798744910294346,-1.9415664703232003,-4.713062940205111,-5.837159267906446
-2.4992901557326666,-2.058859276758483,-4.771434532884175,-5.977570082157917
-2.5198787485002514,-2.1837565882738894,-4.831210233705755,-6.123604992723598
-2.5417163143829904,-2.3161541450710534,-4.8924462836329905,-6.275041560293108
-2.564877855833701,-2.455832090825459,-4.9551966992359215,-6.431543313760524
-2.5894361767419554,-2.6024340350211115,-5.019512132373527,-6.592641716633641
-2.6154605170921665,-2.755445744764542,-5.085438549539863,-6.7577185140092935
-2.643014974539812,-2.9141745995421946,-5.153015734679956,-6.925989628568928
-2.672156720535234,-3.077731302067553,-5.222275630965645,-7.096492083502303
-2.7029340335559096,-3.245015684824421,-5.293240551800668,-7.2680757034563666
-2.7353841904041536,-3.41470872866331,-5.365921308835232,-7.439401523337373
-2.7695312776907866,-3.585273043893242,-5.440315324068606,-7.608948848204496
-2.8053840081297188,-3.754963973923106,-5.51640481255065,-7.775032681755451
-2.84293364786895,-3.9218530908337024,-5.594155139368205,-7.935832715927633
-2.882152178777287,-4.083865113205985,-5.673513466527481,-8.089434226025304
-2.9229908299093466,-4.23882819382827,-5.754407808787734,-8.233880080472218
-2.9653791118476294,-4.384536177474785,-5.836746609592456,-8.367231764199142
-3.0092244736223774,-4.518819977603428,-5.920418927234448,-8.487636018216794
-3.054412673398412,-4.639623893023668,-6.005295287416616,-8.593392653705704
-3.1008089123286484,-4.745081733524786,-6.091229213953673,-8.683018543903174
-3.1482597296638963,-4.833587261977888,-6.178059399392705,-8.755302899245475
-3.1965956022836752,-4.9038538026427165,-6.265612428385159,-8.809349729157082
-3.2456341403101026,-4.954958880000359,-6.3537059256767305,-8.844604767989415
-3.2951837291101063,-4.986371262508215,-6.442151973356625,-8.860865835957949
-3.3450474417351885,-4.997959514064656,-6.530760631716204,-8.858277292375773
-3.395027036875835,-4.989982802219671,-6.619343404639961,-8.837310615237373
-3.4449268648980316,-4.963066032576028,-6.707716510792335,-8.798734010872659
-3.494557525223792,-4.918162240369831,-6.795703850901062,-8.743574269482787
-3.54373914762749,-4.856505562188682,-6.88313959359589,-8.67307392291008
-3.592304203249377,-4.779558117039103,-6.969870332824991,-8.588646301126065
-3.640099784419768,-4.6889538756367575,-7.055756795836252,-8.4918305128421
-3.6869893231761357,-4.5864422155934195,-7.140675100964673,-8.384247844158553
-3.73285374533207,-4.473833438782306,-7.224517579406259,-8.267560660067943
-3.7775920797198927,-4.352948111960327,-7.307193186006938,-8.143434621285959
-3.821121560839496,-4.225571693648005,-7.388627532219798,-8.013504859553665
-3.863377277775976,-4.09341552228388,-7.468762580815334,-7.879346634548623
-3.9043114329988144,-3.958084854607177,-7.54755604716082,-7.742450875999694
-3.943892281544886,-3.8210542601206723,-7.624980555920817,-7.604204866372592
-3.982102824146093,-3.683650309986798,-7.7010226045845425,-7.465878136992494
-4.018939327245961,-3.5470411672971,-7.775681385954467,-7.328613447059161
-4.054409738918932,-3.4122324120617487,-7.848967520425059,-7.193422514159236
-4.088532063039549,-3.280068235213937,-7.920901745566651,-7.061185991052636
-4.121332745391689,-3.151237019198092,-7.991513605477177,-6.932657055414252
-4.15284511558367,-3.026280286181554,-8.06084017603132,-6.808467906453819
-4.183107918445486,-2.9056040280523665,-8.128924855095859,-6.689138445199931
-4.212163958726009,-2.789491519125965,-8.195816239547858,-6.575086446603963
-4.240058873917269,-2.6781168347017617,-8.261567104013897,-6.466638599874825
-4.2668400422642865,-2.571558438797654,-8.326233490012646,-6.364041885361942
-4.292555626652263,-2.4698123477168554,-8.389873908866265,-6.26747485930871
-4.3172537501294315,-2.372804511398386,-8.452548657459353,-6.177058521485657
-4.340981795243415,-2.2804021744403364,-8.51431924267421,-6.092866537454539
-4.363785816987819,-2.192424079383448,-8.575247908048755,-6.014934672201799
-4.385710057781653,-2.1086494551745547,-8.635397254770773,-5.943269362754324
-4.4067965523333985,-2.028825794533233,-8.694829948398317,-5.877855413691947
-4.427084810278731,-1.9526754672890025,-8.753608502535236,-5.818662842048705
-4.446611564951621,-1.8799012453345856,-8.811795130955723,-5.765652928579842
-4.465410577404967,-1.810190831526411,-8.869451660241522,-5.718783552756492
-4.483512485720231,-1.7432204924135482,-8.926639495769086,-5.678013901184223
-4.500944690644367,-1.678657895562572,-8.983419634780928,-5.643308645330466
-4.5177312695999925,-1.6161642485845154,-9.039852721234233,-5.614641686133479
-4.533892912085838,-1.5553958305193234,-9.095999138095568,-5.591999561574237
-4.549446870391031,-1.4960049984385455,-9.15191913371131,-5.575384609597994
-4.564406920375417,-1.4376407441971881,-9.20767297980729,-5.56481797348942
-4.578783327817389,-1.3799488692719115,-9.263321159542183,-5.560342530170926
-4.592582816510108,-1.3225718406198592,-9.318924584843893,-5.562025813722988
-4.6058085349163065,-1.2651483886682366,-9.374544842981123,-5.569962996023927
-4.618460018802989,-1.2073129114133285,-9.430244472941363,-5.584279972412186
-4.630533147917123,-1.1486947582706246,-9.486087272665484,-5.605136580389633
-4.642020095499829,-1.0889174868341187,-9.54213863846938,-5.632729949947665
-4.65290927036817,-1.0275982196259341,-9.598465937968857,-5.667297939406694
-4.663185252564429,-0.9643472830862309,-9.655138917362924,-5.709122541927717
-4.672828725395291,-0.8987683977631191,-9.712230142782202,-5.758533041619363
