th1 (rad),w1 (rad/s),th2 (rad),w2 (rad/s)
5.590807679526453,-1.992605142336626,1.0428577214008647,1.354534738004895
5.570881628103087,-1.9302951357054108,1.0564030687809136,1.2409086320923812
5.551578676746033,-1.8694994673094991,1.0688121551018375,1.1310113236212185
5.532883682072938,-1.809907387375386,1.0801222683380496,1.0246324519326742
5.514784608199184,-1.7512374046993908,1.0903685928573763,0.9215969376734167
5.49727223415219,-1.6932344120417875,1.0995845622341105,0.8217587360243231
5.480339890031772,-1.6356673602664922,1.1078021495943537,0.7249953699773324
5.4639832164291064,-1.5783273681496168,1.115052103294127,0.6312031334634012
5.44819994274761,-1.521026172377306,1.121364134628761,0.5402928776178004
5.432989681023837,-1.4635948375958916,1.1267670634049392,0.4521863119204413
5.418353732647878,-1.4058826597902465,1.1312889265241435,0.36681276600868556
5.404294906049976,-1.347756208044109,1.1349570541842304,0.2841063683141716
5.390817343969535,-1.2890984601125297,1.1377981178673722,0.20400360499896925
5.377926359368409,-1.2298079963792146,1.1398381539173619,0.12644122759657467
5.365628279404617,-1.1697982247914769,1.1411025661933276,0.051354480882826306
5.353930297156702,-1.1089966163322147,1.1416161110021559,-0.021324375669547313
5.34284033099338,-1.0473439365457324,1.1414028672454604,-0.0916672785117076
5.332366891627923,-0.984793463615829,1.1404861944603433,-0.1597513278528821
5.322518956991765,-0.9213101875354769,1.1388886811818144,-0.2256595374939683
5.313305855116409,-0.8568699880530439,1.1366320858068748,-0.28948139104291204
5.304737155235879,-0.7914587913909964,1.1337372718964456,-0.3513132282923159
5.296822567321969,-0.7250717072868452,1.1302241396135224,-0.41125848466096826
5.2895718502491,-0.6577121487957065,1.1261115547669127,-0.46942780542600215
5.282994728761143,-0.5893909376241974,1.1214172767126527,-0.5259390550306746
5.277100819384901,-0.5201253976485248,1.116157886162346,-0.5809172401110059
5.2718995654084155,-0.44993843881905543,1.110348713761236,-0.6344943631347336
5.267400181020225,-0.3788576329786895,1.1040037701298886,-0.6868092217940259
5.263611604690438,-0.3069142823228763,1.0971356779119483,-0.7380071676483774
5.260542461867209,-0.23414248039105562,1.0897556062354645,-0.7882398360798395
5.258201037063299,-0.16057816467132563,1.0818732078746662,-0.8376648584904671
5.256595255416586,-0.08625815917110698,1.0734965592897616,-0.8864455669152911
5.255732673824874,-0.011219204684395606,1.0646321036206088,-0.934750700896319
5.25562048177803,0.06450302602252612,1.0552845966116455,-0.982754126595295
5.256265512038255,0.14087493129441636,1.0454570553456926,-1.0306345787253175
5.257674261351199,0.2178660054704033,1.0351507095584394,-1.0785754369450935
5.259852921405903,0.2954498894267856,1.0243649551889884,-1.126764549860513
5.262807420300171,0.3736054510184267,1.0130973096903833,-1.1753941216819073
5.266543474810355,0.452317900167468,1.0013433684735642,-1.2246606788529617
5.27106665381203,0.5315799440765986,0.9890967616850346,-1.2747651365622956
5.276382453252795,0.6113929890883432,0.9763491103194116,-1.3259129879444262
5.282496383143679,0.6917683971744427,0.9630899804399674,-1.3783146419638763
5.289414067115423,0.7727288070275833,0.9493068340203287,-1.4321859394704073
5.297141355185699,0.8543095323524752,0.9349849746256246,-1.4877488807633008
5.305684450509224,0.9365600533294979,0.9201074858179916,-1.545232602296315
5.315050051042519,1.0195456214713787,0.9046551597950284,-1.6048746450255988
5.3252455072572324,1.1033490033369426,0.8886064133447724,-1.666922562532504
5.336278997290602,1.188072394937385,0.8719371877194474,-1.7316359236733376
5.348159721239976,1.273839546305972,0.854620828482714,-1.7992887723948068
5.360898116703035,1.3607981447359236,0.836627940758766,-1.8701726168144954
5.374506098150395,1.4491225157394678,0.8179262145906211,-1.9446000310098008
5.388997323307789,1.5390167129061179,0.7984802142805231,-2.022908966442597
5.40438749043685,1.630718081479996,0.7782511246160971,-2.1054678856710543
5.42069467125165,1.7245013953225874,0.7571964457593866,-2.192681848724474
5.437939685204876,1.8206836821799908,0.7352696272721418,-2.284999701331231
5.456146522026676,1.9196298661259377,0.7124196302588295,-2.3829225319277496
5.475342820687935,2.0217593653411274,0.688590404939552,-2.4870135765806323
5.495560414341346,2.1275537816737438,0.6637202691737457,-2.5979097490445464
5.516835952158083,2.2375657940432574,0.6377411716833002,-2.716334941211413
5.539211610098516,2.3524292995755207,0.6105778222711861,-2.843115148128142
5.5627359030942705,2.4728706964665816,0.5821466707899047,-2.979195269208041
5.5874646100589365,2.5997209032308985,0.5523547180978242,-3.1256570294488344
5.6134618190912455,2.733927139637254,0.5210981478033359,-3.2837366840782503
5.640801090487618,2.876562441439111,0.4882607809625533,-3.454839719680506
5.669566714902009,3.0288289668499844,0.45371238376574824,-3.640547118982802
5.699855004570509,3.1920477198375368,0.41730691257592023,-3.8426029966655864
5.731775481768884,3.367621241160499,0.37888088260926434,-4.062864969156295
5.765451694180489,3.5569452676991373,0.3382522329177014,-4.30318391895983
5.80102114685748,3.761227593383799,0.2952203937281031,-4.565154998011876
5.838633422791318,3.981144116274527,0.24956884374798433,-4.849642163522418
5.878444863954064,4.216222204313503,0.20107242211276014,-5.155922570652101
5.920607085997199,4.463800671247189,0.1495131964062391,-5.480239411977037
5.965245092709671,4.717422440367951,0.09471080228646875,-5.813560074568084
6.012419317113351,4.964709556827125,0.03657520154078791,-6.138605485270816
6.062066412681622,5.185421771767053,-0.024810853311920247,-6.427126496347272
6.113920630399292,5.351707811227726,-0.08908211827539297,-6.640233638122773
6.167437708511569,5.433692420495536,-0.1554844546566207,-6.7361766407644
6.221774632716524,5.411453002757101,-0.22284622106426472,-6.687049398915201
6.275889162744096,5.286987786143573,-0.28971671505341673,-6.495474483429845
6.328759040605531,5.084839239309348,-0.3546714598877152,-6.195439982379081
6.3796074329986245,4.839476232446387,-0.416625859711506,-5.834690658463267
6.428002195323089,4.5810582650987515,-0.47497276629613866,-5.454928808436693
6.473812777974076,4.329199657813667,-0.5295220543805056,-5.083198282526927
6.517104774552212,4.093880597569476,-0.5803540372057748,-4.733202676511278
6.558043580527907,3.878754970222211,-0.6276860639708877,-4.4099235121283815
6.59683113023013,3.6840430408186573,-0.6717852990921714,-4.113637236954541
6.633671560638316,3.508370133518574,-0.7129216714617168,-3.842458148148624
6.6687552619735015,3.349768375329033,-0.751346252943203,-3.5937178405662387
6.702252945726792,3.2061696528807695,-0.7872834313488654,-3.3646403399270386
6.734314642255599,3.0756243064035247,-0.8209298347481357,-3.152639127475182
6.765070885319634,2.9563820911306453,-0.8524562260228876,-2.955425153235425
6.794634706230941,2.8469080008958905,-0.8820104775552419,-2.771025968513164
6.8231037862398995,2.745869680859145,-0.9097207372403735,-2.5977663972936216
6.850562483048491,2.652114335469221,-0.9356984012133097,-2.4342351794340287
6.877083626403183,2.5646434995674543,-0.96004075300765,-2.2792489025628715
6.902730061398858,2.4825893178581673,-0.9828332420332787,-2.1318180780711153
6.927555954577439,2.405193694388957,-1.0041514228139898,-1.9911171141372728
6.951607891521329,2.3317906078350554,-1.0240625939553625,-1.8564585072211082
6.9749257975996795,2.261791422378679,-1.0426271790275736,-1.72727096162092
6.997543711823466,2.194672847752507,-1.059899888643783,-1.6030809287694594
7.0194904403009915,2.1299671610331186,-1.0759306979314776,-1.4834970224548074
7.040790111911322,2.067254320791264,-1.0907656681560256,-1.368196809076994
7.061462655119235,2.006155644356882,-1.1044476362467956,-1.2569155431414611
7.081524211562804,1.9463287640734401,-1.1170167916782103,-1.1494364939804043
7.100987499203538,1.887463621113333,-1.1285111566180144,-1.045582579927134
7.119862135414671,1.8292792930724198,-1.1389669824172857,-0.945209086989406
7.138154928345395,1.7715214837400897,-1.1484190732871797,-0.8481972996158488
7.1558701431827965,1.7139605306728691,-1.1569010462833382,-0.7544489118915927
7.173009748489525,1.656389809313633,-1.1644455354022543,-0.6638811194260263
7.189573646582661,1.5986244322314052,-1.1710843465965146,-0.5764223164575186
7.205559890904976,1.54050015932056,-1.1768485697610898,-0.4920083404521346
7.2209648924981815,1.481872450036171,-1.181768653165611,-0.41057921881961323
7.235783616998543,1.422615602328458,-1.1858744453538073,-0.3320763803456702
7.250009773021828,1.3626219351012956,-1.189195209157264,-0.2564402985077854
7.2636359923728415,1.3018009818708098,-1.1917596121423417,-0.18360853588748638
7.27665400219155,1.2400786728748827,-1.1935956975012165,-0.11351415921600508
7.289054788920299,1.177396491173249,-1.1947308390933766,-0.04608449389620972
7.300828753832032,1.113710595256809,-1.1951916840323387,0.01875981427149606
7.3119658597846,1.0489909063393728,-1.1950040858896238,0.08110546348829445
7.322455768847994,0.9832201628472479,-1.1941930312547409,0.14104692045013123
7.332287970476466,0.9163929476997625,-1.1927825620502395,0.19868663889006732
7.341451899953464,0.8485146958738434,-1.1907956956613388,0.25413510533338746
7.349937046912203,0.7796006905912759,-1.188254344608005,0.30751074363737063
7.357733053818116,0.7096750564110939,-1.1851792371716312,0.358939707557573
7.364829804382227,0.6387697567248596,-1.1815898400960554,0.4085555876406711
7.3712175019494754,0.5669236018226081,-1.1775042842196486,0.45649905536164137
7.376886737967702,0.49418127200493245,-1.1729392936660321,0.5029174637966851
7.381828550687751,0.4205923583356843,-1.1679101190280652,0.547964420456845
7.386034474271108,0.34621042171676814,-1.1624304748234968,0.5917993443975358
7.389496578488276,0.271092069155684,-1.1565124813795216,0.6345870165444345
7.392207499179833,0.19529604449577576,-1.1501666112140772,0.6764971294875084
7.394160459624791,0.11888232956824424,-1.143401639919202,0.7177038409112458
7.395349282920473,0.04191125075476716,-1.1362246015100894,0.7583853334340585
7.395768395428021,-0.035557414657415354,-1.1286407481757488,0.7987233829711614
7.395412821281448,-0.11346533819423393,-1.1206535143460372,0.8389029378259518
7.394278167899505,-0.1917565517724082,-1.1122644849677776,0.8791117115353614
7.392360602381781,-0.2703783765626796,-1.103473367852424,0.9195397939960404
7.389656818616154,-0.349282374002348,-1.0942779699124636,0.9603792875069179
7.386163994876131,-0.428425323142781,-1.0846741770373944,1.0018239769865322
7.381879741644703,-0.5077702278285265,-1.074655937267529,1.044069046654128
7.376802039366417,-0.5872873566195023,-1.0642152468009878,1.0873108587894527
7.370929165800223,-0.6669553180089014,-1.0533421382130932,1.1317468136971605
7.364259612620134,-0.7467621734835279,-1.0420246700761215,1.177575313598736
7.356791990885299,-0.8267065914477278,-1.030248916940134,1.2249958567798593
7.348524924970821,-0.9067990461125994,-1.0179989583723354,1.2742092918874317
7.339456934509695,-0.9870630672606192,-1.005256865453461,1.3254182657928584
7.329586303837089,-1.0675365494495508,-0.9920026827955325,1.3788279019630396
7.318910938342594,-1.1482731328319944,-0.9782144037759021,1.4346467499149278
7.307428207014274,-1.2293436724503422,-0.9638679362767528,1.4930880502493127
7.295134770289771,-1.3108378187363972,-0.9489370557742597,1.55437136421562
7.282026392102407,-1.392865739124836,-0.9333933421321035,1.6187246220821139
7.268097734711159,-1.475560019320646,-0.9172060959112823,1.6863866511857672
7.253342134517952,-1.5590777930063955,-0.9003422293994247,1.7576102529015596
7.237751356587888,-1.6436031608263661,-0.882766126870409,1.8326659084581458
7.221315324979625,-1.7293499735546867,-0.8644394677858276,1.911846207137157
7.204021825244078,-1.8165650706595062,-0.845321005714456,1.9954711075287455
7.185856174537483,-1.9055320841807208,-0.8253662946391686,2.083894163691685
7.166800853695676,-1.9965759389495017,-0.8045273530022518,2.1775098735460623
7.146835094306181,-2.090068203318923,-0.7827522542667912,2.2767623363137774
7.125934412272992,-2.186433468579149,-0.7599846309036534,2.382155437888242
7.1040700775872,-2.286156957374829,-0.736163076524771,2.4942648140481882
7.081208508013452,-2.389793576048386,-0.7112204283842891,2.6137518637103985
7.057310572252968,-2.4979786217143145,-0.6850829097471851,2.741380082590313
7.032330786035825,-2.6114403106753024,-0.6576691089212819,2.878033932283799
7.006216382929072,-2.7310141705033066,-0.628888769598444,3.0247402956118368
6.978906241224038,-2.8576590594974136,-0.5986413666423256,3.182692193323799
6.950329650629064,-2.9924740074183673,-0.5668144447090876,3.353273660092438
6.920404910554881,-3.136713959007804,-0.5332817081081632,3.5380831498476795
6.889037770964803,-3.2918003872576387,-0.4979008766096864,3.738949922085317
6.856119767092227,-3.459318793281954,-0.46051137738883324,3.9579323893981346
6.821526579159407,-3.640987836995983,-0.4209320534948519,4.197277304079733
6.785116700789447,-3.8385716811076165,-0.3789592804540546,4.459300334025017
6.746730983978371,-4.053683947343923,-0.3343662771138044,4.74611622277401
6.706194144504932,-4.287392829006638,-0.2869051148860643,5.059092380937189
6.663320216214865,-4.5394781217397036,-0.2363141910766924,5.397817320781408
6.617925434997468,-4.807122278982379,-0.18233601786887832,5.758278625823972
6.569854212207644,-5.082803557290647,-0.1247532316106386,6.129924030059051
6.519026176634737,-5.3514094245450385,-0.06345399131004809,6.491626819582822
6.465512082389287,-5.587551250266279,0.0014622768857801421,6.807922100308958
6.409636569886624,-5.7561089303146025,0.06954149788886972,7.0297469168766735
6.352075480583478,-5.820742945341654,0.13983896705763646,7.106312335628032
6.293868051130062,-5.761152500397271,0.21090209041391678,7.009194177443654
6.236256526126089,-5.587603122910381,0.28099403218835334,6.752584829652239
6.180380494896985,-5.336654709770532,0.3485198804848757,6.387275418441418
6.12701394779928,-5.051037808601317,0.4123926346692899,5.972572332393135
6.0765035697132666,-4.763104550176224,0.4721183579932212,5.55329187547569
6.028872524211504,-4.490976005035742,0.5276512767479781,5.154475597710667
5.983962764161147,-4.242149881050624,0.5791960327250847,4.786457423920174
5.941541265350641,-4.0181026225480085,0.6270606069642864,4.4512727263358025
5.901360239125161,-3.8174791071069816,0.6715733342276444,4.147082207872577
5.863185448054091,-3.637850060792578,0.7130441563063702,3.8706000707771127
5.8268069474461655,-3.47656159775811,0.7517501570141413,3.618262658275147
5.792041331468584,-3.3311011197715676,0.7879327835968928,3.386728689443966
5.758730320270868,-3.199228121165023,0.8218000704913324,3.1730559200026756
5.726738039059218,-3.0789984786922777,0.8535306296913592,2.974731931858274
5.695948054272296,-2.968744683560708,0.8832779490099419,2.789645002320441
5.666260607436689,-2.8670410444321472,0.9111743990331463,2.616034782789199
5.637590196992368,-2.772666693527456,0.9373347468610383,2.4524402059563077
5.609863530057093,-2.6845715949010005,0.9618591489206014,2.297651573907986
5.583017814108083,-2.601847259718767,0.9848356646596813,2.1506690187365436
5.556999341510895,-2.5237023460662127,1.0063423548470467,2.010667468833776
5.531762318050233,-2.449442712578635,1.0264490295353845,1.8769674534829024
5.507267890924447,-2.378455305068831,1.0452187040702134,1.7490108474367005
5.483483337873759,-2.310195245922884,1.0627088125445805,1.6263406708560368
5.46038138541453,-2.2441755565265997,1.0789722192531408,1.5085841670560698
5.437939629849264,-2.1799590231800927,1.0940580609237014,1.3954385125583986
5.4161400396174635,-2.117151795512057,1.1080124460492853,1.286658641717113
5.394968521662343,-2.055398375489513,1.1208790324664564,1.1820467806024566
5.374414537907448,-1.9943777130265608,1.132699500272481,1.0814433789793347
5.354470760777183,-1.9338001717939868,1.1435139340622742,0.9847192056316522
5.335132759059243,-1.8734051678803743,1.1533611261185908,0.8917684327353453
5.316398707380439,-1.8129593163324167,1.1622788104459443,0.8025025815610864
5.298269114217115,-1.7522549479676208,1.1703038362615552,0.7168452365249982
5.280746564737439,-1.6911088825257374,1.1774722886268052,0.6347274593755705
5.263835475912181,-1.629361365164258,1.1838195632205608,0.5560838518202407
5.2475418622605385,-1.5668750921350438,1.1893804017387632,0.480849224736925
5.231873111339188,-1.5035342685533157,1.1941888939861325,0.4089558367576271
5.2168377686536545,-1.4392436566241076,1.1982784523537087,0.34033116582652345
5.2024453320874136,-1.3739275865169112,1.201681764011974,0.27489617558771134
5.1887060562222445,-1.3075289141873159,1.204430725767851,0.21256403528132067
5.175630767080372,-1.2400079207203216,1.2065563661206642,0.15323924819702123
5.163230687873169,-1.1713411561186335,1.2080887586026343,0.09681714044603129
5.151517276311982,-1.1015202368369321,1.2090569300070946,0.04318365946440977
5.140502073943613,-1.0305506107957136,1.2094887666017387,-0.007784569351799837
5.130196567835656,-0.9584503061966814,1.2094109209082207,-0.05621997895143544
5.120612064773689,-0.8852486813764856,1.2088487211187062,-0.10226363884652914
5.1117595779599245,-0.8109851924043001,1.207826084730241,-0.1460647206604866
5.103649726035882,-0.7357081934178209,1.2063654375236361,-0.18777989162786782
5.096292644101704,-0.6594737820880222,1.2044876386073575,-0.22757267092847855
5.089697906280823,-0.5823446993929304,1.2022119118980727,-0.26561277738646194
5.083874459286894,-0.5043892893377458,1.1995557841242082,-0.30207549043952675
5.078830566393516,-0.4256805206293042,1.196535029219813,-0.33714103970813536
5.074573761187223,-0.34629506880915545,1.1931636188227315,-0.3709940322604485
5.071110810499131,-0.26631245414509486,1.189453678500127,-0.40382292102380113
5.06844768595768,-0.18581422781036083,1.185415449289889,-0.4358195129368708
5.0665895436795765,-0.10488319664004071,1.1810572541605202,-0.4671785115189303
5.065540711713176,-0.02360267510836754,1.1763854690453308,-0.4980970856573359
5.065304684962093,0.057944247849072844,1.1714044981887575,-0.5287744546425001
5.065884127440583,0.13967543993207132,1.1661167536423325,-0.5594114788332363
5.0672808818399036,0.2215104670293988,1.1605226388540002,-0.5902102458021411
5.069495986510198,0.3033713569668406,1.1546205363959787,-0.6213736433467265
5.072529700079866,0.3851833958714943,1.1484067999625114,-0.653104913284266
5.076381534038581,0.46687596582127444,1.1418757508296686,-0.6856071833759971
5.081050293696793,0.5483834303554499,1.1350196789959086,-0.7190829789222011
5.0865341280003475,0.6296460721041195,1.1278288492066866,-0.7537337203815967
5.092830588721389,0.710611084385109,1.1202915120028707,-0.789759218621961
5.09993669956524,0.7912336162656322,1.112393919816651,-0.8273571849114477
5.107849035727896,0.871477868456993,1.1041203479675366,-0.8667227783079203
5.116563814412466,0.9513182356776386,1.0954531201844573,-0.9080482184910285
5.126076996769242,1.0307404899622357,1.086372637999547,-0.9515224971133783
5.136384401668864,1.1097429989904568,1.0768574130284132,-0.9973312252528784
5.1474818316587685,1.1883379740295787,1.0668841007758845,-1.045656658400264
5.159365211399065,1.2665527436864419,1.0564275341918818,-1.0966779435462677
5.172030738835929,1.3444310524838199,1.0454607547564192,-1.1505716353524535
5.185475049360767,1.4220343874278256,1.0339550384028946,-1.2075125302036078
5.199695393235046,1.4994433413073829,1.0218799131008585,-1.2676748683615147
5.21468982664812,1.5767590285353437,1.0092031644172432,-1.3312339558019683
5.230457416933473,1.6541045779639933,0.9958908248592235,-1.3983682590747255
5.246998462713113,1.7316267373485588,0.9819071422684763,-1.4692620292595882
5.264314730086598,1.8094976360747053,0.9672145219758804,-1.5441085155007477
5.282409706447345,1.8879167665354724,0.9517734368208729,-1.6231138354969967
5.3012888741127,1.9671132603286825,0.935542298465903,-1.706501580616517
5.320960006715987,2.0473485535173066,0.9184772826597378,-1.7945182479781867
