th1 (rad),w1 (rad/s),th2 (rad),w2 (rad/s)
2.0095648284652583,-0.4611921773040209,6.225202714814024,1.3850071253069618
2.004952906692218,-0.5687574953182319,6.239052786067094,1.3412935411426834
1.9992653317390356,-0.675278277769677,6.252465721478521,1.2994616165859263
1.992512548961339,-0.7807772085925823,6.265460337644381,1.2597999793181833
1.9847047768754131,-0.8852875850315953,6.278058337437563,1.2225916214683632
1.9758519010250972,-0.988853093039372,6.2902842536522465,1.1881146472267903
1.9659633700947035,-1.091527681024377,6.302165400124514,1.1566430894295212
1.9550480932844596,-1.1933755519086222,6.31373183101881,1.1284477978576617
1.9431143377653735,-1.2944712936472456,6.3250163089973865,1.1037974060338744
1.930169624828901,-1.3949001688470801,6.3360542830577256,1.0829593879508774
1.9162206231404302,-1.4947585850086726,6.346883876937234,1.0662012214637369
1.9012730372903435,-1.5941547683243693,6.357545889151871,1.053791681066569
1.8853314896070998,-1.6932096660253428,6.368083805962537,1.046002289522992
1.8683993929468463,-1.792058105129356,6.378543828857767,1.0431089654188377
1.8504788118955529,-1.8908502392626654,6.3889749185119555,1.0453939122677367
1.831570309502926,-1.9897533201953634,6.399428857634633,1.0531478044559586
1.8116727763009726,-2.0889538370347913,6.409960335679193,1.0666723362010968
1.7907832379306245,-2.188660073863211,6.420627059041204,1.0862832119447794
1.7688966371919925,-2.2891051461559644,6.431489891160651,1.112313670270982
1.7460055857304329,-2.3905505876710222,6.442613027863361,1.1451186484708944
1.7221000798537227,-2.493290572584256,6.45406421434807,1.1850797109139772
1.6971671741278802,-2.5976568720349533,6.465915011457209,1.2326108805458487
1.6711906054075307,-2.7040246588650954,6.478241120262668,1.2881655272374068
1.6441503588188797,-2.8128192869018442,6.491122775535042,1.3522444756879561
1.6160221659498613,-2.9245241771958987,6.504645220291922,1.4254054922893797
1.5867769241779022,-3.0396899348772797,6.518899275214816,1.5082742823269033
1.5563800248291293,-3.15894478157429,6.533982018038085,1.6015570537955823
1.5247905770133865,-3.2830062924368066,6.549997588576041,1.706054542303711
1.4919605140890184,-3.4126942252097354,6.567058133999078,1.822677072998535
1.457833571836921,-3.548943835583547,6.585284904729063,1.952459636966998
1.4223441334810856,-3.6928183366612535,6.604809501098733,2.0965748649920437
1.385415950114473,-3.8455178151413185,6.625775249748653,2.2563398136054724
1.3469607719630599,-4.008379501528836,6.6483386478847075,2.433208984601159
1.3068769769477715,-4.182860020267984,6.672670737730719,2.6287398711835532
1.2650483767450917,-4.370482823967327,6.698958136442555,2.844506743048007
1.2213435485054185,-4.572721455249222,6.727403203873036,3.081920565559896
1.1756163339529262,-4.790768965161549,6.758222409528635,3.3418842599043774
1.1277086443013107,-5.0251137123466245,6.791641252127679,3.62417019817473
1.0774575071778445,-5.274805248150649,6.827882954109426,3.9263558939724725
1.024709454696338,-5.536274018643468,6.867146513049151,4.242127135915291
0.9693467145099033,-5.801639745966206,6.909567784408304,4.558861252157052
0.9113303170502413,-6.0567759755430215,6.955156396929874,4.854878128810664
0.850762557294811,-6.280222383077371,7.003705178217981,5.097917941130596
0.7879603334640373,-6.445221626724626,7.054684357629287,5.248085878007105
0.723508117196791,-6.527200156985967,7.107165216409358,5.268564512043588
0.6582361156269313,-6.515161984761143,7.159850861529794,5.141935873132496
0.5930844957793199,-6.418953387843566,7.2112702202611185,4.880707551142517
0.5288949619008843,-6.264826257801388,7.260077295772544,4.521239111591437
0.4662466993228704,-6.082882515368326,7.305289686888458,4.106024248941614
0.4054178741691871,-5.896928197303099,7.346349929377874,3.6692049969799942
0.34644859219615615,-5.721486711227762,7.3830419793476745,3.232139275771246
0.2892337250838785,-5.56348326907681,7.415363372105387,2.8056134374585207
0.2335988923931104,-5.42503074446814,7.443419506479972,2.393690421302801
0.179348584948429,-5.305637646970827,7.467356410693,1.9968045932214045
0.12629220847872075,-5.203576297766331,7.487324456625214,1.6137060650562027
0.07425644550105744,-5.116627055129838,7.503461517275777,1.242539171649267
0.023090174949759054,-5.0424470168109305,7.515886908992269,0.8813943746865699
-0.02733429521835025,-4.978734970144714,7.524700852739135,0.5285701952847517
-0.0771216449197974,-4.9232931446176185,7.529986554691982,0.18268410245673555
-0.12635457636597358,-4.874040301637506,7.53181339571655,-0.1572923903172263
-0.17509497938234864,-4.829004531306804,7.530240471813378,-0.492035563595441
-0.22338502469541668,-4.786310078168098,7.525320116177423,-0.8218889848365203
-0.27124812547709765,-4.744165172017625,7.517101226329058,-1.1468915418132284
-0.31868977719727387,-4.700854031377627,7.505632310910926,-1.4668100198291172
-0.36569831751105014,-4.654734218589143,7.490964210712635,-1.7811746781691762
-0.41224565969694155,-4.604239458676171,7.473152463930943,-2.089317336283532
-0.45828805428370323,-4.547887431518618,7.452259290568108,-2.390411808927338
-0.5037669285988894,-4.484291682035287,7.428355172478835,-2.683516491773382
-0.5486098454192423,-4.412176559086715,7.401520007561101,-2.9676186939667955
-0.5927316110101094,-4.330393944000988,7.371843820621433,-3.241680056270636
-0.6360355504501193,-4.237940446161815,7.339427020058727,-3.504682150785126
-0.6784149549117374,-4.13397372037401,7.304380198550875,-3.7556711706582826
-0.7197546921154775,-4.0178265970292735,7.2668234868442925,-3.9938005073441873
-0.7599329580857702,-3.889017809924911,7.226885481770851,-4.218369987872069
-0.7988231361850193,-3.747258255386029,7.18470178189213,-4.428860606051107
-0.8362957187388796,-3.592451916225235,7.140413175831619,-4.624963725398352
-0.872220237901132,-3.4246908294978846,7.094163538577636,-4.806603950986542
-0.9064671461961109,-3.2442437599049585,7.046097499067771,-4.97395515364961
-0.9389095837951605,-3.0515385491641984,6.9963579475312745,-5.127449471934996
-0.9694249692868026,-2.847138428834687,6.945083452811924,-5.267779499935996
-0.9978963535751494,-2.631712887876854,6.8924056578125645,-5.395894272652915
-1.024213482453918,-2.4060039508597657,6.838446715086035,-5.512990059437706
-1.0482735219625157,-2.170788922012338,6.783316814491658,-5.620497340985953
-1.0699814111826391,-1.9268407626374944,6.727111841081799,-5.720065645622595
-1.089249818809014,-1.6748872834735506,6.6699111846255725,-5.813548127492659
-1.1059986916437496,-1.415570254228085,6.611775703350646,-5.902987857286602
-1.1201543941860306,-1.1494053863590266,6.55274582477778,-5.990607740702585
-1.131648448049621,-0.8767439873537759,6.492839747370755,-6.078805747468694
-1.1404158879231587,-0.5977370098455915,6.432051689896068,-6.1701566606206155
-1.1463932580216147,-0.3123023827748624,6.370350123289862,-6.267420707312141
-1.1495162818493634,-0.02009717591077259,6.30767591621674,-6.373557930147522
-1.1497172536084712,0.2795022326345472,6.243940336915265,-6.491744447329492
-1.1469222312821257,0.5874054340882717,6.17902289244197,-6.62538176362199
-1.141048176941243,0.9047855575574875,6.11276907480575,-6.778081036635235
-1.1320003213656682,1.233003569658805,6.0449882644393975,-6.953587064273641
-1.1196702856690801,1.573431170379446,5.975452393796661,-7.155575554822944
-1.1039359739652856,1.9270848240858267,5.9038966382484315,-7.387202510862729
-1.0846651257244273,2.2939203079674595,5.830024613139805,-7.650195742717842
-1.0617259226447526,2.671553075720813,5.753522655712626,-7.943158178331127
-1.0350103918875444,3.0531148930686753,5.674091073929315,-8.258667867075664
-1.0044792429568576,3.424125907751962,5.591504395258558,-8.578977059779318
-0.970237983879338,3.7591378651113265,5.505714624660765,-8.8713046932956
-0.9326466052282247,4.021096478965209,5.4170015777278095,-9.086738105978506
-0.8924356404385726,4.168925939120724,5.326134196668025,-9.170317268858714
-0.8507463810473653,4.176055507139804,5.234431023979438,-9.086094956636918
-0.8089858259759672,4.048993642026754,5.143570074413069,-8.842262898956882
-0.7684958895556997,3.825954373098492,5.055147445423501,-8.48905115277632
-0.7302363458247147,3.5549538472692936,4.970256933895738,-8.08894120456971
-0.6946868073520218,3.2736386502878343,4.8893675218500405,-7.689745781788986
-0.6619504208491435,3.00372284702198,4.8124700640321505,-7.317714818884793
-0.6319131923789236,2.754732439447583,4.739292915843302,-6.983033245105962
-0.6043658679844478,2.529222875346111,4.669462583392243,-6.6870118674340935
-0.5790736392309866,2.3264320673575254,4.602592464717902,-6.426985582360705
-0.5558093185574114,2.1442909749109673,4.538322608894295,-6.198931971911673
-0.5343664088083018,1.9803956806539151,4.476333289175178,-5.998685514127382
-0.5145624520017626,1.8324302815732079,4.416346434033905,-5.822427831615161
-0.4962381491860306,1.6983243139999553,4.358122155717753,-5.666839318429847
-0.47925490604603105,1.5762899077291423,4.301453762533455,-5.529104904436091
-0.4634920069687396,1.4648086004508312,4.246162713489094,-5.406864257805754
-0.4488439209642313,1.3626001650286228,4.192094070911036,-5.298146600981819
-0.4352179193139451,1.268587773361697,4.139112604901218,-5.201306831429154
-0.42253204158032814,1.1818653823254366,4.087099536586926,-5.114968983932957
-0.4107133877570738,1.1016693774243478,4.035949846747597,-5.037978425882265
-0.3996966939828303,1.0273548246712207,3.985570062488774,-4.969362291712701
-0.3894231457361181,0.9583760035161124,3.935876439571647,-4.908297015231318
-0.37983938570095693,0.8942706743246471,3.886793469419334,-4.854081703548513
-0.37089667895771045,0.8346475138995345,3.838252652383849,-4.806116191525698
-0.3625502038187151,0.7791762108018567,3.790191490468592,-4.7638827776504185
-0.35475844171069654,0.727579793191913,3.7425526626920878,-4.726930810871342
-0.3474826437787774,0.679628840787949,3.6952833545833745,-4.694863451285542
-0.3406863553708979,0.6351372986590054,3.648334720070519,-4.667326061197932
-0.33433498238430787,0.5939596593383171,3.6016614594585397,-4.643995800235977
-0.3283953857909247,0.5559893088585162,3.55522150145618,-4.624572105497224
-0.3228354927023395,0.5211578400565049,3.508975780401208,-4.608767842994455
-0.31762391430177445,0.4894351212557985,3.4628881019712634,-4.596301027896837
-0.31272956308921646,0.46082986899512085,3.416925091692295,-4.5868871351847655
-0.30812126439926524,0.4353904100572481,3.3710562203404475,-4.5802321637207895
-0.3037673602986928,0.413205234062712,3.3252538987032394,-4.5760267749162145
-0.29963530795806564,0.39440284227938793,3.2794936309540774,-4.573941993731425
-0.29569127953527174,0.379150308190632,3.233754211016763,-4.5736271148692635
-0.2918997764533654,0.36764990807538095,3.1880179398680704,-4.57471056675965
-0.2882232773726116,0.3601331927113536,3.142270834200474,-4.576804502305891
-0.28462194544549807,0.35685199721721267,3.096502789177415,-4.579513752059986
-0.28105342547332596,0.35806616281761144,3.0507076516568152,-4.58244944187797
-0.27747276384514985,0.36402818748096427,3.0048831572380355,-4.585247021024963
-0.2738324819703402,0.37496560470024815,2.959030687027786,-4.587587701897134
-0.2700828259233377,0.3910625254940034,2.9131548100088147,-4.589221489852626
-0.2661722006683977,0.41244232493761523,2.8672625951102884,-4.589989268273393
-0.2620477774190215,0.4391537386440412,2.8213627024275545,-4.589841026994215
-0.2576562400325811,0.47116250942636173,2.7754642921576123,-4.588847476289673
-0.2529446149383175,0.5083501334055345,2.7295758173947156,-4.587203049620328
-0.24786111360426213,0.5505202775125073,2.683703786898512,-4.585219563696294
-0.24235591082913707,0.5974122876396796,2.637851591261549,-4.583311298910399
-0.23638178795274029,0.6487201587435834,2.592018478272445,-4.581973621499188
-0.22989458636530447,0.7041146473165768,2.5461987420574532,-4.581758163200218
-0.22285343989213868,0.7632660106692655,2.500381160425451,-4.583247828116999
-0.21522077978544601,0.8258651432295395,2.454548682144281,-4.587034531364263
-0.20696212835315062,0.8916415086517738,2.4086783368306386,-4.593701774683525
-0.19804571326663287,0.960377039918152,2.362741319083803,-4.603813190644554
-0.18844194286745133,1.0319159127896393,2.3167031871773576,-4.617907280188119
-0.17812278373955495,1.106170667135764,2.270524114375476,-4.636497887780351
-0.1670610770681973,1.183125507215449,2.224159135497673,-4.66007956594082
-0.15522982199604282,1.2628377691720454,2.1775583398382645,-4.68913685853131
-0.14260144430432237,1.3454385513440126,2.1306669712529516,-4.724156616992317
-0.12914705879088223,1.431133421279419,2.0834254050830285,-4.765642680416416
-0.11483572457808804,1.5202039975927097,2.035768978278864,-4.814132533552572
-0.09963368460216093,1.613011096206006,1.9876276529433385,-4.870215861193263
-0.08350357364010087,1.7100000552418617,1.9389254943314058,-4.934555218695984
-0.06640357308768226,1.8117088244623656,1.889579942144446,-5.007909329530661
-0.0482864848430586,1.9187794279443333,1.8395008488491393,-5.091159805604619
-0.029098690563615266,2.031973479605454,1.7885892507930932,-5.185342372632911
-0.008778955767560728,2.152192538934159,1.736735827066764,-5.2916839746356885
0.012742969621780863,2.28050421289273,1.6838189873204072,-5.411647415363476
0.03554801175070817,2.4181749826727517,1.6297025131667724,-5.546985415856716
0.05972976157743569,2.566710637345412,1.5742326590082052,-5.699805982640755
0.08539686795088981,2.7279046642724896,1.5172345991817977,-5.872650454009936
0.1126759145936147,2.903893408753305,1.4585080946416984,-6.068583775015922
0.14171484868114775,3.0972130600746413,1.3978222568915393,-6.291291820289371
0.17268697928189417,3.310844976570398,1.3349093386886455,-6.545169445350679
0.20579542904759815,3.548217109996286,1.2694576442351386,-6.835357967916343
0.241277600147561,3.8130890819662344,1.2011040645559752,-7.167636401662449
0.27940849096722337,4.1091643111837985,1.1294277005393507,-7.547955632195995
0.32050013407906136,4.439103508854325,1.0539481442173908,-7.981171205936591
0.3648911691676046,4.802303002427693,0.9741364321580249,-8.468097223157667
0.41291419919188155,5.190349545853053,0.8894554599264483,-8.99936639679277
0.46481769465041206,5.578891427119332,0.7994617959585205,-9.544313844077163
0.5206066089216054,5.916694314190793,0.704018657517749,-10.035863613272682
0.5797735520635133,6.121241796677637,0.6036600213850222,-10.364262451459826
0.6409859700302897,6.1040934433658975,0.5000173968704239,-10.411698927938206
0.7020269044639487,5.834586662008113,0.39590040759104184,-10.13949971327261
0.7603727710840298,5.377874401492311,0.29450541045831574,-9.639220789434667
0.8141515150989529,4.842744806133831,0.19811320256396908,-9.059649939298666
0.8625789631602913,4.309238156239934,0.10751670317098243,-8.50799590018284
0.9056713447226906,3.8125521733590375,0.022436744169154033,-8.029547845228116
0.943796866456281,3.360285950342477,-0.05785873428312713,-7.632383392614026
0.9773997259597058,2.9486423842551006,-0.13418256820926738,-7.309762459650726
1.0068861498022568,2.570595841333449,-0.20728019280577464,-7.051147718414198
1.0325921082155913,2.219064931997156,-0.2777916699899166,-6.846331740357979
1.0547827575355628,1.8878965453791283,-0.3462549873934964,-6.686605741389347
1.0736617229893541,1.572032159414037,-0.41312104480738987,-6.564854022993139
1.0893820445834945,1.2674117648818493,-0.47876958503732125,-6.475322151578992
1.102056162232313,0.970820121199558,-0.5435228065531111,-6.413327117235232
1.1117643634443086,0.6797435128571567,-0.6076560777254635,-6.374994611586558
1.1185617985728802,0.3922547784285773,-0.6714060238413291,-6.357043085568506
1.1224843463571659,0.10692690351865469,-0.7349764546970141,-6.356612960880955
1.1235536153923524,-0.1772298532108848,-0.7985425843058237,-6.371134034761311
1.1217813168602435,-0.46081337948556217,-0.8622539246534369,-6.398224161254138
1.117173183065388,-0.7440634468591967,-0.9262361662659783,-6.435613833476971
1.109732548596796,-1.0268888991378007,-0.990592304600748,-6.481092950525424
1.099463659605418,-1.3088927469193548,-1.0554032341060022,-6.532477364926887
1.0863747321362243,-1.5893989323251674,-1.120728007755271,-6.587593631780101
1.0704807428129726,-1.8674837606276515,-1.186603944073072,-6.644280693298428
1.0518059052066961,-2.142014080514918,-1.2530467510060563,-6.700407058832415
1.030385764401547,-2.411693195002484,-1.3200508215943805,-6.753901452303997
1.0062688324515223,-2.6751142229671756,-1.3875898361174204,-6.802794022601826
0.9795176902218505,-2.9308193007449197,-1.4556177763434386,-6.845264233006529
0.9502094972144013,-3.177361773475172,-1.524070418673504,-6.879690694202757
0.9184358794796496,-3.4133675746751098,-1.5928673256155315,-6.904697723615712
0.8843022037328985,-3.637591520195324,-1.6619143028516885,-6.919193500732453
0.8479262885309452,-3.848964377317317,-1.731106237859013,-6.922395442816415
0.809436644757772,-4.046627330713683,-1.800330192287177,-6.91383980633817
0.7689703714506352,-4.2299517450612925,-1.8694685903505588,-6.893374338748348
0.7266708540000223,-4.398543698641817,-1.9384023337380423,-6.861134766972976
0.6826854170136041,-4.5522343530578695,-2.007013681407772,-6.817507681671007
0.6371630734830254,-4.691058561197391,-2.075188758224482,-6.763083676476261
0.5902524878710514,-4.815225002964682,-2.142819594989245,-6.698605260620956
0.5421002378414046,-4.9250814921753605,-2.2098056475954544,-6.624914056597698
0.492849422919651,-5.021078948927783,-2.2760547881614315,-6.5429012264344255
0.4426386334303732,-5.1037369968108015,-2.3414838004257756,-6.453464128791308
0.39160126346226515,-5.173613383279243,-2.4060184417136887,-6.357471108165352
0.33986512962947274,-5.2312785934441814,-2.4695931527953423,-6.255735246193082
0.2875523436950309,-5.277296259401467,-2.532150505257273,-6.148996997270845
0.23477938110101623,-5.312209339587876,-2.5936404752299813,-6.037914956086464
0.18165728770513748,-5.336531589902858,-2.654019624790846,-5.923063576409709
0.1282919718061089,-5.350743568514584,-2.7132502605549433,-5.804936452332575
0.07478453612096306,-5.3552922844620054,-2.771299625078269,-5.683953737791835
0.021231613276343,-5.350593581037223,-2.8281391624561873,-5.5604723647439815
-0.032274322534029225,-5.337036402146369,-2.8837438861036273,-5.434797876551368
-0.08564468655549291,-5.314988191752666,-2.938091864869141,-5.307196882615412
-0.13879456847301958,-5.28480079864662,-2.9911638336952953,-5.1779093359434265
-0.19164257645948576,-5.246816384185186,-3.0429429270547295,-5.047160020265958
-0.24411074030133761,-5.201372948810345,-3.093414527257389,-4.915168798699843
-0.29612446978944107,-5.148809198615698,-3.142566215244387,-4.782159318605757
-0.3476125617755981,-5.089468563966959,-3.1903878084304447,-4.648365987554447
-0.39850724741526766,-5.02370225834396,-3.236871468305989,-4.514039135358417
-0.44874426999870726,-4.951871328449463,-3.282011859659573,-4.379448359759496
-0.4982629832832019,-4.874347697955759,-3.325806343257168,-4.244884121308529
-0.5470064602627595,-4.791514248759141,-3.3682551844702533,-4.110657708462282
-0.5949216027503509,-4.703764016756588,-3.409361761554876,-3.9770997385465536
-0.6419592429179167,-4.611498605065116,-3.4491327589403418,-3.844557394965954
-0.6880742289685678,-4.515125937031709,-3.4875783328900014,-3.7133906263565306
-0.7332254883388849,-4.415057484795401,-3.524712239153567,-3.5839675494385617
-0.7773760631868389,-4.311705116831662,-3.5605519146479523,-3.4566593041787743
-0.8204931143551556,-4.20547771001838,-3.59511850768974,-3.3318346076332452
-0.8625478914553394,-4.096777668524453,-3.6284368537660723,-3.20985424186517
-0.9035156681405839,-3.9859974835650975,-3.660535396184724,-3.0910656923052464
-0.9433756429762349,-3.87351645529986,-3.6914460531077764,-2.9757981269226637
-0.9821108075292335,-3.7596976815807936,-3.721204034377003,-2.864357875048092
-1.0197077843450415,-3.6448853987922063,-3.7498476131274843,-2.7570245293797564
-1.0561566383329635,-3.5294027387087357,-3.777417858421282,-2.654047757530742
-1.091450665720051,-3.4135499432601697,-3.8039583359965894,-2.5556448723933665
