th1 (rad),w1 (rad/s),th2 (rad),w2 (rad/s),a1 (rad/s^2),a2 (rad/s^2)
2.761778173219624,0.9364713639592862,1.5657781073884465,1.900493926452357,-3.93305017888243,-7.543953317525059
2.771142886859217,0.897140862170462,1.58478304665297,1.8250543932771064,-3.6509618116654514,-7.683681548394526
2.7801142954809217,0.8606312440538074,1.6030335905857411,1.7482175777931612,-3.3780544411910114,-7.814994550483765
2.78872060792146,0.8268506996418973,1.6205157663636727,1.6700676322883237,-3.114720542695129,-7.938508949255766
2.7969891149178787,0.795703494214946,1.6372164426865559,1.590682542795766,-2.861306512934306,-8.054750903187458
2.804946149860028,0.767090429085603,1.6531232681145136,1.5101350337638915,-2.618117616194552,-8.164164817259193
2.812617054150884,0.7409092529236575,1.6682246184521525,1.4284933855912996,-2.3854225928235793,-8.267122065446653
2.820026146680121,0.7170550269954217,1.6825095523080655,1.3458221649368332,-2.1634579244303676,-8.363929602176364
2.8271966969500752,0.695420447751118,1.695967773957434,1.2621828689150696,-1.952431761591253,-8.454838365737938
2.8341509014275865,0.6758961301352054,1.7085896026465845,1.1776344852576903,-1.7525275270796727,-8.54005139856769
2.8409098627289384,0.6583708548644087,1.7203659474991615,1.0922339712720135,-1.5639072110287993,-8.619731630017155
2.8474935712775826,0.6427317827541207,1.7312882872118815,1.006036654971842,-1.3867143748487385,-8.69400928648738
2.8539208891051238,0.6288646390056333,1.7413486537615999,0.9190965621069682,-1.2210768790061592,-8.762988911339669
2.86020953549518,0.6166538702155717,1.7505396193826694,0.8314666729935716,-1.0671093468004207,-8.826755992403974
2.8663760741973356,0.6059827767475675,1.758854286112605,0.7431991130695318,-0.9249153728792593,-8.885383207773419
2.872435901964811,0.5967336230187749,1.7662862772433003,0.6543452809917976,-0.7945894822070714,-8.938936310478221
2.878403238194999,0.5887877281967041,1.7728297300532183,0.5649559178870154,-0.6762188432040173,-8.98747967921231
2.884291115476966,0.582025539764664,1.7784792892320884,0.4750811210948923,-0.5698847383463959,-9.031081565287543
2.8901113708746125,0.5763266923812,1.7832301004430373,0.38477030544201685,-0.4756637970148484,-9.069819065318367
2.8958746377984244,0.5715700544110516,1.7870778034974575,0.29407211478883316,-0.3936289989555898,-9.103782844894232
2.901590338342535,0.5676337644214957,1.7900185246453457,0.20303428633989085,-0.323850462327335,-9.133081630997076
2.90726667598675,0.5643952597982224,1.7920488675087447,0.1117034700299201,-0.2663960376787217,-9.157846480710937
2.9129106285847324,0.5617312994214352,1.7931659022090438,0.020125005222810716,-0.22133173787664495,-9.178234821603196
2.918527941578947,0.5595179820426688,1.793367152261272,-0.07165734299322124,-0.1887220433573162,-9.194434245960215
2.9241231213993735,0.5576307616090956,1.7926505788313398,-0.1636016854528234,-0.168630131347358,-9.206666027879866
2.9296994290154643,0.5559444602956221,1.7910145619768116,-0.25566834573162206,-0.16111808608107273,-9.215188320153732
2.9352588736184204,0.5543332794348114,1.7884578785194953,-0.3478202289331594,-0.1662471536951726,-9.220298977970574
2.9408022064127683,0.5526708078978596,1.7849796762301637,-0.44002321871286515,-0.18407810964597854,-9.222337949674241
2.946328914491747,0.5508300268013998,1.7805794440430351,-0.5322465982096075,-0.21467180752297638,-9.221689171839785
2.951837214759761,0.54868330872617,1.775256978060939,-0.6244634899280054,-0.2580899755629764,-9.218781907233879
2.9573240478470226,0.5461024089705402,1.7690123431616591,-0.7166513090003441,-0.3143963207607397,-9.214091469904732
2.962785071936728,0.5429584457629328,1.7618458300716557,-0.8087922236993914,-0.3836579902318128,-9.208139291439277
2.968214656394357,0.5391218658606147,1.753757907834662,-0.9008736166137842,-0.4659474256682169,-9.20149229570091
2.9736058750529635,0.5344623916039326,1.7447491716685242,-0.9928885395707933,-0.56134462982337,-9.19476156515274
2.9789504989690028,0.5288489453056989,1.7348202862728161,-1.0848361552223207,-0.6699398446393157,-9.188600298939994
2.9842389884220597,0.5221495468593058,1.723971924720593,-1.1767221582117207,-0.7918366196794878,-9.183701079824262
2.9894604838906527,0.514231180662511,1.7122047031384757,-1.2685591690099633,-0.9271552277913176,-9.180792482323916
2.994602795697278,0.5049596283845977,1.699519111448376,-1.3603670938332024,-1.0760363631946939,-9.180635066538189
2.9996523919811238,0.4941992647526508,1.685915440510044,-1.4521734444985843,-1.2386450361562409,-9.184016809770574
3.0045943846286502,0.4818128143910884,1.671393706065058,-1.54401361259629,-1.4151745585573194,-9.191748030097383
3.009412512772561,0.4676610688055152,1.6559535699390953,-1.635931092897264,-1.605850496244728,-9.204655851618611
3.014089123460616,0.45160256384306796,1.6395942590101227,-1.72797765141345,-1.8109344470415358,-9.223578249779344
3.018605149099047,0.4334932193726526,1.622314482495988,-1.8202134339112435,-2.030727487384428,-9.249357696698684
3.0229400812927736,0.41318594449880836,1.6041123481568758,-1.9127070108782303,-2.2655731151743512,-9.282834401048095
3.0270719407377618,0.39053021334706484,1.5849852780480935,-2.0055353548887114,-2.5158595007902522,-9.324839105122946
3.0309772428712325,0.3653716183391623,1.5649299244992063,-2.098783745939941,-2.7820208413763514,-9.376185364024208
3.034630959054624,0.3375514099253988,1.5439420870398068,-2.1925455995801832,-3.0645375944519873,-9.437661189170912
3.038006473153878,0.3069060339808789,1.522016631044005,-2.2869222114718926,-3.363935344610126,-9.510019891707344
3.0410755334936868,0.27326668053477765,1.4991474089292862,-2.382022410388966,-3.6807820306975563,-9.593969911901825
3.0438082002990345,0.2364588602278021,1.4753271848253966,-2.4779621095079842,-4.015683229791417,-9.690163369672383
3.0461727889013126,0.19630202792988793,1.4505475637303167,-2.574863743204708,-4.369275158284948,-9.799183020474421
3.0481358091806117,0.15260927634703847,1.4247989262982697,-2.6728555734094526,-4.7422150098149,-9.921527251867744
3.049661901944082,0.10518712624888947,1.398070370564175,-2.77207084592813,-5.1351682057125085,-10.057592711617254
3.050713773206571,0.053835444191764385,1.3703496621048938,-2.8726467730443024,-5.54879208825432,-10.207654121445186
3.0512521276484885,-0.001652476690778816,1.3416231943744508,-2.974723314258754,-5.9837155436460145,-10.371840805922345
3.051235602881581,-0.061489632127238965,1.3118759612318631,-3.0784417223179776,-6.440514005464194,-10.550109459315033
3.0506207065603084,-0.12589477218188092,1.2810915440086834,-3.183942816911128,-6.919679267346816,-10.742212692219374
3.0493617588384896,-0.19509156485534906,1.2492521158395722,-3.291364943833322,-7.421583535717834,-10.94766295452551
3.0474108431899363,-0.2693074002125274,1.2163384664012389,-3.400841573378577,-7.946437191886277,-11.165691534310643
3.044717769187811,-0.3487717721313902,1.1823300506674532,-3.5124984887216835,-8.494239823974366,-11.39520249917639
3.0412300514664974,-0.4337141703711339,1.1472050657802364,-3.6264505137134475,-9.064724252393354,-11.634721695650418
3.036892909762786,-0.5243614128950674,1.110940560643102,-3.7427977306699516,-9.657293531051913,-11.882341274195511
3.0316492956338355,-0.6209343482055866,1.0735125833364025,-3.8616211434119068,-10.270951285943559,-12.135660683809665
3.0254399521517796,-0.7236438610650222,1.0348963719022835,-3.9829777502500034,-10.904226280105961,-12.391725701632632
3.0182035135411294,-0.8326861238660819,0.9950665943997834,-4.1068950072663295,-11.55509279418948,-12.646967844922857
3.0098766523024687,-0.9482370518079767,0.9539976443271201,-4.233364685715558,-12.220889303396564,-12.89714746024835
3.0003942817843887,-1.0704459448419423,0.9116639974699645,-4.3623361603180415,-12.898239019157995,-13.13730488457154
2.9896898223359694,-1.1994283350335222,0.8680406358667841,-4.4937092091637565,-13.582977129416228,-13.36172528389022
2.977695538985634,-1.3352581063276845,0.8231035437751466,-4.627326462002658,-14.270090961953484,-13.563924016451558
2.9643429579223572,-1.4779590159472193,0.77683027915512,-4.762965702167174,-14.953680710251065,-13.736660507056559
2.949563367762885,-1.62749582304973,0.7292006221334483,-4.900332307237739,-15.626949640089654,-13.871989463230056
2.9332884095323877,-1.7837653194506267,0.6801972990610708,-5.03905220187004,-16.28223360803587,-13.961358555024724
2.9154507563378815,-1.9465876555309853,0.6298067770423704,-5.178665787420287,-16.911079972796305,-13.995761103675601
2.8959848797825716,-2.1156984552589484,0.5780201191681675,-5.318623398457043,-17.504385218539156,-13.965950536527622
2.874827895229982,-2.29074230744434,0.5248338851835971,-5.458282903822319,-18.052598474942513,-13.862720045002382
2.8519204721555385,-2.471268292193765,0.4702510561453739,-5.596910104272343,-18.545994305851426,-13.677245808594026
2.8272077892336007,-2.656728235252279,0.4142819551026504,-5.733682562358283,-18.975012489771224,-13.401485305530452
2.800640506881078,-2.8464783601499914,0.3569451294790676,-5.867697415413588,-19.330655134568282,-13.028613922291466
2.7721757232795783,-3.039784911495674,0.2982681553249317,-5.997983554636503,-19.60492282758425,-12.55347401489481
2.7417778741646215,-3.2358341397715167,0.2382883197785667,-6.123518294785451,-19.791262528681617,-11.973001928936036
2.709419532766906,-3.433746765058333,0.1770531368307122,-6.243248314074811,-19.884991895407623,-11.286591798520421
2.6750820651163227,-3.632596684012409,0.11462065368996407,-6.3561142320600155,-19.883659296592498,-10.49635193902386
2.6387560982761986,-3.8314332769783337,0.051059511369363916,-6.461077751450254,-19.787297540658887,-9.607211881084215
2.600441765506415,-4.029306252384923,-0.01355126614513863,-6.557149870261097,-19.59853355872394,-8.626846520692629
2.560148702982566,-4.225291587972162,-0.0791227648477496,-6.643418335468023,-19.32252639452378,-7.565398427172201
2.517895787102844,-4.4185168519174,-0.14555694820242981,-6.719072319739745,-18.966721218970648,-6.43499873636264
2.47371061858367,-4.608184064107107,-0.21274767139982725,-6.783422307103371,-18.540425882890503,-5.249108718146896
2.427628777942599,-4.793588322936012,-0.28058189447086096,-6.83591339428484,-18.054235979628512,-4.021724685283616
2.379692894713239,-4.974130682732297,-0.34894102841370933,-6.876130641137676,-17.519351340408765,-2.7665049336205665
2.329951587885916,-5.1493241961363845,-0.4177023348250861,-6.903795690473882,-16.946838480311772,-1.4958861218189357
2.2784583459245518,-5.318792580939502,-0.4867402917298249,-6.918754551692071,-16.34689791415378,-0.22025658285445382
2.225270420115157,-5.48226156008104,-0.5559278372467457,-6.920957117520616,-15.728192087322261,1.052754056932961
2.1704478045143465,-5.639543480954262,-0.6251374084219519,-6.9104295769512865,-15.09728004441954,2.31882383006892
2.1140523697048037,-5.790516281398458,-0.6942417041914647,-6.887241338650597,-14.458191186444244,3.5772980859117838
2.0561472068908193,-5.9350981932629,-0.7631141175779707,-6.851468357791479,-13.81215540790558,4.831348818653705
1.9967962249581903,-6.073219747341955,-0.8316288011558854,-6.803154869604942,-13.15749331568699,6.087936084341324
1.9360640274847707,-6.204794680498825,-0.8996603498519349,-6.742275508761529,-12.489660220122408,7.35758207866476
1.8740160806797825,-6.329691282700049,-0.9670831049395502,-6.668699687974882,-11.801432315402488,8.653970623392654
1.810719167852782,-6.447705605854074,-1.033770101819299,-6.582159981740955,-11.083223096817909,9.993381529430332
1.7462421117942413,-6.558537836822253,-1.0995917016367087,-6.482226166446652,-10.323521905633047,11.393962056226986
1.6806567334260187,-6.661773055878583,-1.1644139633011752,-6.368286545884382,-9.509453210145104,12.874828665161242
1.614039002867233,-6.756867587980034,-1.228096828760019,-6.239538259232769,-8.627463014884233,14.454984186072641
1.5464703269874325,-6.843142218128876,-1.2904922113523467,-6.0949884173720426,-7.664145444215447,16.152031555386547
1.4780389048061437,-6.919783672571031,-1.351442095526067,-5.933468101818177,-6.607225483306619,17.980669080668623
1.4088410680804335,-6.9858559274040966,-1.410776776544249,-5.753661411011491,-5.446710065273399,19.950967796617324
1.3389825088063925,-7.0403230280568305,-1.468313390654364,-5.554151733045318,-4.176205818098803,22.066463052097276
1.268579278525824,-7.082085086237819,-1.5238549079848172,-5.333487102524345,-2.794374558202574,24.322143364714627
1.1977584276634459,-7.110028831819845,-1.5771897790100606,-5.0902656688771994,-1.3064548412390704,26.702490623450853
1.1266581393452475,-7.123093380232236,-1.6280924356988327,-4.8232407626426905,0.27427981330481344,29.179812481254398
1.0554272055429252,-7.120350582099188,-1.6763248433252596,-4.531442637830146,1.9253221021472182,31.713197210170023
0.9842236997219334,-7.1010973610777155,-1.721639269703561,-4.214310665728446,3.614249568936006,34.248488930405806
0.9132127261111562,-7.064954865388356,-1.7637823763608453,-3.8718257764243877,5.298853301377665,36.71969123812967
0.8425631774572726,-7.01196633237458,-1.8025006341250893,-3.504628864043091,6.928347396138351,39.05211910392177
0.7724435141335269,-6.942682858413196,-1.8375469227655201,-3.1141076730038737,8.445824370829671,41.1674015708263
0.7030166855493949,-6.858224614704899,-1.8686879994955587,-2.702433657295611,9.791921821284923,42.99009221462286
0.6344344394023459,-6.76030539649205,-1.8957123360685149,-2.2725327351493823,10.909393201323901,44.45522455714724
0.5668313854374254,-6.651211464478811,-1.9184376634200087,-1.82798048957791,11.747993546893618,45.515768013791
0.5003192707926373,-6.5337315290098745,-1.9367174683157877,-1.37282280944,12.268892969053539,46.14874181899457
0.43498195550253854,-6.411042599319339,-1.9504456964101877,-0.9113353912500541,12.447807830137645,46.35885027490676
0.37087152950934515,-6.286564521017962,-1.9595590503226883,-0.44774688850098654,12.276234353770512,46.178940753858036
0.30800588429916553,-6.163802177480258,-1.964036519207698,0.014042519037593848,11.760543646095163,45.667254855621074
0.24636786252436296,-6.046196741019306,-1.963896094017322,0.4707150675938046,10.919136590570874,44.90213887702741
0.1859058951141699,-5.937005375113597,-1.959188943341384,0.9197364563640787,9.7782188556947,43.97538140528742
0.12653584136303395,-5.83922318655665,-1.9499915787777433,1.359490270416953,8.366932470790948,42.985514571354116
0.06814360949746745,-5.75555386184874,-1.9363966760735738,1.789345416130494,6.712541932913738,42.03224825412705
0.010588070878980053,-5.688428442519602,-1.9185032219122689,2.2096678986717646,4.83616975408692,41.21281757002781
-0.04629621354621597,-5.640066744978733,-1.8964065429255512,2.6217960743720425,2.749302656056776,40.62057448791455
-0.1026968809960033,-5.612573718418165,-1.8701885821818307,3.028001819251188,0.4510386780261037,40.34577620970039
-0.15882261818018495,-5.608063331637904,-1.839908563989319,3.431459581348192,-2.07411633974724,40.47827172434597
-0.214903251496564,-5.628804495035377,-1.805593968175837,3.836242298591652,-4.858124462550113,41.11162936461098
-0.27119129644691775,-5.677385739660878,-1.7672315451899205,4.247358592237761,-7.951030401472084,42.348051281761634
-0.32796515384352654,-5.7568960436755985,-1.7247579592675428,4.670839105055378,-11.421908554344986,44.30291215675852
-0.3855341142802825,-5.871115129219048,-1.6780495682169891,5.113868226622963,-15.357586844154069,47.10636572100734
-0.444245265572473,-6.024690997660589,-1.6269108859507595,5.584931883833036,-19.85488377240892,50.89590080412482
-0.5044921755490789,-6.223239835384678,-1.571061567112429,6.093890891874285,-24.995747299091857,55.785070209860585
-0.5667245739029256,-6.473197308375597,-1.5101226581936862,6.651741593972891,-30.780126021965412,61.77345827187245
-0.6314565469866816,-6.780998568595251,-1.4436052422539574,7.269476176691615,-36.960180659876265,68.51942132879743
-0.6992665326726342,-7.1506003751940135,-1.3709104804870411,7.954670389979589,-42.664510444885615,74.8201726496962
-0.7707725364245743,-7.57724547964287,-1.2913637765872452,8.702872116476552,-45.66610654219242,77.59403181191755
-0.846544991221003,-8.033906545064793,-1.2043350554224797,9.478812434595728,-41.44402704567428,70.57231137650699
-0.926884056671651,-8.448346815521536,-1.1095469310765225,10.184535548360797,-23.761551976402295,45.10721715112763
-1.0113675248268663,-8.68596233528556,-1.0077015755929144,10.635607719872073,9.016384279943619,-1.0059538273779844
-1.098227148179722,-8.595798492486123,-0.9013454983941936,10.625548181598294,44.47300601222579,-50.38239766009847
-1.1841851331045832,-8.151068432363866,-0.7950900165782107,10.12172420499731,64.57189043228882,-77.95290574540705
-1.2656958174282218,-7.505349528040978,-0.6938727745282376,9.34219514754324,66.74360468151487,-80.34248942637791
-1.3407493127086316,-6.837913481225829,-0.6004508230528052,8.538770253279461,60.11022197366346,-70.37829257843366
-1.4091284475208898,-6.236811261489195,-0.5150631205200106,7.834987327495124,51.729546112872505,-57.893806932010044
-1.471496560135782,-5.71951580036047,-0.43671324724505933,7.2560492581750236,44.28335570159591,-46.59594804844903
-1.5286917181393866,-5.276682243344511,-0.3641527546633091,6.790089777690533,38.32408135724392,-37.23143698256062
-1.5814585405728319,-4.893441429772071,-0.29625185688640376,6.417775407864927,33.73122536941976,-29.617746743577626
-1.6303929548705525,-4.5561291760778735,-0.23207410280775448,6.121597940429151,30.248515146932725,-23.387706492649013
-1.6759542466313313,-4.253644024608546,-0.17085812340346296,5.88772087550266,27.638630077208152,-18.202733856409047
-1.7184906868774168,-3.9772577238364644,-0.11198091464843635,5.70569353693857,25.714112140470352,-13.795226973722105
-1.7582632641157814,-3.720116602431761,-0.05492397927905064,5.567741267201349,24.333820280275162,-9.964057973415276
-1.795464430140099,-3.4767783996290094,0.0007534333929628476,5.468100687467196,23.39228851373362,-6.5609651728338125
-1.8302322141363891,-3.2428555144916733,0.055434440267634805,5.402491035738858,22.809451690952407,-3.478151270960915
-1.862660769281306,-3.014760997582149,0.10945935062502338,5.367709523029249,22.52221312323211,-0.639176061106805
-1.8928083792571275,-2.789538866349828,0.16313644585531586,5.361317762418181,22.477690923225445,2.0070017025635716
-1.9207037679206258,-2.5647619571175735,0.21674962347949767,5.381387779443816,22.627661321402474,4.489442890845207
-1.9463513874918015,-2.3384853439035487,0.2705635012739358,5.426282208352268,22.923783033584034,6.816726444833503
-1.969736240930837,-2.1092475135677082,0.3248263233574585,5.4944494728006035,23.313367298187433,8.977110845806607
-1.9908287160665141,-1.876113840585834,0.37977081808546453,5.58422058125867,23.735692552157175,10.937986920781821
-2.0095898544723725,-1.6387569150642622,0.43561302389805123,5.693600450466488,24.119148329030907,12.645412591721469
-2.025977423623015,-1.3975654317739532,0.49254902840271614,5.820054576383702,24.379825262470458,14.024786736889471
-2.0399530779407544,-1.1537671791492485,0.5507495741665531,5.960302443752597,24.42250038045443,14.984015295115064
-2.0514907497322468,-0.9095421753447042,0.6103525986040791,6.1101425967037475,24.14517346547277,15.420677063655644
-2.060586171485694,-0.6680904406899765,0.6714540245711166,6.264349367340304,23.448166730135522,15.2344235861174
-2.0672670758925937,-0.43360877338862125,0.7340975182445196,6.4166936032014785,22.248025083462764,14.344804848046351
-2.07160316362648,-0.21112852255399361,0.7982644542765345,6.560141651681942,20.494870765024206,12.712707467810134
-2.07371444885202,-0.0061798149037515515,0.8638658707933539,6.687268726360044,18.18968847849274,10.360935539060362
-2.0737762470010574,0.17571706988117586,0.9307385580569543,6.790878081750647,15.396109061477054,7.387266822675032
-2.072019076302246,0.3296781604959464,0.9986473388744608,6.864750749977397,12.24100968749894,3.963285035019207
-2.0687222946972863,0.4520882573709358,1.0672948463742347,6.90438360032759,8.90076855160015,0.3156855001188379
