th1 (rad),w1 (rad/s),th2 (rad),w2 (rad/s)
0.6401747464355846,-0.2709425175353827,1.2197434411315244,0.846959805668019
0.6374653212602308,-0.2984955553406693,1.2282130391882047,0.7775882707870465
0.6344803657068241,-0.32613178086569006,1.2359889218960751,0.7077393400831156
0.6312190478981672,-0.35380670453764906,1.2430663152969064,0.6373965386956846
0.6276809808527907,-0.3814711591217144,1.2494402806838631,0.5665393378504946
0.6238662692615735,-0.4090716682468191,1.255105674062368,0.4951437611811911
0.6197755525791053,-0.43655077871588543,1.2600571116741799,0.42318295529076166
0.6154100447919465,-0.46384735886886524,1.2642889412270875,0.35062772578868995
0.6107715712032579,-0.4908968657445987,1.2677952184849743,0.27744704021077826
0.6058626025458119,-0.5176315841474058,1.270569688887082,0.20360849926241875
0.6006862867043379,-0.5439808409975033,1.2726057738797063,0.1290787777615494
0.5952464782943628,-0.5698711985562616,1.273896561657322,0.05382403652704221
0.5895477663088002,-0.5952266302887425,1.2744348020225924,-0.02218969371095189
0.5835955000059128,-0.6199686832737271,1.274212905085483,-0.09899615548691636
0.5773958131731755,-0.6440166312093162,1.2732229435306137,-0.17662853415019003
0.5709556468610822,-0.6672876222016401,1.2714566581891118,-0.2551191532336861
0.5642827706390658,-0.6896968256752507,1.268905466656775,-0.33449919519952487
0.5573858023823134,-0.7111575829156824,1.2655604747047797,-0.4147984471735816
0.5502742265531566,-0.7315815659568571,1.261412490233044,-0.49604507125367836
0.542958410893588,-0.7508789497687964,1.2564520395205072,-0.5782653988452643
0.5354496213959,-0.7689586029966111,1.2506693855320545,-0.6614837482176199
0.527760035365934,-0.7857283028648551,1.2440545480498784,-0.7457222640518774
0.5199027523372854,-0.801094980310804,1.2365973254093596,-0.8310007771325574
0.5118918025341774,-0.8149650019698153,1.228287317638034,-0.9173366814727019
0.5037421525144793,-0.8272444963358458,1.219113950823307,-1.0047448250060496
0.49546970755112085,-0.8378397322985198,1.2090665025732465,-1.0932374084645424
0.4870913102281357,-0.8466575593624858,1.1981341284886011,-1.1828238851098007
0.47862473463451083,-0.8536059202440361,1.1863058896375032,-1.2735108515125546
0.47008867543207045,-0.8585944482858364,1.1735707811223777,-1.36530191646722
0.46150273094921207,-0.8615351643191229,1.1599177619577055,-1.4581975312640907
0.45288737930602085,-0.8623432903348487,1.1453357866450646,-1.552194759773341
0.44426394640267236,-0.86093820071629,1.1298138390473311,-1.6472869609577014
0.4356545643955095,-0.8572445359623514,1.113340969437754,-1.743463349341602
0.42708211903588594,-0.8511935089246435,1.095906335944338,-1.8407083904312107
0.41857018394663953,-0.8427244397153757,1.077499252040026,-1.9390009779146031
0.4101429395494858,-0.8317865627088356,1.05810924226088,-2.0383133275192122
0.4018250739223974,-0.8183411574789494,1.037726108985688,-2.138609508588959
0.39364166234760795,-0.8023640649812694,1.0163400138997984,-2.2398435188459995
0.38561802169779524,-0.7838486604683146,0.9939415787113385,-2.3419567907776915
0.3777795350931121,-0.7628093648278049,0.9705220108035616,-2.4448750004526203
0.37015144144483403,-0.7392857849934759,0.9460732607990354,-2.5485040328621293
0.36275858359489926,-0.7133475796887234,0.9205882204704141,-2.652724944755761
0.35562510779801204,-0.6851001456893462,0.8940609710228565,-2.7573877606637107
0.3487741063411186,-0.6546912070008896,0.8664870934162194,-2.8623039469284706
0.3422271942711097,-0.6223183575786226,0.8378640539469348,-2.9672374416852483
0.3360040106953235,-0.5882375475021353,0.8081916795300823,-3.0718941891732188
0.33012163522030213,-0.5527723999620229,0.7774727376383501,-3.1759102520005906
0.32459391122068193,-0.5163240867206218,0.7457136351183442,-3.278838776105755
0.3194306703534757,-0.4793812570896836,0.7129252473572867,-3.380136382430484
0.3146368577825789,-0.44252919805058744,0.6791238835329818,-3.4791499745248013
0.310211565802073,-0.40645700101183674,0.6443323837877338,-3.5751054850502206
0.30614699579195465,-0.3719610484943765,0.6085813289372316,-3.6671007069842463
0.30242738530701085,-0.3399426775113823,0.5719103218673891,-3.7541049832398863
0.299027958531897,-0.31139754898630134,0.5343692720349902,-3.8349689999557857
0.295913983042034,-0.28739424225665633,0.49601958203543234,-3.9084479946523065
0.2930400406194674,-0.26904013434560275,0.45693510208890925,-3.973241037775424
0.2903496392760114,-0.25743393150362276,0.417202691711155,-4.028047382041916
0.2877752999609752,-0.25360637786103135,0.3769222178907358,-4.071638081740703
0.28523923618236485,-0.2584534748874748,0.3362058370733288,-4.102937420305502
0.2826547014334901,-0.272669423336197,0.29517646287027377,-4.121104919611482
0.2799280072001281,-0.29668852744944463,0.2539654136741589,-4.125606059211841
0.27696112192563366,-0.33064550385788777,0.2127093530820405,-4.116259601824427
0.27365466688705475,-0.3743614457152148,0.17154675706379624,-4.0932523474420615
0.2699110524299026,-0.42735836170910696,0.13061423358937563,-4.057117860381242
0.26563746881281153,-0.488899890292314,0.09004305498556321,-4.008682678194439
0.26074846990988837,-0.5580511074374385,0.04995622820361882,-3.948989550560813
0.25516795883551396,-0.6337476817723373,0.010466332698010693,-3.879210558814088
0.2488304820177906,-0.7148645258542367,-0.02832577289013019,-3.8005628642531204
0.24168183675924823,-0.8002761272201219,-0.0663314015326614,-3.7142369423403774
0.233679075487047,-0.8889038914392328,-0.10347377095606516,-3.621342885041085
0.22479003657265467,-0.9797490008344304,-0.139687199806476,-3.522876152108933
0.21499254656431038,-1.0719117379844474,-0.17491596132756534,-3.4197009963013585
0.20427342918446592,-1.1645996620495855,-0.20911297129057893,-3.31254801174898
0.19262743256397008,-1.2571275468477834,-0.24223845140806874,-3.202021704263289
0.18005615709549225,-1.3489118645674945,-0.2742586684507016,-3.0886142699443697
0.1665670384498173,-1.439462124920043,-0.3051448111501453,-2.9727224878212852
0.15217241720061686,-1.5283707899187486,-0.33487203602835813,-2.8546654725346334
0.13688870930142938,-1.615302924790514,-0.3634186907537045,-2.7347018067841766
0.12073568005352424,-1.6999862852655419,-0.39076570882154626,-2.6130451961523478
0.10373581720086882,-1.782202198862042,-0.41689616078306974,-2.4898782444103476
0.0859137952122484,-1.861777362982437,-0.4417949432271732,-2.3653642544732008
0.06729602158242404,-1.9385765344409205,-0.46544858577190523,-2.23965715095448
0.04791025623801483,-2.0124960005426336,-0.48784515728145006,-2.1129097274498707
0.02778529623258849,-2.0834576811025367,-0.5089742545559488,-1.9852804726702997
0.006950719421563122,-2.151403698426752,-0.5288270592826518,-1.8569392448867754
-0.0145633175627044,-2.216291257366083,-0.5473964517315196,-1.7280720579055582
-0.03672623013636523,-2.278087692974448,-0.5646771723105752,-1.5988852227280066
-0.059507107066109705,-2.3367655649272208,-0.5806660245378553,-1.4696090618903739
-0.08287476271538191,-2.392297703795163,-0.5953621151567591,-1.3405013799834216
-0.10679773975333354,-2.4446521443431557,-0.6087671289565932,-1.2118508336224973
-0.1312442611967651,-2.493786916321356,-0.6208856372928182,-1.0839802952159665
-0.15618213035997866,-2.5396447057724045,-0.6317254402449779,-0.9572502442147222
-0.1815785774177027,-2.5821474523190586,-0.6412979426871251,-0.832062143463457
-0.20740005194089328,-2.6211910129766776,-0.6496185641217597,-0.7088616632083304
-0.23361196207066007,-2.6566401029178697,-0.6567071807538429,-0.5881414986911893
-0.26017836309983877,-2.6883238187702974,-0.6625885957407548,-0.47044338912091654
-0.28706160128754177,-2.7160321576305777,-0.6672930296319639,-0.35635879102246204
-0.31422192286384754,-2.7395140568356484,-0.6708566175421885,-0.2465275000918128
-0.341617063432204,-2.758477579767899,-0.6733218925431066,-0.1416333761821345
-0.369201839229883,-2.772592936108229,-0.674738226304928,-0.04239624278358946
-0.3969277685909653,-2.7814990156511117,-0.6751621887327639,0.05044094421550413
-0.4247427587474764,-2.7848139909866534,-0.6746577792906089,0.13613037429573863
-0.4525908986573429,-2.7821502657280393,-0.6732964755476515,0.21394341124026378
-0.4804124013146233,-2.773133587903871,-0.6711570414352489,0.28320001403581924
-0.508143737193662,-2.757425525632585,-0.6683250412948907,0.3433022962770519
-0.5357179924499879,-2.734747782988406,-0.6648920183321202,0.3937699480907154
-0.563065470279872,-2.704906150541638,-0.660954318851213,0.43427428645083044
-0.5901145317852884,-2.6678114184216852,-0.6566115759867047,0.46466706621693843
-0.6167926459695052,-2.623494514276667,-0.6519649053245353,0.4850001376289234
-0.6430275911122719,-2.5721135840937697,-0.6471149039482461,0.495532743429155
-0.6687487269532096,-2.5139517005670773,-0.6421595765139546,0.4967246890993955
-0.6938882439588804,-2.4494051937965424,-0.6371923296229607,0.48921554475945306
-0.7183822958968458,-2.3789639614770475,-0.6323001741753661,0.47379202306552404
-0.7421719355116162,-2.3031862080945724,-0.6275622539447109,0.4513472575841003
-0.765203797592562,-2.2226706428729583,-0.6230487813688699,0.42283653229582935
-0.7874305040212916,-2.138029150882608,-0.6188204160459115,0.3892339674326969
-0.8088107955301176,-2.0498624271650883,-0.6149280763715845,0.3514938779647204
-0.8293094198017684,-1.9587402322537248,-0.6114131375919373,0.31051928461146583
-0.8488968221243056,-1.8651870226113265,-0.6083079447458226,0.26713871412249046
-0.8675486923504189,-1.7696729214479778,-0.6056365576045977,0.22209125362424884
-0.8852454215648986,-1.6726094321667937,-0.6034156450683552,0.17601898162067484
-0.9019715158865665,-1.574348983545127,-0.6016554552521485,0.129465423774209
-0.9177150057220178,-1.475187298846395,-0.6003608010144064,0.08287852654435264
-0.9324668787104817,-1.3753676381130566,-0.5995320157489629,0.03661671582848036
-0.9462205550916123,-1.2750861084392198,-0.599165848590678,-0.009043184653943749
-0.9589714161760045,-1.1744974172552658,-0.5992562804372175,-0.053897138434519626
-0.9707163903485572,-1.0737206217901833,-0.5997952518215627,-0.0978048860375743
-0.981453596566459,-0.972844583229304,-0.6007733006819385,-0.14068120979432783
-0.9911820423987521,-0.8719329582641654,-0.6021801127798817,-0.1824877576168231
-0.9999013719813937,-0.7710286532809154,-0.6040049903560499,-0.22322556875885302
-1.007611658514203,-0.6701577311712734,-0.6062372460436385,-0.26292834432820233
-1.0143132358259157,-0.5693328031892989,-0.6088665294869205,-0.3016564379368266
-1.0200065638578086,-0.46855596406561395,-0.6118830938662888,-0.3394914993325269
-1.0246921234984647,-0.36782134271130756,-0.615278008859614,-0.3765316789615619
-1.0283703369255779,-0.26711734731346337,-0.6190433256492297,-0.4128872883213871
-1.0310415103987125,-0.16642868547291936,-0.6231721985324435,-0.44867680523105047
-1.0327057972534417,-0.06573823941555028,-0.6276589665847541,-0.48402311158807126
-1.0333631796475973,0.03497112535264672,-0.6324991977006348,-0.5190498516638387
-1.0330134683940708,0.13571474144027215,-0.6376896962172731,-0.5538778002435008
-1.031656320979668,0.23650423621999567,-0.6432284742197081,-0.5886211313821049
-1.0292912786174682,0.33734547056498676,-0.6491146855335291,-0.6233834802947678
-1.0259178239118183,0.4382362485269301,-0.6553485203364768,-0.658253693600982
-1.021535461426549,0.5391637301479237,-0.6619310572724867,-0.6933011681279071
-1.0161438241250698,0.6401014856785616,-0.6688640689537657,-0.7285706878145924
-1.009742809268284,0.7410061403187777,-0.6761497758319116,-0.7640766848872339
-1.0023327478650963,0.8418135769067069,-0.683790542680784,-0.7997968793201851
-0.9939146120960293,0.9424346931644386,-0.6917885114739858,-0.8356652946145604
-0.9844902651643849,1.0427507541932843,-0.7001451644201314,-0.8715647139615823
-0.974062757622452,1.1426084441944147,-0.7088608115597472,-0.9073187351528968
-0.9626366731805078,1.2418148077019873,-0.7179339989112762,-0.9426837107156694
-0.9502185251034879,1.3401323819763873,-0.7273608360184329,-0.9773410246375035
-0.936817201283724,1.4372749567398508,-0.737134246264808,-1.0108903560331453
-0.9224444517163255,1.5329045465145257,-0.7472431498251394,-1.0428448007690831
-0.9071154062511803,1.626630305747147,-0.7576715978328302,-1.0726289374437952
-0.8908491031937088,1.7180102260716756,-0.7683978872072682,-1.0995810885881794
-0.873669000932992,1.8065564833308914,-0.77939369809315,-1.1229610762028737
-0.8556034360996831,1.8917451947707016,-0.7906233088551787,-1.141964623576188
-0.8366859841519761,1.9730310515773093,-0.8020429550909406,-1.155745135906456
-0.816955673636203,2.0498667780678206,-0.8136004064500052,-1.1634428546899651
-0.7964570058555248,2.1217266534821007,-0.8252348349969049,-1.1642203471054025
-0.7752397393207038,2.1881325030116336,-0.8368770384679589,-1.1573020845821123
-0.7533584142905875,2.2486797850499176,-0.84845005931378,-1.142014716988217
-0.7308716164400882,2.3030608856043777,-0.8598702064836622,-1.1178238670985676
-0.7078410075840444,2.351082681491323,-0.8710484451546479,-1.0843631484957375
-0.6843301807691312,2.392675962598073,-0.8818920766396052,-1.0414518151211276
-0.6604034211431504,2.427895363752983,-0.8923065947908165,-0.9890989255618153
-0.6361244675056206,2.4569098330483055,-0.9021975840464347,-0.9274938511177013
-0.6115553691751375,2.4799850313877054,-0.9114725225576117,-0.8569849161528288
-0.5867555188612604,2.497460095503949,-0.9200423717191399,-0.7780494722626143
-0.561780917906221,2.5097216947437,-0.927822866441766,-0.6912594698642176
-0.5366837009587839,2.5171782333497505,-0.9347354611404082,-0.5972465384153736
-0.5115119186252864,2.520236515018964,-0.9407079265245619,-0.49666987982394667
-0.4863095534750968,2.5192824038935075,-0.9456746253228014,-0.3901892075282113
-0.4611167294361617,2.514666200071989,-0.9495765173980836,-0.27844382708715243
-0.4359700674354418,2.5066927570930018,-0.9523609556689551,-0.16203797930377833
-0.41090313986451177,2.4956158837728837,-0.9539813354619928,-0.04153187126561772
-0.38594698102678293,2.4816363031533824,-0.954396654174649,0.08256257696424127
-0.3611306179952491,2.4649023516505935,-0.9535710284050066,0.20978238768481758
-0.33648159447874315,2.445512637397509,-0.9514732045281584,0.33971166734157826
-0.3120264681047681,2.4235199844243827,-0.9480760878547426,0.47197818121804824
-0.28779126826052426,2.3989361258907635,-0.9433563060425622,0.6062491243791377
-0.2638019070016166,2.3717367462442454,-0.9372938147987708,0.742226664469011
-0.24008453953917414,2.3418665927287883,-0.9298715481540807,0.8796436627950937
-0.21666587361188624,2.309244474311959,-0.9210751115261298,1.0182598396833005
-0.19357342886876666,2.27376804011254,-0.9108925131292968,1.1578585400768724
-0.17083574846764127,2.235318282378138,-0.899313927728528,1.298244172808591
-0.1484825656438599,2.1937637450082024,-0.8863314860004421,1.439240336902196
-0.12654492819377788,2.1489644418505156,-0.8719390826314202,1.5806886052201603
-0.10505528377527273,2.100775503528195,-0.8561321965792186,1.7224479047395487
-0.08404752873999077,2.049050580864322,-0.8389077175318231,1.8643944093979106
-0.06355702293134756,1.9936450400100998,-0.8202637734378441,2.00642184224315
-0.04362057253124656,1.9344189916572,-0.8001995550154126,2.148442065581973
-0.024276382614674557,1.8712402064371318,-0.7787151343595929,2.290385818369397
-0.005563980550303237,1.8039869828546273,-0.7558112761758989,2.4322034367694507
0.012475889278243037,1.7325510549612635,-0.7314892418082044,2.5738653640790687
0.029801399827855672,1.6568406567043965,-0.7057505881674138,2.7153622171181824
0.04636980639489964,1.5767839010166096,-0.678596965996232,2.856704124252221
0.062137645405065736,1.4923326871125189,-0.6500299247537098,2.997918981213532
0.07706097227619092,1.4034674222906636,-0.6200507349415745,3.139049179890036
0.09109564649909756,1.3102029379662736,-0.5886602431426741,3.2801462468899167
0.10419767587876029,1.212596096152376,-0.5558587806737749,3.421262678051723
0.11632363684028404,1.11075572241687,-0.5216461538932577,3.562440069621255
0.12743119406445275,1.004855659605758,-0.4860217531970452,3.703692430270757
0.13747975066051032,0.8951518981102903,-0.44898482889433766,3.8449833274955973
0.14643126964161324,0.7820048687023106,-0.41053499561938167,3.9861953195930724
0.15425131832863634,0.6659080152300781,-0.37067304242345095,4.12709003758747
0.16091039848093713,0.5475235755806714,-0.32940214204757623,4.267257470298999
0.16638563423674385,0.4277258910209156,-0.2867295673445862,4.406053738656991
0.17066289314695302,0.3076512388661243,-0.2426690299580163,4.542528329376811
0.17373940553561426,0.1887507549770263,-0.1972437466642482,4.675344931137875
0.17562691308538453,0.07283909642765113,-0.15049029735286945,4.802705229518302
0.17635530404966104,-0.037874033656856904,-0.10246324505768643,4.92229248895481
0.17597656371309248,-0.14078886794174517,-0.05324032016813834,5.031260667659592
0.174568675033675,-0.2329817161338908,-0.0029277134915424163,5.126302301996776
0.17223885787233612,-0.31135671904619694,0.048335309528425345,5.203828698173396
0.16912529068187415,-0.37289619451616857,0.10037359651015931,5.2602811905372056
0.16539632873671248,-0.41499565775555847,0.15297640841553137,5.292556616506297
0.16124637215915688,-0.4358306524764932,0.20590197458059434,5.2984781091436695
0.15688806563439195,-0.43466724194612993,0.258886755672031,5.277194947837499
0.15254139321493065,-0.41202050524720435,0.311658705150406,5.2293850891334985
0.1484211881624586,-0.3696016784679462,0.363952556041741,5.157182626492209
0.14472517137777915,-0.3100642602740874,0.41552438230666305,5.063845454497955
0.14162452877503828,-0.23662650273818853,0.4661628368516426,4.9532671480487585
0.1392582637476564,-0.15267642974735535,0.5156955083321302,4.829473627125156
0.13773149945018284,-0.06144724795435466,0.5639902446033818,4.696218878308894
0.1371170269706393,0.034194002011628435,0.6109524333864707,4.556732944947474
0.13745896699075558,0.1318452952393694,0.6565197628359454,4.413617583602782
0.13877741994314927,0.22958239255198953,0.7006559386719732,4.268851999545175
0.14107324386866915,0.3259186993975817,0.7433444586674249,4.123863541922143
0.14433243086264497,0.4197404021108257,0.7845830940866464,3.979626014765372
0.14852983488375324,0.5102360259706602,0.8243793542343001,3.836760942559629
0.15363219514345983,0.5968311419387592,0.8627469636598963,3.695628542584741
0.1596005065628474,0.6791329016659218,0.8997032490857437,3.5564031435930565
0.16639183557950663,0.7568854302941261,0.9352672805216743,3.419132465597794
0.1739606898824479,0.8299352414519419,0.9694586051776523,3.2837824513296914
0.18226004229696732,0.898205093071111,1.0022964296909491,3.150270151034613
0.19124209322767843,0.9616745694953934,1.0337991312012953,3.018487199797301
0.20085883892263237,1.0203658303904926,1.0639840031992682,2.888316121885601
0.2110624972265373,1.0743332262430347,1.0928671644181243,2.759641287272638
0.22180582948896765,1.1236557506699245,1.1204635772908507,2.632355946667468
0.2330423869956669,1.1684315407943198,1.1467871367575253,2.5063664292210874
0.2447267024036101,1.2087738356714095,1.1718508010497362,2.3815943125954684
0.2568144407603242,1.2448079593532717,1.1956667441756907,2.2579771635285932
0.26926252035385695,1.2766690151190563,1.2182465158109768,2.135468288002033
0.28202921050504753,1.3045000674942198,1.2396011986909972,2.0140358124339848
0.2950742111799897,1.3284506554166342,1.259741556815337,1.893661331024035
0.3083587177341561,1.3486755287697623,1.2786781701255774,1.774338291356535
0.3218454730218537,1.365333535889551,1.2964215530391427,1.6560702443474475
0.3354988083807492,1.3785866149674249,1.3129822554826172,1.538869050886178
0.34928467453042344,1.3885988601050816,1.328370945991479,1.4227531126264916
0.3631706631314743,1.3955356450749556,1.342598477117744,1.3077456758283414
0.37712601958222386,1.39956279606125,1.3556759338760274,1.193873243171129
0.39112164754283635,1.40084580989111,1.3676146663077386,1.0811641177976565
0.40513010564174745,1.3995491173307104,1.3784263074857153,0.9696470956318846
