th1 (rad),w1 (rad/s),th2 (rad),w2 (rad/s)
1.9771610297796822,1.6694470670327588,4.875219944245331,-2.340171706626144
1.9938555004500098,1.5943107713507134,4.85181822717907,-2.323107711853845
2.009798608163517,1.522647879179282,4.828587150060532,-2.3019715335712365
2.0250250869553095,1.4542619682024842,4.80556743472482,-2.2768409121670192
2.0395677066373343,1.3889003861195997,4.78279902560315,-2.247884467743989
2.0534567104985304,1.3262741734504992,4.76032018092571,-2.2153326631383146
2.0667194522330354,1.2660752868268779,4.7381668542943265,-2.179452951310454
2.0793802051013044,1.207990578605445,4.716372324781222,-2.140529773551635
2.091460110887359,1.151712479867093,4.694967027045706,-2.0988493947325493
2.10297723568603,1.096946654708523,4.6739785330983805,-2.0546891274897527
2.113946702233115,1.0434170662585145,4.653431641823483,-2.0083102728062947
2.1243808728957,0.9908689557142898,4.63334853909542,-1.9599540352281242
2.134289562452843,0.9390702228104522,4.613748998743138,-1.9098397021572586
2.143680264680947,0.887811641496438,4.594650601721566,-1.858164462960811
2.1525583810959117,0.8369062717595798,4.576068957091957,-1.8051043522672197
2.1609274438135073,0.786188352892913,4.558017913569285,-1.7508159117834587
2.1687893273424366,0.7355118939059972,4.54050975445145,-1.6954382645473989
2.1761444462814965,0.6847491173676685,4.523555371805976,-1.639095379524683
2.1829919374551734,0.6337888649037645,4.5071644180107295,-1.5818983717610364
2.189329826104211,0.5825350352864592,4.49134543429312,-1.523947735080375
2.195155176457076,0.5309050981503384,4.476105956942316,-1.4653354427996435
2.2004642274385793,0.47882870618334267,4.46145260251432,-1.4061468796328398
2.2052525145004127,0.4262464145354518,4.447391133717991,-1.3464625872789142
2.209514978645767,0.3731085067224748,4.433926507845202,-1.2863598192159933
2.2132460637129916,0.31937392028022754,4.421062909653042,-1.2259139086655992
2.2164398029157937,0.2650092618952575,4.408803770566386,-1.1651994588867713
2.2190898955347462,0.2099878999710237,4.397151775977518,-1.1042913679308122
2.2211897745344564,0.1542891220348231,4.38610886229821,-1.0432657014861448
2.2227326657548048,0.09789734464817595,4.375676205283348,-0.9822004280115632
2.2237116392012863,0.04080136426139766,4.365854201003232,-0.9211760303744623
2.2241196528439002,-0.01700636145462276,4.3566424406994875,-0.8602760079355847
2.223949589229354,-0.07553041100435418,4.348039680620132,-0.7995872826202782
2.2231942851193103,-0.1347730830642333,4.340043807793929,-0.7392005220896124
2.221846554288668,-0.1947350736191251,4.332651802573033,-0.6792103927275025
2.219899203552477,-0.2554161514876222,4.3258596986457585,-0.6197157548138957
2.217345042037601,-0.3168158362679774,4.319662541097619,-0.5608198119579424
2.214176883674921,-0.3789340816099153,4.31405434297804,-0.5026302266022648
2.2103875428588218,-0.441771965690402,4.309028040712017,-0.4452592131529189
2.205969823201918,-0.5053323898450619,4.304575448580488,-0.38882362000543197
2.2009164993034673,-0.5696207854761158,4.300687212380434,-0.3334450113866292
2.195220291448706,-0.6346458286107532,4.297352762266568,-0.279249759472369
2.1888738331625985,-0.7004201608021156,4.294560264671844,-0.2263691566268688
2.1818696315545774,-0.766961114422285,4.292296573105576,-0.17493955679005724
2.1742000204103547,-0.8342914397578909,4.290547177537675,-0.12510255396004577
2.165857106012776,-0.9024400306392693,4.289296151998075,-0.07700520431571667
2.156832705706383,-0.9714426445572869,4.288526099954917,-0.030800296726873407
2.1471182792608103,-1.0413426122786849,4.288218096987649,0.013353325879773455
2.1367048531380233,-1.112191530777129,4.288351630246447,0.05529039469492531
2.125582937830252,-1.1840499317525461,4.288904534193396,0.0948387967127151
2.113742438512727,-1.2569879159970299,4.289852922160523,0.13181911833831592
2.1011725593527566,-1.3310857412432102,4.291171113343906,0.166044164812704
2.0878617019403243,-1.4064343477416354,4.292831554992033,0.1973184761025899
2.073797358462908,-1.4831358014785423,4.294804739753059,0.22543786818049893
2.0589660004481227,-1.5613036294679317,4.297059118434864,0.25018903871694004
2.0433529641534434,-1.641063014723831,4.299561008822033,0.2713492884513491
2.026942334006205,-1.7225508101305558,4.302274501706546,0.2886864242479936
2.009716825904899,-1.8059153202880667,4.305161365949026,0.3019589274186067
1.9916576727020185,-1.8913157883686895,4.308180955223212,0.31091649159938584
1.9727445148183316,-1.978921511020551,4.311290120139206,0.3153010584886486
1.952955299708126,-2.0689104884801974,4.314443130724093,0.31484850705839457
1.9322661948233242,-2.1614674996316046,4.317591615794677,0.30929118208259215
1.9106515198270082,-2.2567814734318543,4.320684527615502,0.29836148008932495
1.8880837050926897,-2.355042010054337,4.323668142416396,0.2817967435005312
1.8645332849921463,-2.456434889057484,4.326486109851401,0.2593457440927819
1.8399689361015714,-2.5611363904632207,4.329079567292329,0.23077706096240932
1.8143575721969392,-2.6693062513906214,4.331387337901953,0.19588967020461334
1.787664509683033,-2.7810790904794285,4.333346234603999,0.15452605589316246
1.7598537187782388,-2.8965541604536913,4.334891495162931,0.1065881150464234
1.730888177173702,-3.015783342335881,4.335957376313395,0.05205605169496051
1.7007303437503432,-3.1387573798052943,4.336477936830345,-0.008989675480872705
1.6693427699522903,-3.2653904750552885,4.336388040075536,-0.07634348316264948
1.6366888652017373,-3.395503532099362,4.335624605243909,-0.14964727220437318
1.6027338298807436,-3.5288065395560273,4.334128132521865,-0.2283612638031909
1.5674457644851834,-3.6648808260240697,4.331844519883833,-0.3117342299349151
1.5307969562249426,-3.8031621826588884,4.328727177584484,-0.39877475407315505
1.4927653343983538,-3.9429261058918215,4.324739430043752,-0.48822564158815485
1.4533360733394356,-4.083276636726281,4.31985717362787,-0.5785440437472334
1.4125033069721729,-4.223140425357443,4.3140717331903975,-0.6678901987604912
1.3702719027185983,-4.361267695998303,4.307392831202793,-0.7541278566922547
1.3266592257586154,-4.496241700714021,4.299851552635871,-0.8348393778793781
1.281696808751475,-4.6264980226055705,4.291503158857077,-0.9073581316702629
1.2354318285254193,-4.750354726501759,4.282429577540375,-0.968820156989642
1.1879282812604017,-4.866053882775037,4.272741375970479,-1.016236090381379
1.1392677424326514,-4.971814432810308,4.262579015066665,-1.04658315118101
1.0895495981045482,-5.065895733836541,4.2521131835548545,-1.0569155279209146
1.0388906407661829,-5.14667039704937,4.241544028275645,-1.044489849288169
0.9874239367956892,-5.212704165497547,4.231099129782764,-1.0069005451452973
0.9352968951407137,-5.262839507629801,4.22103012433131,-0.9422178214550551
0.8826685000644157,-5.29627831134067,4.21160794611676,-0.8491187816441913
0.8297057169510089,-5.3126576459422585,4.203116758300318,-0.7270001864065097
0.7765791404915864,-5.312111282362089,4.195846756436253,-0.5760599434962315
0.7234580276679655,-5.295308975219422,4.19008615700129,-0.39733435678253926
0.6705049379157713,-5.263465967133868,4.186112813433465,-0.1926801887635236
0.6178702782444325,-5.218317242817072,4.18418601154583,0.03530480014193932
0.5656871058162618,-5.162054864491287,4.184539059547249,0.2834221008800636
0.514066557171349,-5.097231832663922,4.1873732805560495,0.5480642217292195
0.46309423884470974,-5.02664132300814,4.192853922773342,0.8254405063778494
0.41282782561462833,-4.953184493139687,4.20110832783712,1.1118138402902416
0.36329598068323143,-4.879742100511146,4.212226466240022,1.4037235946400148
0.31449855967811996,-4.80906431497459,4.226263702186422,1.6981734538396882
0.26640791652837403,-4.743689626230232,4.243245436724819,1.992769993916233
0.2189710202660717,-4.685898692450711,4.263173136663982,2.285807061715067
0.1721120333415646,-4.637703751546526,4.286031207281132,2.5762998530452315
0.12573499582609934,-4.600870048410993,4.311794205811585,2.8639792874225236
0.07972629534198941,-4.5769633194307255,4.34043399868581,3.1492609830922804
0.03395666214768216,-4.567416812187096,4.371926608516732,3.4332039929841343
-0.011717505974188802,-4.573612242028347,4.406258648446574,3.717473273871027
-0.057453628394472274,-4.596970926581702,4.443433381185284,4.004317642878195
-0.1034233376602893,-4.639053512893326,4.483476557614066,4.296572580266936
-0.14981387278922256,-4.701668702943424,4.526442283416735,4.597695113530451
-0.1968305598186568,-4.786992650721566,4.572419234552039,4.91183603044069
-0.24470048632587246,-4.89770037629427,4.621537594856446,5.243951794558958
-0.29367749008881516,-5.037106726180498,4.673977112802035,5.599952083070104
-0.3440485573506201,-5.2093026618326554,4.729976633632736,5.986862507277169
-0.39614158396894666,-5.4192425409598535,4.789845258705508,6.412941161896498
-0.4503340093785452,-5.672665428866589,4.853974670324473,6.887588495816816
-0.507060663667211,-5.975564300012144,4.922850555282642,7.4206571692401395
-0.5668163066673325,-6.332539682871441,4.997057126975043,8.020245766183368
-0.6301417034960469,-6.742607664565112,5.077259584636876,8.686991910784835
-0.6975677801416981,-7.189834521408126,5.164129503744725,9.401200436560273
-0.7694661253557793,-7.625957460271387,5.258141508110327,10.098812573396765
-0.8457256999584932,-7.949992810302214,5.359129633844295,10.643105587435494
-0.9252256280615154,-8.018786450681514,5.465560689718649,10.83935319708912
-1.0054134925683305,-7.741672068173293,5.57395422168954,10.56627973219628
-1.0828302132500633,-7.190956467212097,5.679617019011503,9.928437648243642
-1.1547397779221844,-6.539566713479753,5.778901395493939,9.167612864216306
-1.220135445056982,-5.912781975993349,5.8705775241361025,8.45719557589333
-1.2792632648169153,-5.355428817855889,5.955149479895036,7.85858131483752
-1.3328175529954742,-4.869643141121948,6.033735293043411,7.37457009360031
-1.3815139844066937,-4.444077429146281,6.107480993979414,6.989929746794811
-1.4259547586981565,-4.065649534177169,6.177380291447363,6.68749671431324
-1.466611254039928,-3.722933214497168,6.244255258590495,6.452712245049334
-1.5038405861848998,-3.4066776547623903,6.308782381040988,6.274234504369229
-1.5379073627325237,-3.1095324261777892,6.37152472608468,6.1434849552245865
-1.5690026869943017,-2.825642338565131,6.432959575636926,6.05402941116378
-1.597259110379953,-2.5502958405209637,6.493499869748564,6.001033813809652
-1.6227620687851625,-2.2796613911916674,6.55351020788666,5.980832215512763
-1.6455586826970792,-2.0106052425603544,6.613318530041788,5.990589896307954
-1.6656647351226828,-1.7405764391426786,6.6732244290048675,6.028035141723031
-1.6830704995141095,-1.4675463363397279,6.7335047804220975,6.091236237047856
-1.6977459628775067,-1.1899929187019445,6.794417142792576,6.178405856726959
-1.709645892064526,-0.9069223257616859,6.856201201359846,6.287720754322062
-1.718715115322143,-0.6179205484887333,6.919078408903066,6.417150287755847
-1.7248943208070302,-0.32322699813989925,6.983249911780624,6.564293254411589
-1.7281265907884291,-0.023818531221821482,7.04889284432474,6.726229141593171
-1.7283647761006473,0.27851220435904656,7.116155135740672,6.899397199875643
-1.725579654057057,0.5811057434973845,7.185149107739428,7.079523955643244
-1.719768596622083,0.8804383738209172,7.255944347295861,7.261625090629635
-1.7109642128838738,1.1722057244917679,7.3285605982021575,7.440108155525994
-1.699242155638956,1.4515093007281663,7.402961679757418,7.60899499679142
-1.6847270626316744,1.7131532647398533,7.479051629725332,7.762264740728414
-1.6675955299842757,1.9520351435264964,7.5566742771326165,7.894290672967491
-1.6480751785490109,2.1635861171328523,7.6356171838622915,8.000313555896701
-1.6264393173776823,2.3441932482384593,7.715620319421259,8.076870883708706
-1.6029973848952976,2.4915281368361915,7.7963890282583455,8.122098166490199
-1.5780821035269357,2.6047206478773455,7.877610009923248,8.135840608837647
-1.5520348970481623,2.6843501860599908,7.958968416011624,8.119556513277127
-1.5251913951875624,2.732268852335863,8.040163981144396,8.076042224950212
-1.4978687066642038,2.7513054484248554,8.120924403393898,8.009044643320946
-1.4703556521799552,2.744915735897116,8.201014849827107,7.922840158676418
-1.442906494820984,2.71684072002319,8.280243251413872,7.821848543088783
-1.4157380876207522,2.670817173486671,8.35846173684476,7.7103259004639195
-1.3890299158858854,2.6103624264412804,8.435564995849399,7.5921537120487015
-1.3629262916214726,2.5386362134489335,8.511486532969887,7.470719628786466
-1.3375399294869832,2.458369768523767,8.58619372925775,7.348873199872353
-1.3129562318017456,2.3718465750473854,8.659682461256475,7.228935403325595
-1.2892377660512717,2.2809184649077356,8.73197181528973,7.112742006993935
-1.2664285814021943,2.187042941567621,8.803099235359669,7.001704668374904
-1.244558151986518,2.0913309031568126,8.873116282043418,6.896878250898716
-1.22364484295495,1.99459725039167,8.942085064552405,6.799026951588205
-1.2036988704510334,1.8974096401353833,9.010075334068286,6.708685045189266
-1.1847247740496796,1.8001327297864627,9.077162184520178,6.626210309386587
-1.166723446751815,1.7029666950186844,9.143424287614044,6.551829652359754
-1.1496937798016282,1.6059797198547028,9.208942584137642,6.485677320140857
-1.1336339826030812,1.5091346928023346,9.273799357339051,6.427826505732237
-1.1185426356750579,1.4123106168090738,9.338077622396373,6.378315364455286
-1.1044195295069672,1.3153193473837164,9.401860776040925,6.337168468414726
-1.09126633603313,1.2179182789632834,9.465232460725073,6.304414679812095
-1.0790871532434971,1.1198195492927936,9.528276607523194,6.280102334120129
-1.0678889577505692,1.0206962539797195,9.591077630864396,6.264312527317548
-1.057681995210772,0.9201860761451298,9.653720756137572,6.2571712116758995
-1.0484801344493209,0.8178926497635626,9.71629246825433,6.258860729235758
-1.0403012079516853,0.7133848963400952,9.778881075546687,6.269631353110597
-1.0331673589882844,0.6061945078668759,9.841577389077793,6.289813362164888
-1.0271054139096156,0.4958117000051116,9.904475522699443,6.319830138510638
-1.0221472969095644,0.38167933682576183,9.96767382408455,6.360212738234688
-1.0183305035413068,0.2631855477475007,10.031275951466897,6.411616323213795
-1.015698648063832,0.13965504685124902,10.095392114699035,6.474838718863738
-1.0143020975953194,0.010339575813422097,10.160140501887671,6.550841112701475
-1.0141987018371852,-0.12559168351383282,10.225648913014686,6.640770411562232
-1.0154546186723235,-0.2690600774021861,10.292056617130308,6.745981814099597
-1.0181452194463454,-0.4210807039941237,10.359516435271305,6.868058338098014
-1.0223560264862865,-0.5827550981853628,10.428197018652284,7.008820666308518
-1.0281835774681403,-0.7552428109177505,10.49828522531537,7.170314493978713
-1.0357360055773177,-0.9396928856543453,10.569988370255157,7.354751420094835
-1.0451329344338611,-1.1371016238925757,10.643535884456105,7.564359770426532
-1.056503950672787,-1.348038581783922,10.71917948216037,7.8010683060955355
-1.069984336490626,-1.5721445811651549,10.797190165221327,8.065892673748337
-1.0857057823022775,-1.8072546006372707,10.87784909195881,8.357821826280901
-1.1037783283086502,-2.047957600924745,10.96142731022162,8.671938798468764
-1.1242579043178977,-2.2834638529451157,11.048146698206308,8.996576771759266
-1.1470925428473489,-2.4950417159267837,11.1381124659239,9.309826016959283
-1.1720429600066167,-2.654392929922966,11.231210726093492,9.577199585752165
-1.1985868893058462,-2.72614746601177,11.326982721951014,9.754735506602223
-1.2258483639659639,-2.6780808178391644,11.424530077017035,9.80240763320082
-1.2526291721443554,-2.4970851973091466,11.522554153349043,9.705153507962489
-1.277600024117447,-2.1987090537660325,11.619605688428669,9.485037138549929
-1.2995871146551072,-1.8192398163653478,11.714456059814168,9.189972402505433
-1.3177795128187606,-1.397426750531125,11.806355783839223,8.869148863689867
-1.3317537803240718,-0.9618553759167648,11.895047272476122,8.556771881010656
-1.3413723340832395,-0.5288693344918853,11.980614991286227,8.270113305205994
-1.3466610274281583,-0.10591943654075964,12.063316124338288,8.01452897212525
-1.347720221793566,0.30458173594444415,12.14346141405954,7.788801282444095
-1.3446744044341215,0.7025967670771298,12.221349426883982,7.588681906257473
-1.33764843676335,1.0889609639090931,12.297236245946557,7.408808005782606
-1.3267588271242592,1.4646268347364066,12.371324326004384,7.243616477957609
-1.3121125587768951,1.830320686006085,12.44376049078396,7.087733331863452
-1.2938093519168343,2.186411266356008,12.514637824102595,6.936115143944619
-1.2719452392532742,2.532884442869289,12.583998975542041,6.7840858560204245
-1.2466163948245812,2.8693710504614245,12.651839834102246,6.627338231284465
-1.2179226843199669,3.1952024644095807,12.718113216415091,6.461931332586543
-1.185970659675871,3.509481771113306,12.782732529740956,6.284296447368792
-1.150875841964738,3.811164462913304,12.845575494214645,6.091254431988679
-1.112764197335605,4.099144993201758,12.906488038534532,5.880042639836618
-1.0717727474035874,4.372346192691915,12.965288464932899,5.648347100331183
-1.0280492854766683,4.629808468473538,13.02177193593621,5.394334361465899
-0.9817512007919329,4.870775433564757,13.075715279550868,5.116676937656509
-0.9330434464562853,5.094772456709268,13.126882048927433,4.8145664323803805
-0.8820957218891927,5.301674752151958,13.175027713251236,4.487709052270261
-0.8290789743676732,5.491762126350362,13.219904803773938,4.136299337457614
-0.7741613531041696,5.665758371697251,13.261267797148514,3.7609694235043367
-0.7175037693871971,5.824854496327421,13.298877491383557,3.362712907975823
-0.6592552244239228,5.970716402808749,13.332504620463315,2.94278426713445
-0.5995480603958353,6.105479129768342,13.361932463134659,2.502576580653356
-0.5384932690981519,6.231731158487014,13.386958228941193,2.0434819129339314
-0.47617595751328173,6.352493322734639,13.407393048070533,1.5667399839343767
-0.41265102428593536,6.471197235350985,13.423060447909878,1.0732818391960224
-0.3479390519324255,6.591667408262857,13.433793266301837,0.5635765546181548
-0.28202237784979695,6.71810862381803,13.439429031848018,0.037491702576955555
-0.21484129161161664,6.855094131167908,13.439803948873788,-0.5058152992021957
-0.14629035029993756,7.007537876822614,13.434745795881765,-1.0679430726393084
-0.07621497153171142,7.180609085048137,13.424066365155372,-1.6511652513545712
-0.0044088806812300485,7.379497927567938,13.407554712641828,-2.2580911477122507
0.06938609859444933,7.608844471145973,13.384973801164705,-2.89080311290122
0.14547454330590906,7.871465647747221,13.356065770035693,-3.5489587108460414
0.22418919978338125,8.165733642025762,13.320576182927233,-4.225955975256731
0.3058465362036389,8.480688643766994,13.278316623174666,-4.901895375325847
0.3906534226413088,8.788398196462767,13.229297669421408,-5.532715811852932
0.47853740460593647,9.036297602945687,13.173970511302878,-6.0394993403828
0.5689003806353934,9.150794218855566,13.11357551789905,-6.314084978305699
0.660408322823949,9.069413525974268,13.050434668115994,-6.265547338906723
0.7511024580836917,8.79169493834552,12.987779194726926,-5.8934429124815795
0.8390194074671469,8.388873309896386,12.92884476560211,-5.302161547125951
0.9229081405661107,7.950391768734774,12.87582315013085,-4.6244727870046605
1.0024120582534584,7.535395796624422,12.829578422260804,-3.9510999779843674
1.0777660162197025,7.167954041562955,12.790067422480961,-3.3225146397512724
1.149445556635332,6.851665378635215,12.756842276083448,-2.7490967614235924
1.2179622104216843,6.581748364505548,12.729351308469212,-2.2283250967226165
1.2837796940667399,6.351120562768688,12.707068057501987,-1.7536391425664237
1.3472908996944268,6.152807881700574,12.689531666076322,-1.3180930470578818
1.4088189785114327,5.980700140109974,12.676350735605743,-0.9156067406664019
1.4686259799125325,5.829666068474027,12.667194668199079,-0.5412510669682808
1.526922640597273,5.695455301713262,12.661782157529396,-0.1911857576100131
1.5838771936144056,5.574551717774337,12.659870299953296,0.1375044042187396
