th1 (rad),w1 (rad/s),th2 (rad),w2 (rad/s),a1 (rad/s^2),a2 (rad/s^2)
2.642365071560274,-1.0808266568295524,3.471750566689102,-2.8039234593334332,-3.334897736280163,4.5676824915919765
2.6315568049919786,-1.114175634192354,3.4437113320957677,-2.7582466344175134,-3.5588445520842606,4.463222718342982
2.620415048650055,-1.1497640797131967,3.4161288657515927,-2.7136144072340835,-3.7719476575501982,4.351942227119974
2.608917407852923,-1.1874835562886987,3.388992721679252,-2.670094984962884,-3.9742771446021035,4.233238405582249
2.597042572290036,-1.2272263277347197,3.3622917718296232,-2.6277626009070616,-4.165914453235045,4.106544224485543
2.5847703090126886,-1.2688854722670702,3.3360141458205526,-2.586697158662206,-4.346950985470566,3.9713266066415724
2.572081454290018,-1.312354982121776,3.3101471742339306,-2.54698389259579,-4.517485533799559,3.8270832288021035
2.5589579044688002,-1.3575298374597715,3.284677335307973,-2.508713060307769,-4.677620642651032,3.6733379978449054
2.5453826060942024,-1.4043060438862818,3.259590204704895,-2.47197968032932,-4.827458073455754,3.5096355081089343
2.5313395456553396,-1.4525806246208393,3.2348704079016017,-2.436883325248231,-4.967093584153741,3.3355348374412164
2.5168137394091312,-1.5022515604623767,3.2105015746491192,-2.4035279768738187,-5.09661126052841,3.1506030725560845
2.5017912238045072,-1.5532176730676608,3.1864662948803812,-2.3720219461482577,-5.216077648601157,2.95440896816186
2.4862590470738306,-1.6053784495536723,3.1627460754188985,-2.342477856466639,-5.325535934593703,2.746517138862358
2.4702052625782938,-1.6586338088996093,3.139321296854232,-2.3150126850780155,-5.425000402693783,2.526483159195049
2.4536189244892976,-1.7128838129265471,3.116171170003452,-2.289747853486065,-5.514451372810446,2.2938499073909093
2.436490086360032,-1.7680283266546515,3.093273691468591,-2.266809354412156,-5.593830782960887,2.048145435256692
2.4188098030934855,-1.8239666344842604,3.0706055979244695,-2.246327900059589,-5.663038536464328,1.78888258306851
2.4005701367486427,-1.8805970198489037,3.0481423189238734,-2.2284390742289037,-5.721929685403995,1.5155604877062356
2.3817641665501537,-1.9378163167029436,3.0258579281815843,-2.2132834693518415,-5.770312471486734,1.2276680575426349
2.3623860033831243,-1.995519441417811,3.003725093488066,-2.2010067887764153,-5.807947195981404,0.9246894117194666
2.3424308089689463,-2.053598913377625,2.9817150256003018,-2.1917598946592207,-5.834545844182629,0.6061112070390215
2.32189481983517,-2.1119443718194515,2.9597974266537097,-2.1856987825888305,-5.84977234898235,0.2714317051740432
2.3007753761169756,-2.170442095309275,2.9379404388278214,-2.18298446553709,-5.853243344634478,-0.07982863156698203
2.279070955163883,-2.2289745287556197,2.9161105941724506,-2.18378275185276,-5.844529237512523,-0.4481152841078592
2.2567812098763267,-2.287419821130745,2.894272766653923,-2.1882639046938386,-5.823155407269964,-0.8338268749099821
2.233907011665019,-2.3456513752034445,2.8723901276069848,-2.1966021734429386,-5.78860335080023,-1.2373017708143403
2.2104504979129844,-2.403537408711447,2.8504241058725555,-2.208975191151082,-5.74031159396366,-1.6588044633438137
2.1864151238258698,-2.4609405246510834,2.828334353961045,-2.2255632357845205,-5.677676223034842,-2.098512109072184
2.161805718579359,-2.5177172868814317,2.8060787216031997,-2.2465483568752425,-5.600050929570137,-2.556501609159564
2.1366285457105447,-2.573717796177133,2.783613238034447,-2.272113372966838,-5.5067465186569935,-3.0327375911404
2.1108913677487733,-2.628785261363703,2.7608921043047787,-2.302440748878242,-5.397029900375867,-3.5270616290008907
2.0846035151351363,-2.6827555603674615,2.7378676968159965,-2.337711365168251,-5.270122666191792,-4.039183001713222
2.0577759595314618,-2.7354567870293796,2.714490583164314,-2.3781031951853833,-5.125199443675102,-4.568671248504108
2.030421391661168,-2.7867087814661304,2.69070955121246,-2.4237899076704243,-4.961386321708422,-5.114950734304104
2.0025543038465066,-2.836322644683215,2.666471652135756,-2.4749394150134654,-4.77775974116148,-5.677297393974587
1.9741910773996745,-2.8841002420948296,2.6417222579856214,-2.531712388953211,-4.573346349894405,-6.254837781239231
1.9453500749787263,-2.9298337055937735,2.616405134096089,-2.5942607667656032,-4.347124423211865,-6.84655050857383
1.9160517379227886,-2.9733049498258923,2.5904625264284333,-2.6627262718513416,-4.098027549590227,-7.451270126343754
1.8863186884245298,-3.0142852253217947,2.5638352637099198,-2.737238973114779,-3.8249513758471783,-8.06769344907494
1.8561758361713119,-3.0525347390802664,2.536462873978772,-2.8179159076055282,-3.526764296747717,-8.694388286130433
1.8256504887805092,-3.0878023820477436,2.5082837149027166,-2.9048597904668325,-3.202323064324741,-9.329804461066757
1.7947724649600318,-3.119825612690991,2.479235116998048,-2.9981578350775,-2.850494387714407,-9.97228689117415
1.7635742088331219,-3.1483305565681348,2.449253538647273,-3.0978807039892415,-2.4701837044564567,-10.62009032264684
1.7320909032674405,-3.1730323936126994,2.4182747316073807,-3.20408160721571,-2.0603724430658286,-11.271395046748982
1.7003605793313135,-3.193636118043358,2.3862339155352235,-3.3167955576832,-1.62016528442851,-11.924322518899903
1.66842421815088,-3.209837770887643,2.3530659599583914,-3.436038782872199,-1.148849194329561,-12.576949216056036
1.6363258404420036,-3.2213262628309387,2.3187055721296694,-3.5618082750327593,-0.6459663794763603,-13.227316235683857
1.6041125778136942,-3.2277859266257023,2.283087489379342,-3.694081437389598,-0.11140386572092556,-13.873430984111977
1.5718347185474373,-3.2288999652829116,2.246146675005446,-3.832815747230718,0.45449682411561565,-14.513255726841862
1.5395457188946082,-3.2243549970417553,2.207818517533139,-3.9779483044991366,1.0508053218689002,-15.144675661549487
1.5073021689241908,-3.213846943823066,2.1680390344881477,-4.129395061114631,1.6758373185083422,-15.765436388846224
1.47516369948596,-3.1970885706379826,2.1267450838770015,-4.287049425003094,2.3269506233645743,-16.373037046253046
1.4431928137795802,-3.173819064404337,2.0838745896269706,-4.450779795465624,3.000291654178196,-16.964560796584237
1.411454623135537,-3.143816147862555,2.039366791672314,-4.620425403431466,3.6904783780798356,-17.53641874469887
1.3800164616569113,-3.1069113640817565,1.9931625376379996,-4.795789590878455,4.39020196848711,-18.083976791365192
1.3489473480160936,-3.0630093443968853,1.945204641729215,-4.976629358792106,5.08972565195233,-18.60102790403553
1.3183172545721247,-3.012112087877362,1.895438348141294,-5.162639637832462,5.7762564987721525,-19.07906606047321
1.288196133693351,-2.9543495228896406,1.8438119517629694,-5.353430298437194,6.433166532119867,-19.506315437633482
1.2586526384644545,-2.890017857568442,1.7902776487785974,-5.5484934528135295,7.039047738996601,-19.86647457016731
1.2297524598887701,-2.819627380178476,1.734792714250462,-5.747158198515202,7.566608718863883,-20.137159622717906
1.2015561860869854,-2.743961292989837,1.6773211322653099,-5.948529794742381,7.981470541120549,-20.288089044920017
1.174116573157087,-2.6641465875786317,1.617835834317886,-6.151410685191581,8.241012660927035,-20.279166353139924
1.1474751072813008,-2.581736460969361,1.5563217274659702,-6.35420234872298,8.293576195098666,-20.058816334408665
1.1216577426716072,-2.4988006990183744,1.4927797039787405,-6.554790512067067,8.078565141323297,-19.5632342152845
1.0966697356814235,-2.4180150476051416,1.4272317988580698,-6.750422854219912,7.528280854087206,-18.717603124972808
1.072489585205372,-2.3427322390642695,1.3597275703158707,-6.93759888546964,6.572593543405919,-17.440715224808027
1.0490622628147293,-2.2770063036302104,1.2903515814611743,-7.1120060377177206,5.147579572175186,-15.654518329684953
1.0262921997784271,-2.2255305079084584,1.2192315210839972,-7.26855122101457,3.2086640838896914,-13.299417710028184
1.0040368946993425,-2.1934438670695613,1.1465460088738515,-7.401545398114852,0.7472030747512395,-10.354155715166248
0.9821024560286469,-2.185971836322049,1.0725305548927029,-7.505086955266514,-2.193208781164663,-6.8557160725811945
0.9602427376654263,-2.2079039241336953,0.9974796853400377,-7.573644115992326,-5.507135715101793,-2.9112086222155322
0.9381636984240894,-2.2629752812847133,0.9217432441801144,-7.602756202214481,-9.031434378460307,1.3070694021343396
0.9155339456112422,-2.3532896250693165,0.8457156821579697,-7.589685508193138,-12.566442767942466,5.587394396876497
0.892001049360549,-2.4789540527487413,0.7698188270760383,-7.533811564224373,-15.909929665025752,9.719440149292444
0.8672115088330616,-2.638053349398999,0.6944807114337946,-7.436617162731449,-18.892390941807793,13.535508327570279
0.8408309753390717,-2.826977258817077,0.6201145398064801,-7.301262079455746,-21.401154244325188,16.936557111315732
0.8125612027509009,-3.0409888012603288,0.5471019190119226,-7.131896508342589,-23.38681767916152,19.89566039761356
0.7821513147382977,-3.274856978051944,0.47578295392849673,-6.932939904366453,-24.854169024465477,22.442645071064714
0.7494027449577783,-3.5233986682965988,0.4064535548848322,-6.708513453655806,-25.845067046417185,24.640080170260244
0.7141687582748123,-3.781849338760771,0.33936842034827414,-6.462112651953204,-26.42083795043247,26.560298296749146
0.6763502648872046,-4.046057718265096,0.2747472938287421,-6.196509668985712,-26.64862396772225,28.268732553252942
0.6358896877045537,-4.312543957942318,0.21278219713888497,-5.913822343453183,-26.59277930151055,29.814470840982366
0.5927642481251305,-4.578471750957424,0.15364397370435312,-5.615677635043359,-26.310389397516722,31.22645111230645
0.5469795306155563,-4.841575644932591,0.09748719735391953,-5.303413123920294,-25.84933812186439,32.513051751766206
0.4985637741662304,-5.1000690261512345,0.04445306611471658,-4.978282606402632,-25.247490864231814,33.66314043061711
0.44756308390471805,-5.352543934793553,-0.005329759949309738,-4.641651202096461,-24.531974768429322,34.6472360317343
0.39403764455678253,-5.597863682477846,-0.05174627197027435,-4.2951788417791175,-23.717944802740647,35.41797708501581
0.3380590077320041,-5.835043130505253,-0.09469806038806552,-3.9409990709289593,-22.806554975453732,35.90951674123074
0.27970857642695157,-6.0631086802597896,-0.13410805109735513,-3.5819039035166518,-21.78215156244932,36.035864837334245
0.21907748962435367,-6.280930195884283,-0.16992709013252166,-3.2215452551433095,-20.609071341399012,35.688726500128105
0.15626818766551084,-6.4870209092982725,-0.20214254268395476,-2.8646579901420286,-19.228989907359345,34.73622349703653
0.09139797857252811,-6.6793108083718655,-0.23078912258537504,-2.5172957551716633,-17.56062697314443,33.0251617862072
0.024604870488809452,-6.85491707810331,-0.25596208013709165,-2.1870441373095915,-15.504724826845555,30.391118153948984
-0.043944300292223654,-7.009964326371765,-0.27783252151018756,-1.8831329557701015,-12.958086916781147,26.681810305285186
-0.1140439435559413,-7.139545195539577,-0.29666385106788856,-1.6163148527172497,-9.839822024731365,21.798095399921355
-0.18543939551133706,-7.23794341578689,-0.31282699959506105,-1.3983338987180363,-6.128782285699499,15.750593274147985
-0.257818829669206,-7.299231238643885,-0.3268103385822414,-1.2408279659765564,-1.9023250865347492,8.716700922731752
-0.3308111420556449,-7.318254489509233,-0.33921861824200694,-1.1536609567492389,2.6438104895531667,1.0675088989246544
-0.40399368695073723,-7.291816384613701,-0.3507552278094993,-1.1429858677599922,7.216514939016876,-6.66832334817361
-0.47691185079687426,-7.219651235223532,-0.36218508648709924,-1.2096691012417282,11.492168676216966,-13.911135216505759
-0.5491083631491096,-7.104729548461362,-0.3742817774995165,-1.3487804534067858,15.203941280609506,-20.16913113055723
-0.6201556586337232,-6.952690135655267,-0.38776958203358436,-1.550471764712358,18.206203746775646,-25.143878742521615
-0.689682559990276,-6.770628098187511,-0.40327429968070794,-1.8019105521375742,20.48735612800173,-28.757556620864158
-0.7573888409721511,-6.565754536907494,-0.4212934052020837,-2.089486118346216,22.136500835315605,-31.107875266835777
-0.8230463863412261,-6.344389528554338,-0.44218826638554587,-2.4005648710145735,23.291800632381634,-32.391344862286516
-0.8864902816267695,-6.111471522230521,-0.4661939150956916,-2.7244783196374387,24.096187128405543,-32.83404454428625
-0.9476049968490746,-5.870509650946466,-0.493438698292066,-3.052818765080301,24.67117627953256,-32.64767185005086
-1.0063100933585394,-5.62379788815114,-0.523966885942869,-3.37929548358081,25.10722008906273,-32.01005609864114
-1.0625480722400509,-5.3727256872605125,-0.5577598407786771,-3.699396044567221,25.4643616426203,-31.061679428059268
-1.116275329112656,-5.118082070834309,-0.5947538012243494,-4.010012838847814,25.777477669632816,-29.909918680231986
-1.167456149820999,-4.860307294137981,-0.6348539296128275,-4.309112025650133,26.062531891477985,-28.63559067132833
-1.2160592227623788,-4.599681975223201,-0.6779450498693288,-4.595467932363417,26.32212530009824,-27.299069605682476
-1.2620560425146108,-4.336460722222219,-0.723899729192963,-4.868458628420242,26.549756114134826,-25.944949790338814
-1.305420649736833,-4.07096316108087,-0.7725843154771654,-5.1279081263236295,26.732738715722647,-24.605084025971227
-1.3461302813476417,-3.8036357739236437,-0.8238633967404018,-5.373958966583341,26.8539271080953,-23.30016873189592
-1.384166639086878,-3.535096502842691,-0.8776029864062351,-5.6069606539023,26.89243026669957,-22.0401342294998
-1.419517604115305,-3.266172200175695,-0.9336725929452582,-5.827361996197299,26.823503685673288,-20.823595185175897
-1.452179326117062,-2.997937163318962,-0.9919462129072312,-6.035597948049058,26.617815019854998,-19.63661746989325
-1.4821586977502514,-2.731759013120412,-1.0523021923877218,-6.231964122747991,26.240352609931808,-18.451128214266895
-1.5094762878814556,-2.469355487021094,-1.1146218336152018,-6.41647540489066,25.649407913931444,-17.223489972292366
-1.5341698427516666,-2.212861407881779,-1.1787865876641084,-6.588710304613583,24.79634077275078,-15.894119016227306
-1.5562984568304843,-1.9648980001542713,-1.2446736907102443,-6.747651494775856,23.62721456445306,-14.389540930622246
-1.575947436832027,-1.7286258545097408,-1.3121502056580028,-6.8915469040820785,22.087743000207002,-12.628787984242141
-1.5932336953771244,-1.5077484245076709,-1.3810656746988235,-7.0178347839245,20.132991759308613,-10.536115572934948
-1.6083111796222012,-1.3064185069145848,-1.4512440225380685,-7.12319593965385,17.742347880329255,-8.060866134246478
-1.621375364691347,-1.1289950281112922,-1.522475981934607,-7.203804600996315,14.937814092160078,-5.202112846696486
-1.63266531497246,-0.9796168871896913,-1.5945140279445702,-7.25582572946328,11.799858840537178,-2.030631650185172
-1.6424614838443568,-0.8616182987843195,-1.667072285239203,-7.276132045965132,8.47181755448913,1.3036335189488832
-1.6510776668322,-0.7769001232394281,-1.7398336056988544,-7.263095710775643,5.144903592899564,4.589170767276881
-1.6588466680645944,-0.7254510873104325,-1.8124645628066107,-7.217204003102874,2.0237273653619248,7.59584523026388
-1.6661011789376987,-0.7052138136568132,-1.8846366028376396,-7.141245550800235,-0.716391021978506,10.12849223837235
-1.673153317074267,-0.7123777238765983,-1.9560490583456418,-7.0399606284165115,-2.962807299856384,12.068390549715032
-1.680277094313033,-0.7420057968751621,-2.026448664629807,-6.919276722919361,-4.677142521312864,13.386643294842488
-1.6876971522817845,-0.7887772220882907,-2.0956414318590006,-6.785410289970936,-5.884940173003875,14.12977645329533
-1.6955849245026675,-0.8476266238183294,-2.16349553475871,-6.644112525437983,-6.65305579273781,14.390454633337905
-1.7040611907408507,-0.9141571817457075,-2.22993666001309,-6.500207979104603,-7.066070146235986,14.277911402190124
-1.7132027625583077,-0.9848178832080674,-2.294938739804136,-6.357428865082702,-7.208654735711912,13.896685666352772
-1.7230509413903885,-1.0569044305651865,-2.3585130284549627,-6.218462008419174,-7.155566881261664,13.335366242687133
-1.7336199856960404,-1.1284600993778031,-2.4206976485391545,-6.085108345992303,-6.9678018796066405,12.663096157283796
-1.7449045866898183,-1.1981381181738695,-2.4815487319990774,-5.958477384419465,-6.692552762682952,11.930641993788038
-1.756885967871557,-1.265063645800699,-2.541133505843272,-5.8391709644815855,-6.365001703083072,11.173461888581278
-1.769536604329564,-1.3287136628315297,-2.5995252154880877,-5.727436345595772,-6.010679768410046,10.415201979507787
-1.7828237409578793,-1.3888204605156302,-2.6567995789440455,-5.623284325800695,-5.64773821463205,9.670855979689886
-1.7967119455630356,-1.4452978426619507,-2.7130324222020525,-5.526575766003796,-5.2888654010349665,8.949320052442877
-1.811164923989655,-1.4981864966723004,-2.7682981798620907,-5.437082565479367,-4.942793307686468,8.255328712007742
-1.826146788956378,-1.5476144297491652,-2.822669005516884,-5.354529278359289,-4.615431637404105,7.590861039344601
-1.8416229332538696,-1.5937687461232062,-2.8762142983004773,-5.278620667965843,-4.310698489307344,6.9561321843845745
-1.8575606207151016,-1.6368757310162796,-2.9290005049801358,-5.209059346121997,-4.031117967067659,6.350276635631854
-1.8739293780252644,-1.6771869106869561,-2.9810910984413557,-5.145556579765678,-3.778245002873292,5.7718099102648575
-1.8907012471321338,-1.714969360715689,-3.0325466642390126,-5.08783848066303,-3.5529649109293353,5.218934565097807
-1.9078509407392907,-1.7504990098249824,-3.0834250490456427,-5.035649135012052,-3.3557034054871075,4.689738676227981
-1.9253559308375405,-1.7840560438798534,-3.133781540395763,-4.988751748249772,-3.1865732034050143,4.182321083970006
-1.943196491276339,-1.8159217759139035,-3.183669057878261,-4.946928537410072,-3.0454759601926873,3.6948674274879276
-1.961355709035478,-1.8463765355158304,-3.2331383432523615,-4.9099798631351925,-2.9321728386852457,3.2256936056269194
-1.9798194743906363,-1.875698263902683,-3.282238141883713,-4.877722927078923,-2.8463330681011567,2.7732680891437704
-1.9985764570296631,-1.9041615945836945,-3.3310153711545025,-4.8499902461874855,-2.7875670396090477,2.3362208797455177
-2.0176180729755,-1.932037264979785,-3.379515273616377,-4.82662803739003,-2.755448495821157,1.9133444042400474
-2.0369384456252977,-1.9595917499379967,-3.4277815539902776,-4.80749459334763,-2.7495289722121963,1.503589910280673
-2.0565343631246775,-1.9870870396601186,-3.475856499923754,-4.792458694244823,-2.76934666665663,1.106061752422063
-2.0764052335212786,-2.014780506326685,-3.523781086866202,-4.781398076720603,-2.8144312256370254,0.7200111539865948
-2.0965530385845454,-2.0429248185830553,-3.571595067633408,-4.774197965180736,-2.884305454634026,0.34483048370114966
-2.116982286770376,-2.0717678731293954,-3.6193370472852155,-4.770749660343725,-2.9784846242065877,-0.019951285269743723
-2.13769996550167,-2.1015527193714614,-3.667044543888653,-4.770949173196422,-3.096473809312331,-0.374671518575656
-2.158715492695385,-2.132517457464585,-3.7147540356206172,-4.774695888382179,-3.237763537639588,-0.719535022933968
-2.1800406672700308,-2.1648950928409807,-3.762500994504439,-4.781891238611519,-3.4018239125168104,-1.0546131826971072
-2.2016896181984404,-2.198913331966149,-3.810319906890554,-4.79243737043849,-3.5880973032406156,-1.3798410898965834
-2.223678751518102,-2.2347943049985552,-3.858244280594939,-4.806235781337456,-3.795989650924221,-1.6950126892048631
-2.2460266945680876,-2.2727542015077975,-3.9063066384083136,-4.8231859082295045,-4.024860414962515,-1.999774009366128
-2.2687542365831654,-2.3130028056574226,-3.9545384974906086,-4.843183648323166,-4.2740111799807625,-2.2936145974212443
-2.2918842646397395,-2.35574291745723,-4.00297033397384,-4.866119794297378,-4.542672953329606,-2.5758573165311796
-2.3154416938143116,-2.401169646990526,-4.051631531916814,-4.89187836746269,-4.82999220755614,-2.845646716128396
-2.3394533902842167,-2.4494695690660873,-4.100550315591441,-4.920334834623974,-5.135015760260849,-3.101936237225385
