th1 (rad),w1 (rad/s),th2 (rad),w2 (rad/s),a1 (rad/s^2),a2 (rad/s^2)
3.5105178318804495,2.107779872123107,2.9987350613594135,-2.3207112849528677,3.024560898047937,-1.8565280891073008
3.5315956306016805,2.138025481103586,2.975527948509885,-2.3392765658439405,3.0421551002382854,-1.790895248787796
3.5529758854127165,2.168447032105969,2.9521351828514453,-2.3571855183318187,3.0509430604640553,-1.7038962031125133
3.5746603557337764,2.1989564627106097,2.928563327668127,-2.374224480362944,3.0541463632295898,-1.5992068680878073
3.5966499203608824,2.229497926342906,2.9048210828644976,-2.390216549043822,3.054830519193828,-1.480191310081893
3.6189448996243114,2.260046231534844,2.8809189173740593,-2.405018462144641,3.055829391455295,-1.3497853170276117
3.64154536193966,2.290604525449397,2.8568687327526128,-2.418516315314917,3.0597026832406775,-1.210424710684186
3.6644514071941536,2.3212015522818037,2.8326835695994634,-2.430620562421759,3.068722223447556,-1.0640121982292357
3.687663422716972,2.3518887745162793,2.8083773639752456,-2.4412606844040514,3.084881340085526,-0.911914526800991
3.7111823104621346,2.3827375879171346,2.783964757131205,-2.450379829672061,3.109921226531258,-0.7549811611714184
3.735009686341306,2.4138368001824473,2.7594609588344845,-2.4579296412837754,3.145368600980409,-0.593576257635621
3.75914805434313,2.4452904861922513,2.7348816624216465,-2.4638654038601318,3.1925798281149502,-0.427616926049191
3.7836009592050526,2.4772162844734007,2.710243008383045,-2.4681415731206235,3.2527877437207735,-0.2566122810587328
3.8083731220497867,2.5097441619106085,2.685561592651839,-2.470707695931211,3.327148496386041,-0.07969930621834874
3.8334705636688926,2.5430156468744687,2.660854515692527,-2.4715046889933943,3.4167866678964227,0.10432707939939032
3.8589007201376373,2.577183513553433,2.636139468802593,-2.4704614181994002,3.52283769076668,0.2969912318852665
3.8846725552731716,2.6124118904611,2.611434854620599,-2.4674915058805476,3.646487127802005,0.5001218657849673
3.9107966741777824,2.64887676173912,2.586759939561794,-2.462490287222698,3.7890067218326475,0.7158449339844493
3.9372854417951735,2.6867668289574462,2.562135036689567,-2.4553318378828535,3.9517872826836404,0.9465837122611503
3.964153110084748,2.726284701784283,2.5375817183107383,-2.445866000760242,4.1363684725057555,1.195065066325424
3.991415957102591,2.7676483865093404,2.513123058303136,-2.433915350096988,4.344465392527234,1.4643304594253983
4.019092440967684,2.8110930404346126,2.488783904802166,-2.4192720455027343,4.577991565524667,1.7577497705769658
4.047203371372031,2.8568729560898594,2.4645911843471384,-2.4016945477969647,4.839077436332487,2.0790353533336563
4.075772100932929,2.9052637304531843,2.4405742388691687,-2.380904194263628,5.130082849500814,2.432252880244356
4.104824738237461,2.9565645589481924,2.4167651969265322,-2.3565816654611846,5.453601064588714,2.821824283555488
4.134390383826943,3.0111005695940793,2.3931993802719203,-2.3283634226256296,5.812450675633959,3.2525163971909454
4.164501389522884,3.0692250763504187,2.369915746045664,-2.29583825865372,6.209650239011161,3.729406591498521
4.195193640286388,3.1313215787405304,2.346957363459127,-2.258544192738735,6.648368403722906,4.257813624079025
4.226506856073794,3.1978052627777593,2.3243719215317395,-2.2159660564979444,7.1318398087382135,4.8431779696320145
4.258484908701571,3.2691236608651413,2.30221226096676,-2.167534276801624,7.663233927458625,5.490870949864395
4.291176145310223,3.3457560001397275,2.280536918198744,-2.11262556730298,8.245460448090686,6.205906092824733
4.32463370531162,3.4282106046206344,2.259410662525714,-2.0505665063747327,8.88089089317653,6.992519585665491
4.358915811357827,3.5170195135523996,2.238904997461967,-1.9806413105180778,9.570972501565565,7.85358016060947
4.3940860064933505,3.6127292385680554,2.2190985843567863,-1.9021055089119832,10.315707883248136,8.789783706666881
4.430213298879031,3.7158863174005368,2.2000775292676664,-1.8142076718453144,11.112974256510004,9.798586856251298
4.467372162053036,3.827016059965637,2.1819354525492134,-1.7162218032828014,11.95766174767346,10.872840784076418
4.505642322652692,3.9465926774423714,2.1647732345163853,-1.6074933954420372,12.840624893978374,11.999107310840028
4.545108249427115,4.074998926382155,2.148698300561965,-1.487502322333637,13.747469667479141,13.155681665793459
4.585858238690937,4.212473623056947,2.1338232773386285,-1.3559455056757024,14.657244697541882,14.310418134360136
4.6279829749215065,4.359046070032365,2.1202638222818715,-1.212841324332101,15.541172883820979,15.418562465471192
4.67157343562183,4.514457798870575,2.1081354090385505,-1.058655699677389,16.361646292751082,16.420937419919923
4.716718013610535,4.678074261798086,2.0975488520417764,-0.8944463254781898,17.07180170455269,17.242989822616742
4.763498756228516,4.848792278843613,2.0886043887869947,-0.7220164272520224,17.616071170122666,17.79535118996244
4.811986679016952,5.024952990544839,2.0813842245144745,-0.544062915352398,17.932121310523037,17.976625702067405
4.8622362089224005,5.204274203650069,2.0759435953609504,-0.364296658331724,17.954508939503125,17.679017608780164
4.914278950958901,5.3838192930451,2.0723006287776333,-0.18750648224392233,17.620152318819386,16.797073616289246
4.968117143889352,5.560020816233294,2.0704255639551943,-0.01953574608102987,16.87535031103964,15.2392282753711
5.023717352051685,5.728774319343691,2.070230206494384,0.13285653667268113,15.68364352860169,12.941086102713482
5.081005095245122,5.885610754629708,2.0715587718611106,0.262267397699816,14.033431329048247,9.878647066971189
5.139861202791419,6.0259450679201905,2.074181445838109,0.3610538683695279,11.944079798210893,6.0792288895794835
5.200120653470621,6.145385865902299,2.077791984521804,0.42184615726532276,9.46935967922371,1.6278461173261547
5.261574512129644,6.240079462694537,2.0820104460944573,0.4381246184385843,6.6974012574000605,-3.332705820617514
5.323975306756589,6.307053475268537,2.086391692278843,0.40479756023240915,3.74680865908614,-8.608989376136948
5.387045841509274,6.344521561859398,2.090439667881167,0.31870766647103965,0.7590058822051072,-13.971251873065256
5.450491057127868,6.352111620681449,2.0936267445458774,0.17899514774038708,-2.1127297046206768,-19.17390859044002
5.514012173334683,6.330984323635242,2.0954166960232814,-0.012743938164013147,-4.716654724360411,-23.98010065883211
5.577322016571035,6.283817776391638,2.0952892566416415,-0.25254494475233424,-6.916899344065505,-28.187162942128374
5.6401601943349515,6.214648782950983,2.092763807194118,-0.534416574173618,-8.606669945421332,-31.648976588222336
5.702306682164461,6.128582083496769,2.0874196414523816,-0.8509063400558414,-9.717895882915583,-34.29106081062541
5.763592502999429,6.031403124667613,2.0789105780518233,-1.1938169481620955,-10.225250602034956,-36.11535537546189
5.823906534246105,5.929150618647264,2.0669724085702024,-1.5549705019167144,-10.143629282692746,-37.19394124599909
5.883198040432577,5.827714325820336,2.0514227035510353,-1.9269099143767052,-9.519779936192064,-37.65372146207871
5.94147518369078,5.732516526458416,2.0321536044072683,-2.3034471289974925,-8.420196457825691,-37.656228216062274
5.998800348955364,5.648314561880159,2.0091191331172933,-2.680009411158115,-6.9180007669570385,-37.377396656491555
6.055283494574166,5.579134554210589,1.9823190390057122,-3.0537833777230308,-5.081205623788918,-36.99127352884539
6.111074840116272,5.5283224979727,1.9517812052284818,-3.4236961130114847,-2.963762482458406,-36.65984430561576
6.166358065095999,5.4986848731481155,1.917544244098367,-3.7902945560676424,-0.5996681871862238,-36.529337597534266
6.22134491382748,5.492688191276253,1.8796412985376905,-4.155587932042985,2.000461834508193,-36.732121092123776
6.276271795740242,5.512692809621335,1.8380854192172607,-4.522909142964222,4.85138655502001,-37.39281364993148
6.331398723836456,5.561206675171535,1.7928563277876184,-4.896837279463537,7.994885946535131,-38.63732342492467
6.387010790588171,5.641155534636886,1.743887954992983,-5.283210513712784,11.50191680401909,-40.60382914031094
6.44342234593454,5.756174702677077,1.6910558498558552,-5.689248805115893,15.475609773995473,-43.45480517447947
6.5009840929613105,5.910930800417032,1.6341633618046962,-6.123796856860688,20.054309603841652,-47.38835387094496
6.5600934009654805,6.111473896455449,1.5729253932360894,-6.597680395570137,25.411076695282535,-52.64380385756112
6.621208139930035,6.365584663408274,1.506948589280388,-7.124118434145748,31.73875202106159,-59.48677022385841
6.6848639865641175,6.68297218361889,1.4357074049389305,-7.718986136384332,39.190325210212556,-68.13222293408688
6.751693708400307,7.074875435721016,1.3585175435750871,-8.400308365725202,47.694623813836266,-78.4949841083536
6.822442462757517,7.551821673859379,1.274514459917835,-9.185258206808738,56.45158119956904,-89.49525512052412
6.897960679496111,8.11633748585507,1.1826618778497477,-10.08021075801398,62.71974351109555,-97.37720307922451
6.979124054354662,8.743534920966026,1.081859770269608,-11.053982788806225,59.65200352480372,-92.69300524520725
7.066559403564322,9.340054956214063,0.9713199423815457,-11.980912841258299,35.70310529760799,-59.464968414217665
7.159959953126463,9.697086009190143,0.8515108139689628,-12.575562525400475,-14.056749361415084,9.055345661238908
7.256930813218364,9.556518515575991,0.725755188714958,-12.485009068788086,-65.92365936607118,79.81943056374597
7.352495998374124,8.89728192191528,0.6009050980270771,-11.686814763150627,-87.8815431989642,108.61357969532413
7.441468817593277,8.018466489925638,0.4840369503955709,-10.600678966197385,-83.40025777975153,100.73036359157918
7.521653482492534,7.184463912128122,0.378030160733597,-9.593375330281594,-70.77893735323416,81.67018940714966
7.593498121613814,6.4766745385957805,0.28209640743078107,-8.776673436210098,-58.87076520099349,63.59253943393281
7.658264866999772,5.887966886585845,0.1943296730686801,-8.14074804187077,-49.58018713102491,49.02375308293776
7.717144535865631,5.392165015275596,0.1129221926499724,-7.650510511041393,-42.715662548215676,37.62706332095847
7.771066186018388,4.965008389793439,0.03641708753955847,-7.274239877831808,-37.73857828259575,28.61194695942567
7.820716269916322,4.587622606967482,-0.03632531123875961,-6.988120408237551,-34.17879277232589,21.29750728151279
7.866592495985997,4.245834679244223,-0.10620651532113512,-6.7751453354224225,-31.688845670389004,15.182547918111874
7.90905084277844,3.928946222540333,-0.17395796867535934,-6.623319856241304,-30.021184226361452,9.914020146386667
7.948340305003843,3.6287343802767187,-0.2401911672377724,-6.524179654777438,-28.997375239650076,5.247862941504816
7.98462764880661,3.3387606278802178,-0.30543296378554674,-6.47170102536239,-28.48265614893976,1.0202677622454082
8.018015255085412,3.0539340663908203,-0.37014997403917066,-6.461498347739936,-28.36626097578934,-2.869969121399977
8.048554595749321,2.7702714566329267,-0.43476495751657,-6.4901980389539355,-28.545703332946175,-6.470421886049778
8.07625731031565,2.484814423303465,-0.4996669379061094,-6.554902257814433,-28.913488590817614,-9.7778382956333
8.101105454548685,2.1956795373952884,-0.5652159604842537,-6.652680640770766,-29.345658003040636,-12.737206976817742
8.123062249922638,1.9022229573648821,-0.6317427668919614,-6.780052710538944,-29.692815172443062,-15.240029117644593
8.142084479496287,1.6052948056404515,-0.6995432939973508,-6.932453001715389,-29.775829167582398,-17.125906321257855
8.158137427552692,1.3075365139646276,-0.7688678240145047,-7.103712064927968,-29.390032283363936,-18.193036640635416
8.171212792692339,1.0136361911309881,-0.8399049446637844,-7.285642431334322,-28.32265293884966,-18.223916597222647
8.181349154603648,0.7304096617424916,-0.9127613689771277,-7.467881597306548,-26.38690438142273,-17.030487203284977
8.188653251221073,0.46654061792826423,-0.9874401849501931,-7.638186469339399,-23.470779481421587,-14.515913026959584
8.193318657400356,0.23183282311404835,-1.063822049643587,-7.783345599608994,-19.588934208673805,-10.738031397880407
8.195636985631497,0.03594348102731029,-1.141655505639677,-7.890725913587798,-14.916081593106629,-5.947552356892376
8.19599642044177,-0.11321733490375599,-1.220562764775555,-7.950201437156722,-9.778729794566901,-0.573226706489889
8.194864247092731,-0.211004632849425,-1.3000647791471223,-7.955933704221621,-4.596229792464329,4.85499423242147
8.192754200764236,-0.2569669307740683,-1.3796241161893386,-7.907383761897407,0.21214745575928295,9.821595088525951
8.190184531456495,-0.2548454562164755,-1.4586979538083127,-7.809167811012148,4.317466199627089,13.93355910707512
8.18763607689433,-0.21167079422020457,-1.5367896319184342,-7.669832219941396,7.534256842142659,16.979642682014113
8.185519368952129,-0.13632822579877799,-1.6134879541178482,-7.500035793121255,9.824315391307374,18.928647433625212
8.184156086694141,-0.038085071885704244,-1.6884883120490608,-7.310749318785003,11.263204759263402,19.88392785656276
8.183775235975284,0.07454697570692978,-1.7615958052369107,-7.111910040219375,11.992272037231464,20.02298244298734
8.184520705732353,0.19446969607924441,-1.8327149056391046,-6.911680215789502,12.175205660494273,19.544848290038676
8.186465402693146,0.3162217526841872,-1.9018317077969995,-6.716231732889115,11.968172598875313,18.63521680488089
8.189627620219989,0.4359034786729403,-1.9689940251258906,-6.529879564840306,11.504135897305618,17.449041292812453
8.193986655006718,0.5509448376459966,-2.0342928207742936,-6.355389151912182,10.887788919739819,16.10576391770957
8.199496103383177,0.6598227268433947,-2.0978467122934155,-6.194331512735086,10.196803295714723,14.691761856895923
8.206094330651611,0.761790759800542,-2.159790027420766,-6.0474138941661275,9.485993276880626,13.265922803323084
8.213712238249617,0.8566506925693482,-2.2202641663624276,-5.914754666132897,8.792258691435485,11.865865014094066
8.22227874517531,0.9445732794837031,-2.2794117130237566,-5.796096015991956,8.139196340461806,10.513566220541163
8.231724477970147,1.025965242888321,-2.337372673183676,-5.690960353786544,7.540935038828303,9.219947268564036
8.24198413039903,1.1013745932766041,-2.3942822767215417,-5.598760881100903,7.00511429162778,7.988370066443943
8.252997876331797,1.171425736192882,-2.450269885532551,-5.518877180436464,6.5350941100645255,6.8171900223071
8.264712133693726,1.2367766772935271,-2.5054586573369155,-5.450705280213393,6.1315395771571,5.701556489364677
8.277079900466662,1.2980920730650982,-2.5599657101390494,-5.393689715319747,5.793524980531074,4.634648168374131
8.290060821197313,1.356027322870409,-2.6139026072922467,-5.347343233636005,5.519280937968799,3.608501481901921
8.303621094426017,1.411220132250097,-2.6673760396286066,-5.311258218816986,5.306680327468976,2.614557302184985
8.317733295748518,1.4642869355247867,-2.7204886218167763,-5.285112645795136,5.153532138503889,1.644023240298995
8.332376165103765,1.5158222569098256,-2.7733397482747275,-5.268672413392147,5.057728833413709,0.6881279258215315
8.347534387672864,1.5663995452439627,-2.826026472408649,-5.261791134133931,5.017272286861641,-0.26166894189189915
8.363198383125305,1.6165722681125791,-2.878644383749988,-5.26440782355285,5.030184569050807,-1.2134513704149186
8.379364105806431,1.6668741138030871,-2.931288461985517,-5.276542337256999,5.0942909364563596,-2.1745430542710826
8.396032846944461,1.7178170231676508,-2.9840538853580867,-5.29828776779971,5.206841318720125,-3.1510472427482967
8.413211017176138,1.7698854363548522,-3.0370367630360837,-5.329798240227193,5.3639112631859325,-4.147128720024621
8.430909871539686,1.8235245489867116,-3.090334745438356,-5.371269527427439,5.559492213632997,-5.16389987454153
8.449145117029554,1.8791194711230415,-3.1440474407126304,-5.422908526172854,5.784144735768755,-6.197726136884088
8.467936311740784,1.936960918480729,-3.198276525974359,-5.484885787541695,6.023053089955313,-7.237717531239244
8.487305920925591,1.9971914493802823,-3.2531253838497762,-5.557262962854088,6.253304859594911,-8.262149088284314
8.507277835419394,2.0597244979762315,-3.3086980134783173,-5.639884453736931,6.440272242015273,-9.233617491693877
8.527875080399157,2.1241272203963844,-3.3650968580156864,-5.73222062865387,6.533189628719258,-10.093028365652469
8.549116352603122,2.189459116683577,-3.422419064302225,-5.833150912310395,6.460577488662654,-10.753256138829709
8.571010943769958,2.2540648915702035,-3.480750573425329,-5.940683473698692,6.1272903674111925,-11.094854467391386
8.59355159268566,2.3153377952443153,-3.5401574081623157,-6.051632018372605,5.416808266171226,-10.968724237357756
8.616704970638104,2.3695058779060276,-3.6006737283460417,-6.161319260746183,4.204493002588143,-10.213559483498408
8.640400029417163,2.411550807931909,-3.6622869209535036,-6.263454855581167,2.3879114348048383,-8.696469590693244
8.664515537496483,2.4354299222799574,-3.724921469509315,-6.350419551488099,-0.06508989729843105,-6.377801097073053
8.688869836719283,2.434779023306973,-3.7884256650241963,-6.414197562458829,-3.064641141893424,-3.380950773518174
8.713217626952352,2.4041326118880386,-3.8525676406487848,-6.448007070194011,-6.37618386676748,-0.022414414163301276
8.737258953071231,2.340370773220364,-3.9170477113507247,-6.448231214335644,-9.660996884843,3.244299804045594
8.760662660803435,2.243760804371934,-3.981530023494081,-6.415788216295188,-12.578323253782509,5.967927394313087
8.783100268847154,2.1179775718341087,-4.045687905657033,-6.356108942352058,-14.895443509851024,7.847717282888342
8.804280044565495,1.9690231367355984,-4.109248995080554,-6.2776317695231745,-16.54048460718197,8.801937917979288
8.82397027593285,1.8036182906637785,-4.172025312775785,-6.189612390343382,-17.57968154427851,8.933351422252239
8.842006458839489,1.6278214752209934,-4.2339214366792195,-6.10027887612086,-18.153601952103543,8.440452685658906
8.8582846735917,1.446285455699958,-4.294924225440428,-6.015874349264271,-18.416765297656358,7.535447487874043
8.872747528148698,1.2621178027233944,-4.355082968933071,-5.94051987438553,-18.502068486926635,6.397353268872545
8.885368706175932,1.077097117854128,-4.414488167676926,-5.8765463416968045,-18.508701928273716,5.157410355288266
8.896139677354473,0.8920100985713908,-4.473253631093894,-5.824972238143922,-18.503769849614603,3.9028567529132707
8.905059778340187,0.7069724000752448,-4.531503353475333,-5.785943670614789,-18.529105575526874,2.687303135296659
8.912129502340939,0.521681344319976,-4.5893627901814815,-5.7590706392618225,-18.608561571228172,1.541347476370237
8.917346315784139,0.3355957286076943,-4.6469534965741,-5.74365716449812,-18.75394567338305,0.4810748401593495
8.920702273070216,0.1480562718738638,-4.704390068219081,-5.738846416096527,-18.969277039452898,-0.4858824154871384
8.922182835788954,-0.04163649852066517,-4.761778532380046,-5.743705240251398,-19.253611897452405,-1.3563021082897297
8.921766470803748,-0.23417261749518922,-4.81921558478256,-5.757268261334295,-19.602815684530807,-2.1287883538172707
8.919424744628795,-0.4302007743404973,-4.876788267395903,-5.778556144872468,-20.01061554136941,-2.8021709681819473
8.91512273688539,-0.6303069297541914,-4.934573828844628,-5.806577854554288,-20.469184264804138,-3.3745428606531456
8.908819667587847,-0.8349987724022329,-4.992639607390171,-5.840323283160819,-20.969431196755252,-3.842704738814732
8.900469679863825,-1.0446930843697855,-5.051042840221779,-5.878750330548966,-21.501119043330345,-4.201871682653884
8.890022749020128,-1.2597042748030889,-5.1098303435272685,-5.920769047375505,-22.05288727440417,-4.445554775521487
8.877425706272097,-1.4802331475471306,-5.169038034001024,-5.96522459513072,-22.612238167268526,-4.565569611181771
8.862623374796627,-1.7063555292198158,-5.228690279952331,-6.010880291242538,-23.16552633744297,-4.55214813904876
8.845559819504428,-1.9380107925942456,-5.288799082864756,-6.056401772633025,-23.69798323495661,-4.394145341477801
8.826179711578487,-2.1749906249438116,-5.349363100591086,-6.100343226047803,-24.19380196863739,-4.079340509367161
