th1 (rad),w1 (rad/s),th2 (rad),w2 (rad/s),a1 (rad/s^2),a2 (rad/s^2)
3.215680680828869,-2.797100535874574,4.451244735055016,-2.8926437312647577,4.582108840987223,0.5720188499237155
3.1877096754701233,-2.7512794474647015,4.422318297742368,-2.8869235427655204,4.246466298947808,0.8439329966865362
3.160196880995476,-2.7088147844752233,4.393449062314713,-2.878484212798655,3.911410473368742,1.086806432077462
3.1331087331507237,-2.6697006797415357,4.364664220186726,-2.86761614847788,3.5775253304829526,1.30187729711119
3.106411726353308,-2.633925426436706,4.335988058701948,-2.8545973755067684,3.245405583585355,1.4903117969914985
3.080072472088941,-2.6014713706008523,4.30744208494688,-2.8396942575368533,2.915645972665808,1.6531993899591562
3.0540577583829327,-2.5723149108741943,4.279045142371511,-2.8231622636372617,2.5888328638209326,1.7915491287906318
3.0283346092741907,-2.546426582235985,4.250813519735138,-2.8052467723493555,2.2655378511014,1.9062871806931647
3.0028703434518307,-2.523771203724971,4.222761052011645,-2.786183900542424,1.9463130709235008,1.9982555061523786
2.977632631414581,-2.504308073015736,4.194899213006221,-2.7662013454809005,1.6316879678065845,2.068211644369811
2.9525895506844235,-2.4879911933376704,4.167237199551412,-2.7455192290372024,1.3221672793202845,2.116829530288061
2.927709638751047,-2.4747695205444677,4.13978200726104,-2.7243509337343217,1.0182300371066553,2.144701253997765
2.902961943545602,-2.464587220173401,4.112538497923697,-2.702903921194344,0.7203294091256932,2.1523396658949263
2.878316071343868,-2.4573839260821444,4.085509458711753,-2.6813805245353945,0.4288932353952094,2.1401817288528004
2.8537422320830466,-2.4530949937281923,4.058695653466399,-2.6599787072468666,0.14432513509345796,2.1085925206360088
2.8292112821457645,-2.451651742377258,4.032095866393931,-2.6388927820405064,-0.13299391330163587,2.0578697947592044
2.804694764721992,-2.4529816815102743,4.0057069385735256,-2.618314084092914,-0.40270359532943223,1.9882490151024819
2.780164947906889,-2.4570087174635686,3.9795237977325963,-2.5984315939418896,-0.6644619440572039,1.8999087881285597
2.7555948607322533,-2.4636533369041405,3.9535394817931775,-2.579432506060604,-0.9179427228928713,1.7929766259340347
2.730958327363212,-2.472832764133069,3.9277451567325716,-2.5615027398012633,-1.162832531313022,1.6675349831617698
2.7062299997218813,-2.4844610894461994,3.902130129334559,-2.5448273899696456,-1.3988276437405172,1.523627520660081
2.6813853888274193,-2.4984493658836047,3.8766818554348625,-2.5295911147630448,-1.6256305805179045,1.3612655584347304
2.6564008951685834,-2.514705671688784,3.851385944287232,-2.5159784591786973,-1.8429464007040781,1.1804346897031122
2.6312538384516957,-2.5331351356958245,3.826226159695445,-2.504174112281666,-2.0504786992674364,0.9811015365714114
2.6059224870947375,-2.553639922688499,3.8011844185726282,-2.494363096915952,-2.2479252861784422,0.7632206358842211
2.5803860878678524,-2.5761191755502835,3.7762407876034687,-2.48673089055711,-2.4349735219687534,0.5267414510171481
2.5546248961123497,-2.600468910769971,3.7513734786978974,-2.4814634760469385,-2.611295283606501,0.27161551165516357
2.52862020700465,-2.6265818636060363,3.726558843937428,-2.478747320930387,-2.7765415361556998,-0.0021963112524956215
2.5023543883685897,-2.6543472789675935,3.701771370728124,-2.478769284042912,-2.9303364897912916,-0.294716384378628
2.4758109155789136,-2.6836506438655063,3.676983677887695,-2.4817164478866984,-3.0722713285053946,-0.6059427316354378
2.4489744091402588,-2.7143733571505604,3.652166513408828,-2.4877758752030528,-3.201897506460556,-0.9358412813494157
2.4218306755687533,-2.7463923322151658,3.6272887546567976,-2.497134288016547,-3.318719620627538,-1.2843379303289946
2.3943667522466017,-2.7795795284214413,3.602317411776632,-2.509977667319837,-3.422187884293579,-1.6513104198672568
2.3665709569623874,-2.813801407264377,3.577217635103434,-2.5264907715185094,-3.5116902454320913,-2.0365800283727618
2.3384329428897437,-2.848918309718698,3.5519527273882487,-2.546856571802237,-3.586544216944637,-2.439903099777007
2.3099437597925565,-2.8847837518881443,3.5264841616702265,-2.571255602800007,-3.645988512524734,-2.8609624470870836
2.281095922273675,-2.921243637013392,3.5007716056422264,-2.599865227270878,-3.6891746123742006,-3.2993586974668476
2.251883485903541,-2.958135383137134,3.4747729533695177,-2.6328588142455462,-3.71515841713234,-3.7546016800980206
2.2223021320721696,-2.9952869673084574,3.448444365227062,-2.6704048310465263,-3.7228921859022743,-4.226102001821712
2.1923492623990852,-3.03251588916748,3.4217403169165967,-2.7126658510647434,-3.7112169947055214,-4.713163009110854
2.1620241035074104,-3.0696280591145353,3.3946136584059494,-2.759797481155852,-3.678855994309543,-5.214973398992795
2.131327822916265,-3.106416619057631,3.3670156835943907,-2.81194721514578,-3.6244087900323865,-5.730600816527965
2.100263656725689,-3.1426607069579546,3.338896211442933,-2.8692532233110595,-3.5463473092570403,-6.258986862301646
2.0688370496561093,-3.178124180050525,3.3102036792098226,-2.931843091934076,-3.4430135628559912,-6.798944029442707
2.037055807855604,-3.212554315679085,3.280885248290482,-2.999832532228503,-3.3126197417557894,-7.349155194514195
2.004930264698813,-3.245680513096643,3.250886922968197,-3.073324084173645,-3.15325111595181,-7.908176397847623
1.9724734595678466,-3.2772130242561612,3.2201536821264605,-3.1524058481521213,-2.962872216121228,-8.47444376301622
1.939701329325285,-3.3068417464173736,3.1886296236449394,-3.2371502857822834,-2.739336772502413,-9.046285517384353
1.9066329118611112,-3.334235114142398,3.1562581207871165,-3.3276131409561267,-2.4804018561435033,-9.621940179847618
1.8732905607196872,-3.359039132703833,3.1229819893775552,-3.423832542754603,-2.183746607728748,-10.199582070327624
1.839700169392649,-3.3808765987811205,3.088743663950009,-3.525828363457879,-1.8469958426421598,-10.777355359159355
1.8058914034048377,-3.399346557207542,3.0534853803154305,-3.6336019170494724,-1.467748681949692,-11.353417902652877
1.7718979378327622,-3.414024044027039,3.0171493611449356,-3.747136096076001,-1.0436121732942438,-11.925996092018675
1.7377576973924918,-3.424460165759981,2.9796780001841756,-3.866396056996188,-0.5722396318646447,-12.493451863652954
1.7035130957348918,-3.4301825620786275,2.9410140396142137,-3.9913305756327175,-0.051373152879630395,-13.054362865695198
1.6692112701141055,-3.430696293607424,2.9011007338578865,-4.12187420428967,0.5211105661141252,-13.607616533941053
1.6349043071780314,-3.4254851879462827,2.85988199181499,-4.25795036962908,1.1471522813553077,-14.152518482925908
1.6006494552985686,-3.4140136651327295,2.817302488118699,-4.3994755544583395,1.8284616293672125,-14.688915144689922
1.5665093186472414,-3.3957290488390575,2.7733077325741156,-4.546364705905239,2.5664696392710957,-15.217329959472664
1.532552028158851,-3.3700643524463465,2.727844085515063,-4.698538005499965,3.362284101772919,-15.73911159360662
1.4988513846343874,-3.3364415114286174,2.6808587054600634,-4.855929121436032,4.2166493221566075,-16.256591552179856
1.4654869695201012,-3.2942750182070513,2.6322994142457032,-5.01849503695783,5.129911048135676,-16.77324703058903
1.4325442193380307,-3.2429759077256946,2.582114463876125,-5.1862275072637205,6.101985845601924,-17.293862668502825
1.4001144602607738,-3.1819560492696755,2.5302521888034875,-5.359166133948749,7.1323314628861,-17.824681610794045
1.368294899768077,-3.1106327346408142,2.476660527464,-5.537412950056689,8.219910116476749,-18.37353121766115
1.337188572421669,-3.028433633476047,2.421286397963433,-5.7211482622333,9.363129125469317,-18.949900669728372
1.3069042360869085,-2.934802342221354,2.3640749153411003,-5.9106472689305845,10.559731315098679,-19.564934521676925
1.277556212664695,-2.829205029070367,2.3049684426517945,-6.106296614147354,11.806588571050174,-20.2312845613789
1.2492641623739915,-2.711139143359865,2.243905476510321,-6.308609459761143,13.099321867381692,-20.962726580114857
1.2221527709403928,-2.580145924686048,2.1808193819127095,-6.518236725562291,14.431623807498319,-21.773390000446792
1.1963513116935323,-2.435829686611065,2.1156370146570866,-6.735970625566759,15.7940858575607,-22.6763530796756
1.1719930148274216,-2.277888828035458,2.048277308401419,-6.962734156363515,17.172218810273243,-23.681204731871976
1.149214126547067,-2.1061666399327255,1.978649966837784,-7.199546203682235,18.5431854905823,-24.78994027683973
1.1281524601477397,-1.9207347850269025,1.9066545048009615,-7.447445606450633,19.870527078869063,-25.99021906985048
1.1089451122974707,-1.7220295142382118,1.8321800487364552,-7.707347797149137,21.095873725915897,-27.24457503076364
1.0917248171550886,-1.5110707769790528,1.7551065707649638,-7.979793547456774,22.126393690794647,-28.47376169474841
1.0766141093852981,-1.2898068400711062,1.675308635290396,-8.264531164404259,22.816908589117183,-29.53248395247816
1.063716040984587,-1.0616377541799344,1.5926633236463534,-8.55985600392904,22.94710292845544,-30.177530659241743
1.0530996634427876,-0.83216672489538,1.507064763607063,-8.861631310521458,22.199006997949414,-30.034376987004066
1.0447779961938337,-0.6101766549158859,1.4184484505018484,-9.1619750803915,20.150839836808778,-28.582706092863965
1.0386762296446748,-0.40866825654779815,1.3268286996979335,-9.447802141320139,16.32143975019242,-25.205771463036267
1.0345895470791968,-0.24545385904587394,1.2323506782847322,-9.699859855950502,10.313920078386051,-19.36879216485887
1.0321350084887382,-0.14231465826201342,1.1353520797252272,-9.89354777759909,2.078835879761756,-10.95534966381798
1.030711861906118,-0.12152629946439586,1.0364166019492362,-10.00310127423727,-7.805482985199418,-0.6284583901448376
1.029496598911474,-0.19958112931639005,0.9363855892068635,-10.00938585813872,-18.101364487721376,10.133531601281424
1.02750078761831,-0.3805947741936038,0.8362917306254763,-9.908050542125904,-27.33366888096581,19.589850043774142
1.0236948398763739,-0.653931463003262,0.7372112252042173,-9.712152041688164,-34.44027565387223,26.569634955798257
1.0171555252463413,-0.9983342195419842,0.6400897047873357,-9.446455692130181,-39.12338618433872,30.888676480596363
1.0071721830509215,-1.3895680813853715,0.5456251478660339,-9.137568927324217,-41.69822701200953,33.10927687743034
0.9932765022370678,-1.8065503515054668,0.4542494585927917,-8.806476158549915,-42.72105630726275,34.03867380019569
0.9752109987220131,-2.2337609145780943,0.36618469700729256,-8.466089420547958,-42.71294753114791,34.378891847635394
0.9528733895762321,-2.6608903898895733,0.281523802801813,-8.122300502071603,-42.05641088473723,34.611092021958875
0.9262644856773364,-3.0814544987369454,0.20030079778109697,-7.776189581852014,-40.99842610755743,35.01479254873504
0.895449940689967,-3.4914387598125196,0.12253890196257683,-7.426041656364664,-39.68867791791336,35.725927419129796
0.8605355530918418,-3.888325538991653,0.04827848539893019,-7.0687823821733655,-38.217669637522384,36.789587498512596
0.8216522977019253,-4.270502235366877,-0.02240933842280346,-6.7008865071882395,-36.644600021633984,38.196995782850486
0.7789472753482565,-4.636948235583216,-0.08941820349468586,-6.318916549359734,-35.01514678042619,39.908915350647796
0.7325777929924243,-4.987099703387479,-0.1526073689882832,-5.919827395853257,-33.37179020715035,41.87005807378131
0.6827067959585496,-5.320817605458982,-0.21180564294681575,-5.501126815115444,-31.759120860795065,44.01815712029586
0.6294986199039597,-5.638408814066933,-0.2668169110979702,-5.060945243912485,-30.225842518580418,46.28996082791879
0.5731145317632904,-5.940667239252737,-0.317426363537095,-4.598045635633297,-28.82453544723171,48.625251686508896
0.513707859370763,-6.228912593725054,-0.363406819893428,-4.111793118768208,-27.60976064326792,50.969147279835525
0.45141873343351246,-6.5050102001577335,-0.4045247510811101,-3.602101645969853,-26.63467715399773,53.2722729747599
0.3863686314319351,-6.771356971697711,-0.4405457675408086,-3.069378916222254,-25.94588785429434,55.487743261894785
0.318655061714958,-7.030815850240654,-0.47123955670303114,-2.514501483603306,-25.575586127451853,57.563063744136
0.24834690321255146,-7.2865717115151725,-0.4963845715390642,-1.938870846161946,-25.529101386439184,59.42386647146706
0.1754811860973997,-7.5418627253795645,-0.5157732800006837,-1.3446321814472753,-25.76454132286063,60.944688574394114
0.10006255884360406,-7.799508138608171,-0.5292196018151565,-0.7351852957033341,-26.159624029980677,61.90013278922637
0.022067477457522355,-8.061104378907977,-0.5365714547721898,-0.11618396781107043,-26.460365068847963,61.8897316323379
-0.058543566331557426,-8.325708029596457,-0.5377332944503005,0.5027133485123085,-26.21171304289967,60.238432158854046
-0.141800646627522,-8.587825160025455,-0.5327061609651774,1.105097670100849,-24.693134942201606,55.90841782495584
-0.22767889822777654,-8.834756509447471,-0.5216551842641689,1.6641818483504074,-20.940597348072625,47.54235689228453
-0.31602646332225126,-9.044162482928197,-0.5050133657806648,2.139605417273253,-14.02364792793485,33.88206789639091
-0.40646808815153324,-9.184398962207545,-0.48361731160793225,2.478426096237162,-3.7273650584326017,14.774456685243203
-0.4983120777736087,-9.221672612791872,-0.4588330506455606,2.626170663089594,8.643157128695927,-7.652375936433636
-0.5905288039015274,-9.135241041504912,-0.4325713440146647,2.549646903725258,20.339297055950503,-29.105077650076968
-0.6818812143165766,-8.931848070945406,-0.4070748749774121,2.258596127224488,28.723938774480974,-45.41466548201382
-0.7711996950260306,-8.644608683200596,-0.38448891370516725,1.8044494724043498,32.906625884051415,-54.98448704168812
-0.8576457818580365,-8.315542424360082,-0.36644441898112373,1.2546046019874686,33.726124258075515,-58.84348379369966
-0.9408012061016373,-7.978281181779327,-0.35389837296124904,0.666169764050472,32.60676083169939,-59.00412671295387
-1.0205840179194305,-7.652213573462332,-0.3472366753207443,0.07612849692093326,30.708036466082643,-57.18682959058923
-1.0971061536540538,-7.345133208801506,-0.34647539035153496,-0.495739798984959,28.72268520686761,-54.47575745077423
-1.1705574857420689,-7.05790635673283,-0.3514327883413845,-1.0404973734927014,26.98608187516154,-51.44572436036963
-1.241136549309397,-6.788045537981215,-0.3618377620763115,-1.5549546170963977,25.624331990623258,-48.36445339754023
-1.3090170046892093,-6.531802218074982,-0.3773873082472755,-2.0385991510718,24.656982836743047,-45.33950858485782
-1.3743350268699592,-6.285232389707551,-0.3977732997579935,-2.491994236920378,24.054580440732366,-42.40359798502139
-1.4371873507670347,-6.044686585300227,-0.4226932421271973,-2.916030216770592,23.767799241991867,-39.55920342141927
-1.497634216620037,-5.807008592880309,-0.4518535442949032,-3.3116222509847844,23.741346671501518,-36.800407888571414
-1.55570430254884,-5.569595126165294,-0.48496976680475107,-3.6796263298704983,23.920355139080964,-34.122780649019546
-1.6114002538104928,-5.3303915747744846,-0.521766030103456,-4.020854136360693,24.253267513023747,-31.527197117636735
-1.6647041695582376,-5.087858899644247,-0.561974571467063,-4.33612610753706,24.693165694300237,-29.02063649665494
-1.7155827585546801,-4.840927242701245,-0.6053358325424336,-4.626332472503609,25.19843787938797,-26.615518949712158
-1.7639920309816925,-4.588942863907365,-0.6515991572674698,-4.892487662000731,25.73316214363469,-24.32839594204741
-1.8098814596207662,-4.331611242471018,-0.7005240338874771,-5.135771621421205,26.267339046128605,-22.178431188854468
-1.8531975720454763,-4.068937852009732,-0.7518817501016891,-5.35755593330975,26.77699759300933,-20.185915342128325
-1.8938869505655735,-3.8011678760796386,-0.8054573094347867,-5.5594150867310335,27.24415794311459,-18.370949530016063
-1.93189862932637,-3.5287262966484927,-0.861051460302097,-5.743124582031194,27.656625160028767,-16.752364423010587
-1.967185892292855,-3.252160045048205,-0.9184827061224089,-5.9106482262613,28.007591925640615,-15.346890263864575
-1.999707492743337,-2.972084125791799,-0.9775891883850218,-6.064117128899945,28.295033145525135,-14.168548441641857
-2.029428334001255,-2.6891337943365476,-1.0382303596740212,-6.205802613316364,28.520874303083975,-13.22819068604378
-2.05631967194462,-2.4039250513057078,-1.1002883858071848,-6.338084520176802,28.689902508360426,-12.533062863144526
-2.0803589224576773,-2.1170260262221037,-1.163669231008953,-6.463415148808248,28.808359360489927,-12.086210774907782
-2.1015291827198985,-1.8289424326172044,-1.2283033824970353,-6.584277256557326,28.882103222912082,-11.88546772688058
-2.1198186070460707,-1.5401214003880837,-1.2941461550626085,-6.703131933826132,28.91415168204316,-11.921659896107716
-2.135219821049952,-1.250979883567652,-1.3611774744008698,-6.822348532787209,28.901314248420494,-12.175532722402806
-2.147729619885628,-0.961966741083447,-1.4294009597287418,-6.944103860011237,28.829518266477827,-12.612757115896025
-2.1573492872964626,-0.6736715584186688,-1.4988419983288541,-7.070231431170197,28.667377417595898,-13.176292623909106
-2.1640860028806492,-0.3869977842427098,-1.5695443126405562,-7.201994357409288,28.357708662647664,-13.775572811672037
-2.167955980723076,-0.10342069761623318,-1.641564256214649,-7.339750085526008,27.807414215581247,-14.272904124522052
-2.1689901876992383,0.17465344453957932,-1.7149617570699092,-7.482479126771229,26.87803361848915,-14.469997161741604
-2.1672436532538426,0.4434337807244708,-1.7897865483376214,-7.627179098388645,25.38312552595966,-14.10279756358882
-2.162809315446598,0.6972650359840674,-1.8660583393215078,-7.768207074024533,23.104495193380288,-12.860886249072385
-2.155836665086757,0.9283099879178703,-1.943740410061753,-7.896815936515257,19.84378852853826,-10.454198170330182
-2.1465535652075785,1.126747873203253,-2.022708569426906,-8.001357918218558,15.518740628338772,-6.740495583467894
-2.135286086475546,1.2819352794866408,-2.1027221486090912,-8.068762874053236,10.280091474811005,-1.8821934935843154
-2.1224667336806795,1.384736194234751,-2.1834097773496235,-8.08758480898908,4.5720913415617455,3.5710331314257715
-2.108619371738332,1.4304571076503683,-2.2642856254395145,-8.051874477674822,-0.9543013565708584,8.796401491184502
-2.0943148006618286,1.4209140940846596,-2.344804370216263,-7.963910462762977,-5.6722474039769155,13.003813498309281
-2.080105659720982,1.3641916200448905,-2.4244434748438928,-7.833872327779884,-9.209107708900923,15.737695748183535
-2.066463743520533,1.2721005429558812,-2.502782198121692,-7.676495370298048,-11.520431183398703,16.968162052482025
-2.053742738090974,1.1568962311218942,-2.579547151824672,-7.506813749773228,-12.799209438062372,16.96465556373717
-2.042173775779755,1.0289041367412706,-2.6546152893224044,-7.337167194135856,-13.330106703931941,16.101874285513784
-2.0318847344123423,0.8956030697019511,-2.727986961263763,-7.176148451280718,-13.382784342045081,14.722332705899829
-2.0229287037153227,0.7617752262815003,-2.79974844577657,-7.02892512422172,-13.166357717261457,13.08154917403435
-2.015310951452508,0.6301116491088857,-2.870037697018787,-6.898109632481376,-12.824985682656328,11.34681261877722
-2.009009834961419,0.5018617922823224,-2.939018793343601,-6.784641506293604,-12.450546186890595,9.616845759324336
-2.0039912170385956,0.3773563304134165,-3.006865208406537,-6.68847304870036,-12.098178250432778,7.9437711586616375
-2.0002176537344614,0.2563745479090887,-3.0737499388935405,-6.609035337113744,-11.79915052644796,6.350579222623121
-1.9976539082553704,0.1383830426446091,-3.1398402922646778,-6.545529544887512,-11.570007754854856,4.843165675352644
-1.9962700778289242,0.022682965096060534,-3.205295587713553,-6.497097888133986,-11.418576841908667,3.4180027215909
-1.9960432481779635,-0.09150280332302614,-3.2702665665948927,-6.462917860918077,-11.347728008457645,2.0667913859626093
-1.9969582762111937,-0.2049800834076026,-3.3348957452040735,-6.4422499470584516,-11.357652174139501,0.7791816963297233
-1.9990080770452698,-0.31855660514899764,-3.399318244674658,-6.434458130095154,-11.447197102302532,-0.45568732172445153
