th1 (rad),w1 (rad/s),th2 (rad),w2 (rad/s),a1 (rad/s^2),a2 (rad/s^2)
6.196565091021192,-1.686887072962301,0.010505297234367257,-1.8138377258506975,2.3695024418587254,-2.7372299220200835
6.179696220291569,-1.6631920485437137,-0.007633080024139717,-1.8412100250708983,2.5152628718325127,-2.6936644295144663
6.163064299806131,-1.6380394198253887,-0.0260451802748487,-1.868146669366043,2.6500172684188317,-2.635134895850767
6.146683905607877,-1.6115392471412004,-0.04472664696850913,-1.8944980183245506,2.773438765664142,-2.561602147199129
6.130568513136465,-1.583804859484559,-0.06367162715175463,-1.920114039796542,2.885261945226759,-2.473115397861759
6.114730464541619,-1.5549522400322915,-0.08287276754972005,-1.9448451937751596,2.98528555558349,-2.3698102442940727
6.099180942141296,-1.5250993844764567,-0.10232121948747164,-1.9685432962181004,3.0733755812980332,-2.2519070818710447
6.083929948296531,-1.4943656286634763,-0.12200665244965264,-1.9910623670368108,3.1494686156935847,-2.1197100276301213
6.068986292009897,-1.4628709425065405,-0.14191727612002075,-2.012259467313112,3.2135754409349886,-1.9736063634600167
6.0543575825848315,-1.4307351880971906,-0.16203987079315188,-2.0319955309477122,3.265784670223936,-1.814066441604147
6.0400502307038595,-1.3980773413949512,-0.182359826102629,-2.050136195363754,3.306266259854922,-1.6416439211096905
6.02606945728991,-1.365014678796402,-0.20286118805626652,-2.0665526345748506,3.3352746569380143,-1.4569761337247178
6.0124193105019454,-1.3316619322270218,-0.22352671440201502,-2.081122395912098,3.3531513146673984,-1.2607843149986422
5.999102691179675,-1.2981304190803478,-0.244337938361136,-2.093730239062084,3.3603262843433748,-1.0538733856651092
5.986121386988872,-1.264527156236914,-0.26527524075175685,-2.104268972918735,3.3573185852258747,-0.8371309346422008
5.973476115426503,-1.2309539703846553,-0.2863179304809442,-2.1126402822651573,3.34473506274545,-0.6115250428224916
5.961166575722657,-1.1975066197572009,-0.3074443333035958,-2.118755532693382,3.3232674750241276,-0.37810060017412755
5.949191509525084,-1.1642739450069595,-0.3286318886305296,-2.1225365386951234,3.2936875983946443,-0.13797381015439755
5.937548770075015,-1.1313370690230131,-0.34985725401748086,-2.1239162767966673,3.256840214473008,0.10767535424692443
5.926235399384785,-1.098768666878283,-0.3710964167854475,-2.122839523254198,3.21363393229607,0.35761288108254236
5.915247712716002,-1.0666323275553222,-0.3923248120179895,-2.1192633944433727,3.1650299049742054,0.6105626548003623
5.904581389440448,-1.0349820285055802,-0.41351744596242324,-2.1131577678953692,3.112028615096905,0.8652204790069902
5.894231569155393,-1.0038617423546112,-0.4346490236413769,-2.1045055631052993,3.0556550189216907,1.1202699279308623
5.884192951731847,-0.9733051921653944,-0.4556940792724299,-2.0933028638259907,2.9969424472382875,1.3743996319786724
5.8744598998101925,-0.9433357676930114,-0.4766271079106898,-2.0795588675062042,2.936915751564678,1.6263214841563818
5.865026542133262,-0.9139666101773647,-0.49742269658575183,-2.06329565266464,2.8765742496193676,1.8747891638479266
5.855886876031488,-0.885200867681171,-0.5180556531123982,-2.044547761026161,2.8168750572571786,2.118616321483103
5.847034867354677,-0.8570321171085993,-0.5385011307226598,-2.0233615978113297,2.7587173913726852,2.356693757682801
5.838464546183591,-0.8294449431948724,-0.5587347467007732,-1.9997946602345018,2.702928389043836,2.5880049651812036
5.830170096751642,-0.802415659304434,-0.5787326933031182,-1.9739146105826897,2.650250915204626,2.811639478489442
5.822145940158598,-0.7759131501523878,-0.5984718394089451,-1.9457982157977953,2.6013337303347988,3.0268035881445368
5.8143868086570745,-0.7498998128490398,-0.6179298215669231,-1.91553017991635,2.5567242694068275,3.2328281135503447
5.806887810528584,-0.7243325701549715,-0.6370851233660866,-1.8832018987808465,2.5168641534536684,3.429173078972012
5.799644484827034,-0.6991639286204349,-0.6559171423538951,-1.8489101679911264,2.482087425742383,3.615429288772357
5.79265284554083,-0.674343054363011,-0.6744062440338063,-1.8127558751034027,2.4526213849976304,3.7913169389263395
5.7859094149971995,-0.6498168405130347,-0.6925338027848403,-1.7748427057141394,2.428589786057632,3.956681522700118
5.779411246592069,-0.6255309426524583,-0.7102822298419817,-1.7352758904871382,2.4100180991031515,4.111487382431079
5.773155937165544,-0.6014307616614268,-0.7276349887468532,-1.6941610166628274,2.396840464955483,4.255809323052876
5.76714162954893,-0.577462357011872,-0.7445765989134815,-1.6516029234322986,2.3889079561884565,4.389822735906493
5.761367005978811,-0.5535732774499874,-0.7610926281478044,-1.6077046960732337,2.385997750105866,4.513792685638835
5.755831273204311,-0.5297132999489288,-0.7771696751085367,-1.5625667692168455,2.3878228365624325,4.628062392770383
5.750534140204822,-0.5058350715833044,-0.7927953428007052,-1.5162861452891416,2.3940419167212443,4.733041505192115
5.745475789488989,-0.481894652416092,-0.8079582042535965,-1.4689557302372205,2.4042691933105873,4.829194499291743
5.740656842964828,-0.4578519604829861,-0.8226477615559687,-1.4206637852443031,2.4180838040416583,4.917029491324189
5.736078323359998,-0.4336711224425695,-0.8368543994084118,-1.3714934903310612,2.4350387033414203,4.997087677120688
5.731741612135573,-0.4093207354091553,-0.8505693343117224,-1.3215226135598543,2.4546688499420624,5.069933557444928
5.7276484047814815,-0.3847740469097347,-0.863784560447321,-1.270823277985405,2.476498606502425,5.1361460503658085
5.723800664312384,-0.36000906084471046,-0.876492793227175,-1.2194618174817469,2.5000483005208283,5.196310542988757
5.720200573703937,-0.33500857783950216,-0.8886874114019925,-1.1674987120518594,2.5248399323194315,5.251011893880705
5.716850487925542,-0.3097601785163078,-0.9003623985225111,-1.1149885931130523,2.5504020454769205,5.300828364859428
5.713752886140378,-0.28425615806153864,-0.9115122844536416,-1.061980309464458,2.576273797909824,5.346326436209789
5.710910324559763,-0.2584934200824404,-0.9221320875482862,-1.0085170451023602,2.6020082883641638,5.388056442133364
5.708325390358938,-0.23247333719879879,-0.9322172579993099,-0.9546364806810266,2.627175204118963,5.4265489523729515
5.706000656986951,-0.20620158515760917,-0.9417636228061201,-0.900370991157297,2.651362862075136,5.462311820403852
5.703938641135374,-0.17968795653685782,-0.9507673327176931,-0.8457478729532585,2.6741797179902194,5.49582781726075
5.702141761570005,-0.15294615935695563,-0.9592248114472257,-0.790789594780651,2.695255418265898,5.52755277194775
5.700612299976436,-0.12599360517429664,-0.9671327073950322,-0.7355140670611735,2.714241466172015,5.55791414354113
5.699352363924693,-0.09885119051257649,-0.9744878480656439,-0.6799349256257622,2.7308115703643647,5.587309955757536
5.698363852019567,-0.07154307480893284,-0.9812871973219015,-0.6240618260681868,2.7446617385856764,5.616108031278378
5.697648421271478,-0.044096457423076066,-0.9875278155825834,-0.5679007457554031,2.755510173980444,5.644645469985348
5.697207456697248,-0.016541355683271627,-0.9932068230401374,-0.5114542910555496,2.763097025856279,5.67322832208491
5.697042043140415,0.011089614575291163,-0.9983213659506929,-0.4547220078347005,2.767184041249856,5.7021314135994645
5.697152939286168,0.038761454987789726,-1.0028685860290398,-0.39770069369870586,2.7675541584904915,5.7315982876867935
5.6975405538360455,0.06643699657269464,-1.006845592966027,-0.3403847108218379,2.7640110792230215,5.7618412305942
5.6982049238017725,0.09407710736492486,-1.0102494400742452,-0.2827662985158959,2.7563788511278924,5.793041355690812
5.699145694875422,0.12164089587620379,-1.0130771030594041,-0.2248358849589878,2.7445014898944677,5.825348722923221
5.700362103834184,0.14908591077514846,-1.015325461908994,-0.16658239772975558,2.7282426658699026,5.858882474205719
5.701852962941936,0.1763683374338475,-1.0169912858862915,-0.1079935729876984,2.7074854782035374,5.89373096770675
5.7036166463162745,0.20344319221588286,-1.0180712216161685,-0.049056263310630906,2.6821323372048225,5.929951895759972
5.705651078238433,0.2302645155879311,-1.0185617842492747,0.010243255646968812,2.652104973988494,5.96757237224947
5.707953723394312,0.25678556532781605,-1.018459351692805,0.06991897936946351,2.6173445952451146,6.006588975837414
5.71052157904759,0.2829590112802672,-1.0177601618991106,0.12998486912783766,2.5778122000929944,6.0469677353618865
5.713351169160393,0.3087371332811971,-1.0164603132078323,0.19045454648145652,2.533489075379668,6.088644043179812
5.716438540493205,0.3340720240349938,-1.0145557677430177,0.2513409869132546,2.4843774854445484,6.131522481211824
5.719779260733555,0.3589157988894393,-1.012042357873885,0.31265621172537283,2.430501572160018,6.175476543016559
5.723368418722449,0.3832208146110395,-1.0089157957566313,0.3744109771555384,2.371908480959896,6.220348233442777
5.72720062686856,0.40693989942063846,-1.005171685985076,0.43661445948996613,2.3086697284564606,6.265947525353304
5.731270025862766,0.43002659670520305,-1.0008055413901762,0.4992739347434992,2.240882827037989,6.312051650681302
5.735570291829817,0.4524354249755829,-0.9958128020427413,0.5623944512503122,2.1686731814089266,6.358404200789285
5.740094646079573,0.4741221567896722,-0.9901888575302381,0.625978493258205,2.0921962712356295,6.4047140089179155
5.74483586764747,0.4950441195020285,-0.983929072597656,0.6900256333473841,2.011640132710494,6.45065378564798
5.74978630884249,0.5151605208291334,-0.9770288162641823,0.754532171203864,1.9272281497171135,6.495858477036475
5.754937914050781,0.5344328023263045,-0.9694834945521437,0.8194907559742287,1.8392221620837652,6.539923314790527
5.760282242074044,0.5528250239471422,-0.9612885869924014,0.884889989122134,1.7479258937937459,6.582401528982348
5.765810492313515,0.5703042828850796,-0.95243968710118,0.9507140044119575,1.6536886975350256,6.622801696981732
5.7715135351423665,0.5868411698604299,-0.9429325470570604,1.0169420213817748,1.5569096030711036,6.660584708240973
5.777381946840971,0.6024102658911409,-0.9327631268432427,1.0835478684641846,1.4580416449349476,6.695160334236072
5.783406049499883,0.6169906823404904,-0.9219276481586008,1.1504994718065453,1.357596429094584,6.7258834073701905
5.789575956323287,0.6305666466314362,-0.9104226534405354,1.2177583058802472,1.256148877583772,6.752049633310719
5.795881622789602,0.643128135407274,-0.898245070381733,1.2852788022133543,1.1543420635806039,6.772891089593964
5.802312904143674,0.65467155604308,-0.8853922823595994,1.353007713109294,1.0528920159003143,6.787571501099875
5.808859619704105,0.6652004762020832,-0.8718622052285065,1.4208834281202927,0.9525923301595113,6.795181431984783
5.815511624466126,0.6747263995036783,-0.8576533709473037,1.4888352424401405,0.854318372853761,6.794733595646146
5.822258888461163,0.6832695832322159,-0.8427650185229022,1.556782578396602,0.7590308033966396,6.785158560821208
5.829091584293486,0.6908598912661823,-0.8271971927389362,1.624634164004814,0.6677780674246698,6.765301223961212
5.836000183206147,0.697537671940429,-0.8109508510988881,1.6922871762444263,0.581697432866822,6.733918525505857
5.842975559925551,0.7033546462690973,-0.7940279793364439,1.759626361499485,0.5020140502445191,6.689679008863064
5.850009106388242,0.7083747867715424,-0.776431715721449,1.8265231515881155,0.43003742420181484,6.631164951538264
5.857092854255957,0.7126751610135605,-0.7581664842055679,1.892834801103498,0.3671545908491202,6.556877930241895
5.864219605866093,0.7163467069220517,-0.7392381361945329,1.958403580405917,0.3148192150943653,6.465248803669939
5.871383072935314,0.7194948990729954,-0.7196541003904737,2.0230560684426164,0.2745357678997607,6.35465319015365
5.878578021926043,0.722240256751993,-0.6994235397060475,2.086602600344153,0.24783793419629535,6.223433558355391
5.8858004244935636,0.7247186360939559,-0.678557513702606,2.148836935927707,0.23626046150050245,6.069929007136473
5.893047610854503,0.727081240708961,-0.6570691443433289,2.209536225999072,0.24130381423246375,5.892513649940206
5.900318423261592,0.7294942788512856,-0.6349737820833381,2.2684613624984737,0.26439127769070225,5.689644201630662
5.907613366050105,0.7321381916281926,-0.6122891684583534,2.3253578045147805,0.3068185839598046,5.459916857057979
5.914934747966387,0.7352063774677906,-0.5890355904132055,2.3799569730853603,0.3696967257111425,5.202132827543316
5.922286811741065,0.738903344724902,-0.5652360206823519,2.4319783013607936,0.4538893812352672,4.9153709632614415
5.9296758451883145,0.7434422385372547,-0.540916237668744,2.481132010993408,0.5599472663489906,4.599064770298546
5.937110267573687,0.7490417112007446,-0.5161049175588099,2.5271226586963937,0.6880426914856479,4.253079911638824
5.944600684685695,0.755922138115601,-0.490833690971846,2.569653457812782,0.8379085298484743,3.8777870956355427
5.952159906066851,0.7643012234140858,-0.46513715639371817,2.6084313287691376,1.0087865507644733,3.4741242888205384
5.9598029183009915,0.7743890889217305,-0.43905284310602677,2.643172571657343,1.1993904712319623,3.04364166174218
5.967546809190209,0.7863829936340502,-0.41262111738945334,2.673608988274765,1.4078889577801503,2.5885228073488227
5.975410639126549,0.8004618832118516,-0.38588502750670567,2.699494216348253,1.6319130366632235,2.111576734018504
5.983415257958668,0.8167810135784839,-0.35889008534322314,2.7206099836884383,1.8685908889951648,1.6161969989563605
5.991583068094452,0.8354669224684356,-0.33168398550633876,2.736771953678002,2.11461088127541,1.1062870293952092
5.9999377373191365,0.8566130312811897,-0.30431626596955874,2.747834823971954,2.3663111087167703,0.586153919801053
6.008503867631949,0.8802761423683574,-0.2768379177298392,2.7536963631699645,2.619791030003896,0.06037637464133358
6.017306629055632,0.9064740526683963,-0.24930095409813954,2.7543001269163776,2.8710383445189964,-0.4663445261983758
6.026371369582316,0.9351844361135863,-0.22175795282897576,2.749636681654394,3.1160625027193687,-0.9893409373795451
6.035723213943452,0.96634506114078,-0.19426158601243182,2.7397432722805988,3.3510254544618516,-1.5041285770030821
6.04538666455486,0.9998553156853985,-0.16686415328962584,2.724701986510568,3.5723605728459367,-2.006540704522932
6.055385217711714,1.035578921413858,-0.13961713342452015,2.7046365794653386,3.7768720866632486,-2.4928366129364306
6.065741006925852,1.0733476422804904,-0.11257076762986676,2.6797082133359744,3.9618095692461774,-2.9597784489246175
6.076474483348657,1.112965737972952,-0.08577368549650702,2.650110428846728,4.1249146927850955,-3.4046736384712144
6.087604140728387,1.154214884900803,-0.059272581208039736,2.6160636924620158,4.264440149525488,-3.8253836299893393
6.099146289577395,1.1968592863960579,-0.03311194428341958,2.5778098561621223,4.379142994092196,-4.220302595956315
6.111114882441356,1.2406507163369798,-0.007333845721798352,2.535606830202559,4.46825641467277,-4.588311834413768
6.123521389604726,1.2853332804837074,0.01802222258022724,2.4897237118584217,4.531444975906776,-4.928716749439818
6.136374722409562,1.3306477302427753,0.04291945969881146,2.4404365443640237,4.568748708541783,-5.241173507529405
6.14968119971199,1.376335217328193,0.0673238251424517,2.3880248092887295,4.580521167045364,-5.5256119369984456
6.163444551885272,1.4221404289986468,0.091204073235339,2.332768689918745,4.567365909174809,-5.78216020000402
6.177665956175258,1.467814088090395,0.11453176013452644,2.274947087918705,4.530074955834025,-6.011075470770908
6.1923440970561625,1.5131148376487351,0.13728123101371348,2.2148363332109957,4.469571829071134,-6.212683514610184
6.20747524543265,1.5578105559394464,0.15942959434582343,2.152709498064894,4.3868608643908775,-6.387328838638716
6.2230533509920445,1.6016791645833552,0.18095668932647238,2.0888362096785067,4.282983728522173,-6.535336072285207
6.239070142637878,1.644509001868577,0.20184505142325745,2.0234828489556547,4.158983481416502,-6.656982473248792
6.255515232656564,1.686098836682742,0.222079879912814,1.9569130242231667,4.015876104957834,-6.752480939497058
6.272376221023392,1.7262575977323205,0.24164901015504567,1.8893882148281962,3.8546291621592794,-6.8219726093747
6.289638797000715,1.7648038893539133,0.2605428923033276,1.8211684887344493,3.676147118936978,-6.865528004656734
6.307286835894255,1.801565360543283,0.2787545771906721,1.7525132086878819,3.481262820821692,-6.883155665606588
6.325302489499688,1.8363779887515,0.29627970927755093,1.683681652031816,3.2707346347328934,-6.874817294957674
6.343666269387203,1.8690853350988288,0.3131165257978691,1.6149334790822394,3.04524881027327,-6.840448526956568
6.362357122738191,1.8995378232015614,0.32926586058869145,1.5465289938126736,2.805426659859636,-6.77998453298751
6.381352500970207,1.9275920898001577,0.3447311505268182,1.4787291484827985,2.551836181619745,-6.693389739042664
6.400628421868209,1.953110451616355,0.3595184420116462,1.411795251092372,2.2850077378551035,-6.580690941911197
6.4201595263843725,1.975960528994906,0.3736363945225699,1.3459883416732599,2.0054533447732563,-6.442013057241423
6.439919131674322,1.9960150624426387,0.3870962779393025,1.2815682111008457,1.713689021436461,-6.2776166081185085
6.459879282298748,2.013151952657003,0.399911960050311,1.2187920450196605,1.4102594888778441,-6.087935870649428
6.480010801825318,2.0272545475457817,0.4120998805005076,1.1579126863131664,1.095764312453223,-5.873616346235483
6.500283347300776,2.038212190670314,0.4236790073636393,1.0991765228508115,0.770884357805103,-5.635549952661435
6.520665469207479,2.045921034248365,0.43467077259214737,1.042821023324197,0.436407207482783,-5.374906053143652
6.541124679549963,2.0502851063231926,0.44509898282538934,0.9890719627927604,0.09324999299244469,-5.093156219798619
6.561627530613195,2.051217606253117,0.45498970245331694,0.9381404005947742,-0.2575220269169447,-4.792090508737294
6.582139706675726,2.0486423859839475,0.46437110645926466,0.8902194955074013,-0.6146828275965446,-4.47382306302387
6.602626130535565,2.042495557707982,0.47327330141433865,0.8454812648771626,-0.9768404795788279,-4.14078510542619
6.623051086112645,2.032727152912194,0.4817281140631103,0.8040734138229007,-1.3424407770551199,-3.7957038669873406
6.643378357641767,2.0193027451416428,0.4897688482013393,0.7661163751530272,-1.7097804361484914,-3.441566724694456
6.663571385093183,2.0022049407801576,0.49743001195286957,0.7317007079060827,-2.0770300453681596,-3.081570761242601
6.683593434500985,1.981434640326476,0.5047470190319304,0.7008850002936566,-2.442266220932907,-2.7190590423657106
6.703407780904249,1.9570119781171469,0.511755869034867,0.6736944098699995,-2.803511650392747,-2.3574460270582884
6.722977900685421,1.9289768616132195,0.518492813133567,0.6501199495994167,-3.1587809867798726,-2.0001355537470653
6.742267669301553,1.8973890517454208,0.5249940126295611,0.630118594061946,-3.5061299748442143,-1.6504356462878964
6.761241559819007,1.8623277519969788,0.5312951985701806,0.6136142375990671,-3.843704832404734,-1.3114748404442966
6.779864837338977,1.8238907036729315,0.5374313409461713,0.6004994891946241,-4.169788828845836,-0.9861247672014569
6.798103744375706,1.782192815384473,0.5434363358381176,0.5906382415226096,-4.482843216948631,-0.6769333232740945
6.815925672529551,1.7373643832149868,0.5493427182533437,0.5838689082898686,-4.781540158980474,-0.3860719533292918
6.833299316361701,1.689548981625182,0.5551814073362423,0.5800081887565757,-5.064785980316055,-0.11529946082275214
6.850194806177952,1.6389011218220215,0.5609814892238081,0.5788551941483482,-5.331733893917998,0.13405650806653924
6.866583817396172,1.5855837828828416,0.5667700411652916,0.5801957592290136,-5.581786166135127,0.36110044839310546
6.882439655225001,1.5297659212214905,0.5725719987575818,0.5838067637129446,-5.814586444305238,0.5653537467736318
6.897737314437216,1.471620056778438,0.5784100663947113,0.5894603011806809,-6.0300035661582605,0.7467254167802733
6.912453515005001,1.4113200211168555,0.584304669406518,0.5969275553484836,-6.228108576074626,0.905471656239326
6.926566715216169,1.3490389353561092,0.5902739449600028,0.6059822719108768,-6.409146871574019,1.042147362100117
