th1 (rad),w1 (rad/s),th2 (rad),w2 (rad/s)
0.13259083685076214,-2.9295864299117995,4.691108846570068,-2.660928379607023
0.10329497255164415,-2.9639224926898455,4.664499562773998,-2.483402303758108
0.0736557476247457,-2.9909068389214983,4.639665539736417,-2.3027324337845085
0.04374667923553071,-3.0109792653304903,4.616638215398572,-2.1194205953808143
0.013636886582225807,-3.0246147084793327,4.595444009444764,-1.9339861504989087
-0.01660926050256752,-3.0323165665520673,4.576104147939775,-1.7469543016885622
-0.046932426168088195,-3.0346098446666394,4.558634604922889,-1.5588450308069004
-0.0772785246147546,-3.0320343460163595,4.54304615461482,-1.3701628732265305
-0.1075988680749182,-3.0251381084339495,4.529344525882554,-1.1813876940357049
-0.1378502491592577,-3.0144712584976827,4.517530648942198,-0.9929665929960783
-0.16799496174423453,-3.0005804243029486,4.507600983012237,-0.8053070223375736
-0.19800076598726402,-2.9840038148317487,4.499547912788861,-0.6187711580711612
-0.2278408041355815,-2.965267039813434,4.49336020120815,-0.43367152365551814
-0.25749347453371585,-2.944879710361058,4.489023485971595,-0.25026782673462744
-0.28694227163732644,-2.9233328285985767,4.486520807704249,-0.0687649372325328
-0.31617559992331223,-2.9010969447988897,4.485833158331924,0.11068808998832502
-0.34518656937130116,-2.8786210336906803,4.486940039231807,0.287998061102249
-0.37397277970820797,-2.8563320175614466,4.4898200198428295,0.46312687783678674
-0.40253609988382244,-2.8346348420494145,4.494451288621198,0.6360900766431135
-0.4308824483043166,-2.813912989942832,4.500812189387629,0.8069547735348808
-0.4590215782037449,-2.794529297082304,4.5088817371229775,0.9758370881655896
-0.48696687117456794,-2.776826910006751,4.518640108004633,1.1428990792888907
-0.5147351402746354,-2.761130193788618,4.530069098797522,1.3083451656914498
-0.5423464422125216,-2.747745355919216,4.543152550454437,1.4724179278365106
-0.5698238957717138,-2.7369604920415687,4.557876729732802,1.6353930795341287
-0.5971935006921295,-2.729044673899168,4.574230660528142,1.7975732569437395
-0.6244839474311212,-2.724245579045416,4.592206393097579,1.959280081770036
-0.6517264032215754,-2.7227849933393253,4.61179919391528,2.120843700694159
-0.6789542531549686,-2.7248512870072568,4.633007630922221,2.282588665023236
-0.7062027660250412,-2.730587659474389,4.655833517572454,2.444814574337723
-0.7335086426197851,-2.7400745597039298,4.680281663315831,2.6077693542605367
-0.7609093882168244,-2.75330422837493,4.706359356858436,2.7716123847161054
-0.7884424305005737,-2.77014483041537,4.734075480705597,2.9363640136896403
-0.8161438788047274,-2.790291295749086,4.763439120842493,3.1018374782845104
-0.8440467917622182,-2.8132000754898363,4.7944574956253385,3.26754933721013
-0.8721787925171166,-2.8380061462892097,4.82713298899744,3.432606015376481
-0.9005588539800087,-2.863423763670332,4.861459049151205,3.5955683596837145
-0.929193091616712,-2.8876391255407334,4.897414732748042,3.754305209565251
-0.9580694828721193,-2.908214807157093,4.934957784843695,3.9058630414516293
-0.9871516309436903,-2.922042957438433,4.974016415258211,4.046402297526444
-1.0163720605180746,-2.925403278667561,5.014480438233475,4.17127717457602
-1.0456260933047503,-2.9141914500816837,5.056193209979235,4.275348764874115
-1.0747680078055672,-2.8843634881230757,5.0989466976279765,4.353593221969601
-1.103611642686798,-2.8325713868124462,5.142482629847673,4.40196923403021
-1.1319373565549224,-2.75685132882651,5.186502322187975,4.418351375252085
-1.1595058698431875,-2.6571269017560217,5.230685835940496,4.4032004477209155
-1.1860771388607476,-2.535299542034913,5.274717840417705,4.359658408314003
-1.2114301342810967,-2.3948574350886926,5.318314424500845,4.292978797704127
-1.2353787086319836,-2.2401550688477077,5.361244212477886,4.209510361819377
-1.2577802593204608,-2.075642009960469,5.40333931609608,4.11562361699626
-1.2785366794200654,-1.9052775462949998,5.4444955522660425,4.0169071123344695
-1.2975894548830154,-1.732224882851475,5.484664623389388,3.9177584777104886
-1.31491170371153,-1.5587896844204445,5.523842208166492,3.8213160940872344
-1.3304996005557346,-1.3865109772565285,5.562055369107364,3.7296000702909224
-1.3443647103282999,-1.216316670087838,5.5993513698102735,3.6437391790134606
-1.3565278770291782,-1.0486856983866988,5.635788761600408,3.564203186986289
-1.3670147340130452,-0.8837882643797557,5.671430793470271,3.4910016523252034
-1.3758526166568428,-0.7215953565636709,5.706340809993523,3.423837812668666
-1.3830685702224794,-0.5619589161800818,5.7405791881202095,3.3622202416939984
-1.3886881593842801,-0.4046679184448114,5.77420139053715,3.305540197045448
-1.3927348385687282,-0.24948624588336732,5.807256792507604,3.253123264709131
-1.3952297010275618,-0.09617746680585351,5.839788025154696,3.204262715724918
-1.3961914756956204,0.05547950505930305,5.871830652311945,3.1582403233385663
-1.3956366806450273,0.20568096804705324,5.903413055545331,3.114338839114558
-1.3935798709645568,0.35459317401853674,5.934556443936476,3.07184908429607
-1.3900339392243715,0.5023498703715609,5.965274934779436,3.0300736881198143
-1.3850104405206558,0.64905172362986,5.995575671660634,2.98832884513852
-1.3785199232843572,0.7947670281594564,6.02545896011202,2.9459450045222377
-1.3705722530027626,0.939533322855429,6.054918410157242,2.9022670891129776
-1.3611769197742083,1.083359685056807,6.083941081048372,2.856654626590424
-1.3503433229236401,1.2262295667299465,6.112507627314276,2.8084820272729503
-1.3380810272563406,1.36810409883376,6.1405924475870055,2.757139140195642
-1.324399986268003,1.5089258266296166,6.168163838988962,2.702032145667367
-1.3093107280017067,1.6486228589999659,6.195184160445636,2.642584788106688
-1.292824499411707,1.7871134237427948,6.221610008326703,2.5782399107689207
-1.274953365174279,1.9243108219211502,6.2473924074343925,2.5084612196776512
-1.2557102569550675,2.0601287702770774,6.272477019631169,2.432735175078472
-1.2351089692522967,2.1944871134445507,6.2968043713819535,2.350572883678885
-1.2131640981178513,2.327317878797186,6.320310100218743,2.2615118433352293
-1.1898909193298794,2.458571637565591,6.342925218652095,2.1651173738353275
-1.1653052029542235,2.588224127478264,6.364576392390448,2.060983553617755
-1.139422961679441,2.716283085532949,6.385186227926625,1.948733473659544
-1.1122601308241113,2.8427952352220474,6.404673562663221,1.8280186177029965
-1.083832178471891,2.967853370808294,6.422953748840251,1.698517184243057
-1.054153644763808,3.091603481575423,6.439938920682682,1.5599311826259208
-1.0232376099480538,3.2142518597702368,6.455538232508941,1.411982166579546
-0.9910950913503515,3.336072133897464,6.469658054174737,1.2544055185924028
-0.9577343700113768,3.457412158117894,6.482202109360661,1.0869432758553985
-0.923160248430198,3.578700658460008,6.493071542119215,0.9093356062050704
-0.8873732418455978,3.7004534703230654,6.502164898181266,0.721311222599259
-0.8503687071423672,3.823279071371362,6.509378010407258,0.5225773036691337
-0.8121359164286536,3.9478828738781027,6.514603783443949,0.3128099265332014
-0.7726570876898725,4.075069317022442,6.517731882709281,0.09164671652320369
-0.7319063945196481,4.205740073325521,6.518648349874513,-0.14131545950713786
-0.6898489937863929,4.34088546363292,6.517235195279442,-0.3865131204220408
-0.6464401391500637,4.481564162719676,6.513370064075222,-0.6443915719388786
-0.601624497522867,4.62886302085112,6.5069261483558325,-0.9153508975860193
-0.5553358673143558,4.78382369152836,6.497772639379972,-1.1996431198191309
-0.5074976303990723,4.947314989386988,6.485776208181781,-1.4971902593073332
-0.4580244805052024,5.1198190076041294,6.4708043055887075,-1.8072779317602976
-0.4068262904291611,5.3010859826861445,6.452731526271105,-2.1280613296167905
-0.35381543060229964,5.489603363080449,6.431450912974937,-2.455808172549378
-0.29891939697149517,5.681835749372915,6.4068928312494435,-2.7838211681925102
-0.242101039477766,5.871264148711207,6.379054619567518,-3.1010873324419412
-0.18338839799065393,6.047453117512825,6.348043746243099,-3.390988998508724
-0.12291386681552569,6.195756772450608,6.314133856258012,-3.630956467102993
-0.06095629909101961,6.298706949287619,6.277824291586982,-3.794553934198515
0.002030770401856584,6.340007032446582,6.239878752244997,-3.8573101815018025
0.06543084072632241,6.310489230205985,6.201305650429979,-3.8053625866926306
0.12853573302838228,6.212778517212959,6.163252024563053,-3.642244440097688
0.19066351820051186,6.060847475275794,6.126829580162076,-3.3883320598827553
0.2512719929532698,5.87439003853785,6.092946259563248,-3.0727982077456844
0.3100158933386483,5.672164362454088,6.062218277485791,-2.7239766327314263
0.3667375369631892,5.4681107130320505,6.034978511158477,-2.363619917668287
0.4214186440935097,5.270731319919769,6.011342311981794,-2.0058256954636726
0.4741259572927074,5.084221864252258,5.991284055027157,-1.6585235114183585
0.5249681759352299,4.909952088570697,5.974698819912974,-1.325523097399485
0.574067696820937,4.747660081281219,5.961443588938979,-1.0081973220029397
0.6215442976337491,4.596245903080631,5.95136161571895,-0.7066157089597931
0.6675067566645554,4.454245660278892,5.944295458629352,-0.42023001996135667
0.7120492132673443,4.320095113631487,5.940093158429738,-0.14825988766065046
0.7552501644036591,4.192267327322323,5.9386105595531316,0.11010428325576238
0.7971728376768823,4.069339175182701,5.939711602385689,0.3556039213516466
0.8378662294287093,3.9500193755868787,5.943267641599205,0.5888736148514111
0.877366423184578,3.8331566013686706,5.94915637774772,0.8104340211575818
0.9156979891982647,3.717737831594746,5.957260717959295,1.0207009935333446
0.9528753675142122,3.602882330954149,5.967467727894629,1.22000234962994
0.9889041908237537,3.4878339814579373,5.979667751390928,1.4085975441093042
1.023782530638333,3.3719532416449844,5.993753726832021,1.586697652189746
1.057502063054783,3.2547092406218248,6.009620703353918,1.754484263299244
1.0900491554610012,3.1356721264443532,6.027165545986911,1.91212654766219
1.1214058767254447,3.014505610724807,6.046286811463533,2.059796131915429
1.1515509328326927,2.890959588419493,6.066884772782688,2.197679635356638
1.1804605287168877,2.764862709599602,6.088861569136254,2.3259888490205403
1.2081091558128836,2.63611480792945,6.1121214576264595,2.444968624725593
1.234470303892178,2.504679130920449,6.136571143873716,2.5549026010613565
1.2595170952013826,2.37057435957469,6.1621201698843295,2.6561169381896175
1.2832228387971294,2.233866443897069,6.188681339266226,2.7489822679567943
1.3055615032361,2.094660312681644,6.216171161945794,2.8339140919784107
1.3265081063629165,1.9530915393727584,6.244510302865578,2.911371878580436
1.346039021756644,1.8093180601822532,6.273624021651382,2.9818571198389683
1.3641322023584666,1.6635120463081572,6.3034425928497715,3.0459106125097017
1.380767322821548,1.5158520299108484,6.333901698974868,3.104109221626844
1.3959258431206565,1.3665153747418408,6.364942791191137,3.157062373453307
1.4095909968680749,1.2156711685818133,6.3965134149256695,3.205408505937468
1.421747708553893,1.0634735977583682,6.428567499985045,3.2498116806004065
1.4323824445314766,0.9100558460047828,6.461065616791049,3.290958530462397
1.4414830029915244,0.7555245430095844,6.493975202095673,3.3295556845154652
1.4490382484216202,0.5999547746745235,6.527270758940828,3.366327770046188
1.4550377961683654,0.44338566024048076,6.56093403664129,3.4020160485092803
1.4594716527707703,0.28581650464561353,6.594954197126382,3.437377685850547
1.4623298178172264,0.1272035524893918,6.629327973984887,3.473185589167892
1.4636018533421202,-0.032542590602391536,6.6640598298765665,3.5102286501343256
1.4632764274360963,-0.19355873304509227,6.699162116377909,3.549312108720797
1.4613408401056454,-0.3560298172971663,6.734655237465117,3.59125756863433
1.4577805419326737,-0.5201881523737959,6.770567813151461,3.6369019288833893
1.4525786604089357,-0.6863104498392694,6.806936832440295,3.6870941005568167
1.445715555910543,-0.854711539048209,6.843807773445863,3.742687792269174
1.4371684405200609,-1.025733024902772,6.881234651368555,3.8045277868796803
1.4269111102710332,-1.199724266942142,6.9192799292373515,3.8734258877469956
1.4149138676016118,-1.3770118208056108,6.958014188114822,3.950120965613255
1.4011437493935557,-1.5578518367494332,6.997515397770955,4.035215202127617
1.3855652310260613,-1.7423579118161874,7.037867549792231,4.129075771831083
1.3681416519078995,-1.9303949048980769,7.079158307510542,4.231688324468631
1.3488377028589187,-2.1214282993385414,7.121475190755229,4.342447181140477
1.3276234198655332,-2.31432123053112,7.164899662566634,4.459870483936716
1.304480207560222,-2.507081858584197,7.209498367406001,4.58124305516156
1.27940938897438,-2.696589411220025,7.255310797957616,4.702225377208738
1.2524434948621799,-2.878375028757147,7.302333051729703,4.816533994379759
1.2236597445746085,-3.0466011229742427,7.350498391673501,4.915893754292023
1.1931937333448661,-3.1944389396886503,7.399657329216421,4.990542141502526
1.1612493439479796,-3.3150105649662542,7.449562750631446,5.030521766962163
1.128099238298317,-3.402844785899476,7.499867968301068,5.027696834619891
1.0940707904393223,-3.455413352976518,7.550144936647267,4.977895794213497
1.059516656909557,-3.4740301298845777,7.599923894589402,4.882183819073896
1.0247763556107112,-3.463578885295125,7.648745732780141,4.746519537721085
0.99014056675776,-3.4311843594709095,7.6962109281573525,4.579949621823432
0.9558287231630509,-3.384519561081906,7.742010424375587,4.3922970625187
0.9219835275522319,-3.330468098704164,7.785933395000773,4.192334965061869
0.8886788465651903,-3.2744505828469315,7.827856744651392,3.986870869270499
0.8559343407367209,-3.220321915751975,7.867725453344097,3.7806118480343645
0.8237311215792011,-3.1705891859941517,7.90553157182444,3.5764656145272573
0.7920252297192596,-3.1267348058703113,7.941296227969713,3.375982485820515
0.7607578816605565,-3.0895231657033837,7.9750560528279175,3.1797725582280623
0.7298626500035226,-3.0592445422073307,8.006853778410198,2.9878360952109184
0.6992702045814493,-3.0358912121460513,8.036732139362307,2.799801304626997
0.6689112924599888,-3.019277005862675,8.064730152408577,2.6150855769021004
0.6387185224013621,-3.0091148611982144,8.090881008177599,2.4330004752348566
0.6086273737893799,-3.0050651232628134,8.115211012929947,2.2528180651866117
0.5785767225567517,-3.0067642382959163,8.137739193581814,2.073811807953223
0.5485090801737926,-3.013840629679345,8.158477311661345,1.8952812649461308
0.5183706738769992,-3.0259223382577902,8.177430124310806,1.7165668133478766
0.4881114504944213,-3.042639445797475,8.194595792444286,1.5370584176158242
0.45768505603644655,-3.0636232437279785,8.209966376620445,1.3562010427238784
0.42704882359916674,-3.0885034162285057,8.223528387047683,1.1734983290760757
0.3961637894368817,-3.1169040622032034,8.235263370338444,0.9885155159714626
0.36499474881484967,-3.1484391015139708,8.24514852549816,0.8008821853606725
0.33351035779970994,-3.18270743979296,8.253157347351765,0.610295122582865
0.30168328340178036,-3.2192881648537788,8.259260298577594,0.4165214048959516
0.26949040175324257,-3.257735990574817,8.263425512626554,0.21940169956191374
0.2369130418474944,-3.297577133958611,8.265619529622173,0.0188536611508984
0.20393727050790827,-3.338305796111948,8.265808066233681,-0.18512474900250742
0.1705542125467888,-3.3793814098677033,8.263956818743656,-0.39245224576788
0.13676039844811175,-3.4202268097282946,8.260032296285978,-0.6029617611609159
0.10255813035082881,-3.460227469472045,8.254002678674368,-0.8163988138791298
0.06795585565610836,-3.49873193621392,8.245838690535576,-1.0324209769194854
0.032968536293969154,-3.5350535653033934,8.235514480766382,-1.250598695064435
-0.0023819993590647806,-3.5684736277835736,8.223008493815737,-1.4704176700323734
-0.038066735636900516,-3.598245822076799,8.208304317115413,-1.6912829822485647
-0.0740491938576685,-3.6236021760885837,8.191391487292927,-1.9125250573690775
-0.11028521561855434,-3.6437602779074916,8.172266236719237,-2.133407517146312
-0.14672281839762924,-3.657931726072203,8.150932161547773,-2.3531368832660755
-0.18330213565835127,-3.6653316472542947,8.127400792715113,-2.5708740351050925
-0.2199554521308942,-3.6651890927592223,8.101692052364061,-2.7857472631657054
-0.2566073430584864,-3.6567580968360662,8.073834579732404,-2.996866713049978
-0.2931749240268471,-3.6393291591686032,8.043865912601904,-3.2033399818688566
-0.3295682156185331,-3.612240899210608,8.011832512783215,-3.404288608973243
-0.36569062461063917,-3.574891618038598,7.9777896266934825,-3.5988651923651007
-0.4014395407910252,-3.526750490364999,7.941800974769832,-3.786270855792556
-0.43670704569467517,-3.4673680919762075,7.903938266211906,-3.9657727834318273
-0.47138072661443725,-3.396385944411927,7.864280538377588,-4.136721524229548
-0.5053445860585565,-3.3135447300423486,7.8229133231352925,-4.298567743982736
-0.53848003335898,-3.218690800846158,7.779927645695465,-4.450878071459142
-0.5706669413674416,-3.1117805802576655,7.735418864980874,-4.593349651141249
-0.6017847471700182,-2.9928824487969696,7.6894853684694615,-4.725822989475378
-0.6317135716579879,-2.862175720825516,7.642227138574707,-4.848292676574012
-0.660335328866243,-2.719946370162635,7.593744211808967,-4.960915594454942
-0.6875347925678694,-2.566579251089226,7.544135055864418,-5.06401629718615
-0.7132005850787617,-2.4025466872548105,7.493494892892556,-5.15808937386426
-0.7372260519513099,-2.2283934560617253,7.441913999153914,-5.243798781296585
-0.7595099865119271,-2.044718365343126,7.389476011340948,-5.321974350880404
-0.7799571701653584,-1.852152782570073,7.336256267832144,-5.393605917765113
-0.7984786979910591,-1.6513366121548163,7.282320208654492,-5.459835769578226
-0.8149920641126073,-1.4428923027662321,7.22772185095871,-5.521950345237004
-0.8294209871402696,-1.2273974880721787,7.17250234750634,-5.5813723126492105
-0.8416949620209914,-1.0053568131733783,7.116688624379848,-5.639654303999106
-0.8517485301527251,-0.7771733775051364,7.060292081339857,-5.698475682223103
-0.8595202639277765,-0.5431200467985504,7.0033073245176265,-5.759643750961777
-0.864951464395762,-0.30331067814050594,6.945710887008008,-5.825100801550914
-0.867984571177167,-0.05767110577046594,6.887459878992499,-5.896938302592267
-0.8685612822348716,0.19409038103973,6.828490495966577,-5.977419338080599
-0.8666203784244743,0.4525132580988872,6.768716302585771,-6.0690099806338935
-0.8620952458434854,0.7184153943144396,6.708026202779432,-6.174419405820899
-0.854911091900341,0.9929225260247948,6.646282008721223,-6.29664670935896
-0.844981866640093,1.2774922011232084,6.583315541627633,-6.439028567814147
-0.8322069446288609,1.5739219973140752,6.518925255949492,-6.605274078638232
-0.8164677246557202,1.884320176481921,6.45287251516311,-6.799457414660325
-0.7976245228909009,2.2109941511070983,6.384877941016507,-7.025907892508373
-0.77551458137983,2.556168671521209,6.314618862091423,-7.288877244676291
-0.7499528946646179,2.9213663569058963,6.24173008964466,-7.591753725384018
-0.7207392310955589,3.3061515669724804,6.16581255239082,-7.935407873244813
-0.6876777154258341,3.7057667918763704,6.086458473658372,-8.315009314968197
-0.6506200475070704,4.1071339058438525,6.00330838050869,-8.714558681959799
-0.6095487084486318,4.4833444794286965,5.916162793689092,-9.099253761775135
-0.5647152636543449,4.789461575939489,5.825170256071341,-9.409518240865903
-0.51682064789495,4.967829566298782,5.731075073662682,-9.567968799611002
-0.46714235223196215,4.972302180312678,5.6353953856665715,-9.512331664199841
-0.4174193304288354,4.801635916828139,5.5402720690245735,-9.240886455810086
-0.369402971260554,4.505627994780369,5.447863204466473,-8.820403482027936
-0.3243466913127503,4.151878515446632,5.359659169646194,-8.340492628608814
-0.28282790615828396,3.7917322731061045,5.276254243360105,-7.867689691366117
-0.2449105834272229,3.4520434899124934,5.197577346446444,-7.4351577621242
-0.21039014852809798,3.142486032687594,5.123225768825202,-7.053219311419885
