th1 (rad),w1 (rad/s),th2 (rad),w2 (rad/s)
0.4647367578549645,2.4890733976651878,5.003827289851561,-1.6636033494716715
0.48962749183161636,2.4442078205037143,4.987191256356844,-1.516445264068009
0.5140695700366535,2.402205686115664,4.972026803716164,-1.372707929349128
0.5380916268978102,2.362591616422071,4.958299724422673,-1.2321151109783952
0.5617175430620309,2.3249230277981687,4.945978573312889,-1.0944607582975394
0.5849667733400126,2.2887855268502775,4.935033965729914,-0.9595995325112674
0.6078546286085154,2.2537894797355595,4.925437970404801,-0.827438357676882
0.6303925234058709,2.2195675600985365,4.917163586828032,-0.6979287696206707
0.6525881990068563,2.185773102739004,4.910184299131825,-0.5710598958290573
0.6744459300342464,2.1520791080601636,4.904473700173535,-0.44685194922772453
0.695966721114848,2.1181777571834384,4.900005180681258,-0.3253501604778604
0.7171484986866824,2.083780310497785,4.896751679076479,-0.20661910712922493
0.7379863017916602,2.048617274382243,4.894685488005186,-0.09073742392121958
0.7584724745354827,2.0124387327316655,4.893778113765975,0.02220710294417219
0.7785968618627994,1.9750147522830983,4.894000184795416,0.13212204314888362
0.7983470093856304,1.9361357838489253,4.895321405226905,0.238914411538027
0.8177083672241197,1.8956129954011622,4.8977105493422854,0.34249431984364176
0.8366644971781313,1.8532784872723491,4.901135492540722,0.4427781760301004
0.8551972820508548,1.8089853541199377,4.905563274301023,0.5396914244236041
0.8732871355920542,1.7626075722158645,4.910960188545259,0.6331708298734411
0.8909132113142129,1.71403970351364,4.917291896843993,0.7231663201650249
0.9080536083493492,1.6631964192926643,4.924523560045643,0.8096424116402161
0.9246855725422759,1.6100118555596814,4.932619984162046,0.8925792525171363
0.9407856910978727,1.5544388195115222,4.941545776687217,0.9719733259951829
0.9563300792929879,1.496447871098648,4.951265509947169,1.0478378603867278
0.9712945580039744,1.4360263061008174,4.9617438885510365,1.1202029959983502
0.9856548210649825,1.373177067304182,4.97294591851102,1.1891157582978633
0.9993865917380242,1.3079176086419337,4.984837076093999,1.2546398842657693
1.0124657678244435,1.2402787339031187,4.997383474936657,1.316855544123796
1.0248685551634746,1.1703034272520838,5.010552030377895,1.375858994356586
1.0365715894359955,1.098045687776554,5.024310620321462,1.4317621906574822
1.047552046313761,1.0235693750241606,5.038628242228037,1.4846923817149758
1.0577877400640028,0.9469470673852968,5.053475166045186,1.5347916971693112
1.0672572107378557,0.8682589305668997,5.06882308301688,1.582216736110619
1.0759398000435247,0.7875915895389616,5.084645250377986,1.627138156583997
1.0838157159389143,0.7050369944069194,5.100916631943826,1.6697402620421762
1.0908660858829835,0.6206912687708372,5.117614034564248,1.7102205777687463
1.097072998570692,0.5346535282983198,5.134716240341936,1.74878940910473
1.102419533853675,0.44702465740791325,5.152204134432983,1.7856693738658456
1.1068897804277542,0.35790603300971535,5.170060828171642,1.8210949035587949
1.1104688407578513,0.26739818599693777,5.1882717772072295,1.855311711730232
1.1131428226178208,0.17559939339568004,5.206824894324532,1.88857623278154
1.1148988165517777,0.08260419649595147,5.225710656652347,1.9211550405774553
1.1157248585167372,-0.011498157378025342,5.244922207058122,1.953324262861897
1.115609876942957,-0.10662534983262573,5.26445544968674,1.9853690145631915
1.1145436234446306,-0.20270370215501232,5.284309139832372,2.0175828802395572
1.1125165864230806,-0.29966996047132216,5.3044849686347675,2.050267482948417
1.1095198868183673,-0.39747315462535576,5.324987643464252,2.0837321835543268
1.1055451552721138,-0.4960765320817573,5.345824965299795,2.1182939608440843
1.1005843899512961,-0.5954595715977588,5.3670079049082355,2.1542775288222034
1.0946297942353185,-0.6956200864110379,5.388550680196458,2.1920157533578086
1.087673593371208,-0.7965764333502522,5.410470837730036,2.2318504362061256
1.0797078290377056,-0.8983698526720812,5.4327893420920965,2.2741335407132435
1.0707241305109847,-1.0010669736526598,5.455530677499229,2.3192289407231037
1.0607134607744582,-1.10476253312097,5.47872296690646,2.3675147829329046
1.0496658354432484,-1.2095823683560178,5.502398114735789,2.419386563860344
1.0375700117596882,-1.31568676224581,5.526591980374393,2.475261036413153
1.0244131441372302,-1.4232742374961171,5.551344590738524,2.5355810784942827
1.010180401762269,-1.5325859180920336,5.576700401523467,2.600821677716058
0.9948545425813488,-1.6439106000665602,5.602708618300627,2.6714972123838487
0.9784154365806832,-1.7575906993553032,5.629423590424466,2.7481702389802067
0.9608395295871301,-1.8740292705633101,5.656905292814268,2.8314620285459964
0.942099236881497,-1.9936983133459294,5.685219913099728,2.922065123995862
0.9221622537480377,-2.117148595629562,5.714440564339687,3.0207582077668795
0.9009907677917421,-2.2450212110092473,5.744648146417355,3.1284235549847192
0.8785405556816497,-2.3780610245787814,5.775932381967203,3.246067264616159
0.8547599454358619,-2.5171319969855968,5.808393054613364,3.374842240456864
0.8295886254660059,-2.663234017450777,5.8421414770179325,3.5160734061004733
0.8029562852914981,-2.81752015070094,5.877302211078938,3.6712836441633683
0.7747810837844887,-2.981311793581108,5.9140150475205715,3.8422170093750263
0.7449679658486776,-3.1561065653754667,5.952437217614322,4.030852070150556
0.7134069001949229,-3.343568773103559,5.992745738315827,4.2393913192336345
0.6799712124638874,-3.5454831406639435,6.035139651508164,4.470199859066211
0.644516381057248,-3.763636011659894,6.079841650098826,4.725643581922985
0.606880020940649,-3.9995595386112006,6.127098085918056,5.007736943547761
0.566884425554537,-4.254027478317228,6.177175455353534,5.3174447050674045
0.5243441507713648,-4.5261244666147835,6.230349902404208,5.653388154770665
0.4790829061052169,-4.81164737123477,6.2868837839519145,6.009616591235708
0.43096643239286925,-5.100643897428631,6.346979949864272,6.372167732302351
0.37995999341858294,-5.374349963076948,6.410701627187295,6.714776192183221
0.3262164937878135,-5.603173672547599,6.477849389109128,6.996027491871506
0.27018475706233747,-5.749698631049405,6.547809664027843,7.16351215660673
0.21268777075184342,-5.781072271730289,6.6194447855939105,7.171091938936815
0.15487704803454053,-5.687513409999013,6.691155704983279,7.004716944016098
0.0980019139345504,-5.491138414345646,6.76120287442344,6.694717852197712
0.04309052979109394,-5.2337478293686015,6.828150052945418,6.298761313787078
-0.00924694850259207,-4.9556312993224925,6.891137666083289,5.872364297461048
-0.058803261495816994,-4.683748545231971,6.949861309057899,5.452534894178865
-0.10564074694813672,-4.431692100061666,7.004386657999687,5.057795940423898
-0.14995766794875337,-4.2042514110784,7.054964617403926,4.694554667498786
-0.19200018205953737,-4.001591510847979,7.101910164078914,4.362898952805102
-0.23201609716801716,-3.8218486678808294,7.145539153606965,4.060181550854294
-0.27023458384682547,-3.6624811209333026,7.186140969115508,3.782876330429966
-0.3068593950561585,-3.5208947361028335,7.223969732419808,3.5274329108243663
-0.34206834241718687,-3.3946980230316717,7.259244061528052,3.290621848722445
-0.3760153226475036,-3.281781843500519,7.292150280015276,3.0696403214739654
-0.4088331410825088,-3.1803219660255575,7.322846683230016,2.8621132876574484
-0.44063636074276435,-3.0887513042010832,7.351467816106591,2.6660541434826186
-0.47152387378477517,-3.0057232525909945,7.378128357541417,2.479813883243091
-0.5015811063106851,-2.930075359957308,7.402926496373848,2.302031086197883
-0.5308818599102582,-2.860796901004612,7.425946807235826,2.131587315336509
-0.5594898289203043,-2.7970013450308113,7.4472626803891915,1.9675690527021548
-0.5874598423706124,-2.7379036285111953,7.466938370916213,1.8092358466325908
-0.6148388786557244,-2.682801728590362,7.485030729382539,1.655993825027764
-0.6416668959416281,-2.631061929030033,7.501590667632817,1.507373621680516
-0.6679775152319284,-2.582107191575727,7.516664403849622,1.3630118286616006
-0.6937985871476856,-2.5354081116828184,7.530294522136238,1.222635215692928
-0.7191526682645137,-2.4904760115528024,7.542520874293167,1.0860470980187333
-0.7440574283800417,-2.446857790712637,7.553381345273355,0.9531153669741141
-0.7685260062871682,-2.404132210354706,7.562912498943096,0.8237618148279119
-0.7925673283907152,-2.361907332370259,7.571150117091375,0.697952485730663
-0.8161864017144178,-2.3198188693757684,7.578129641948681,0.5756888680680845
-0.8393845904081755,-2.277529230551726,7.583886530629362,0.45699981118897726
-0.8621598827136927,-2.2347270722324386,7.588456528741252,0.341934102406213
-0.884507153436017,-2.191127183979581,7.591875869765315,0.2305536793822666
-0.9064184252758128,-2.146470561903252,7.594181406559137,0.12292747955091841
-0.9278831308948453,-2.1005245422576357,7.595410681354647,0.019125943274832913
-0.9488883763174216,-2.053082890276373,7.595601940787395,-0.08078380759609854
-0.9694192052201853,-2.0039657617758997,7.594794102711434,-0.17674209754324807
-0.9894588628379443,-1.95301947780204,7.593026681736002,-0.2687001232886902
-1.0089890576159646,-1.90011607481851,7.590339680503115,-0.356622683874099
-1.0279902183641496,-1.8451526137991887,7.5867734536643745,-0.44049023768754025
-1.0464417445021414,-1.7880502502557312,7.582368551287499,-0.5203003262764953
-1.0643222470046987,-1.7287530829917483,7.577165548024734,-0.5960684204818606
-1.081609777834616,-1.6672268117075077,7.571204863819915,-0.6678282573962531
-1.098282045951691,-1.6034572422149331,7.564526581245953,-0.7356317459507608
-1.1143166183738404,-1.5374486829493919,7.557170263786445,-0.7995485240700964
-1.1296911052033343,-1.4692222779071022,7.549174778545744,-0.8596652512265118
-1.1443833279824054,-1.3988143195127747,7.540578126033479,-0.9160847171432774
-1.158371471177533,-1.3262745807845513,7.531417278862046,-0.9689248408966213
-1.1716342169853786,-1.2516647001397407,7.52172803045308,-1.0183176254676891
-1.184150863986776,-1.1750566449193525,7.5115448541984025,-1.0644081217193098
-1.1959014304359694,-1.0965312718152938,7.500900772981209,-1.107353443642725
-1.2068667431541225,-1.0161769944087924,7.489827238544782,-1.1473218643126182
-1.2170285130982104,-0.9340885604319958,7.478354019901656,-1.1844920099870684
-1.2263693987025304,-0.8503659345089621,7.466509099801785,-1.219052158756858
-1.23487305804762,-0.7651132762813702,7.454318578214217,-1.2511996405231132
-1.2425241908104336,-0.6784379991499699,7.441806581808986,-1.2811403271755917
-1.2493085708019334,-0.590449891454464,7.42899517853723,-1.3090881958521943
-1.255213069716478,-0.5012602797905206,7.415904296578708,-1.3352649441768851
-1.2602256725143832,-0.4109812132816648,7.402551647136939,-1.359899634403059
-1.2643354846472,-0.3197246478950499,7.388952650792908,-1.383228343362445
-1.2675327311261504,-0.22760161118207578,7.375120367359283,-1.405493796903081
-1.269808747237971,-0.13472132997284542,7.361065429390252,-1.4269449709086677
-1.2711559605376996,-0.04119030636631131,7.346795979681166,-1.4478366457980398
-1.2715678636013628,0.05288866937582991,7.332317613223185,-1.4684289073463832
-1.2710389769076045,0.1474175769293828,7.317633324149721,-1.4889865934642674
-1.2695648011383107,0.24230429941079995,7.302743458215079,-1.509778693918635
-1.2671417581442028,0.3374638334407605,7.287645671275892,-1.5310777175829935
-1.2637671198097953,0.4328195741381782,7.272334894100062,-1.5531590493766547
-1.2594389240684134,0.5283046713023368,7.256803303606295,-1.576300326337371
-1.25415587735539,0.6238634517947185,7.241040300342922,-1.6007808690539478
-1.2479172428374428,0.7194529029176988,7.2250324916523825,-1.6268812108097013
-1.2407227138082657,0.8150442125422033,7.208763679544285,-1.6548827721708412
-1.2325722716828438,0.9106243639704212,7.192214851822577,-1.6850677333975634
-1.2234660280431395,1.0061977871180818,7.175364174488601,-1.7177191610556992
-1.2134040501719587,1.1017880726312352,7.1581869828780444,-1.75312144876049
-1.2023861694456464,1.197439762075016,7.14065576839044,-1.7915611353944814
-1.190411771824896,1.293220235412176,7.122740157036495,-1.8333281678196658
-1.1774795694707743,1.389221726714308,7.104406875358299,-1.8787176795691707
-1.163587352203631,1.4855635105443292,7.085619698562607,-1.928032362882644
-1.1487317170981879,1.5823943148968445,7.066339374933781,-1.9815855194734477
-1.1329077739492195,1.6798950322365902,7.046523519739047,-2.0397048864152842
-1.1161088236268535,1.7782818183671651,7.026126470874894,-2.10273734842739
-1.0983260054431818,1.877809689999225,7.00509909739062,-2.1710546675935456
-1.0795479085431896,1.9787767564143017,6.983388550714685,-2.245060387134316
-1.0597601409790467,2.0815292489300448,6.960937946843342,-2.3251980980812545
-1.0389448484897463,2.18646754410892,6.93768596586253,-2.411961296969971
-1.0170801730486572,2.294053412316949,6.91356635289283,-2.5059051084015276
-0.9941396389254876,2.4048187604299467,6.888507301808815,-2.6076601959266337
-0.9700914513211881,2.519376171449114,6.862430699849549,-2.7179492315781997
-0.944897689606697,2.638431564194587,6.835251207533767,-2.8376063241208835
-0.9185133739647511,2.7627992820607554,6.806875144292558,-2.967599789412283
-0.8908853811441435,2.893419829676559,6.777199146398435,-3.1090585256126286
-0.8619511828473779,3.031380230411127,6.746108561142309,-3.2633019202704805
-0.8316373805432666,3.1779364236383016,6.713475541939604,-3.431872453397997
-0.7998580163068836,3.3345359694105365,6.679156817405624,-3.616568567613804
-0.7665126566127782,3.5028370337122974,6.642991131729486,-3.8194721915503735
-0.7314842862756552,3.6847151655894477,6.604796409813982,-4.0429590953717005
-0.6946371346197607,3.8822408519418685,6.5643668188602655,-4.289668375119614
-0.6558147261003421,4.097594829689285,6.52147013510907,-4.5623850193358955
-0.6148387778034492,4.3328588349353385,6.47584628491571,-4.863748549342071
-0.5715101894540958,4.589568213097241,6.4272087994222895,-5.195628958219957
-0.5256145073231234,4.867831105967436,6.37525250984009,-5.5578965654494406
-0.4769361962634491,5.16471535417604,6.319673544185595,-5.946166708219534
-0.42528904272168866,5.471563093967084,6.2602118771034,-6.348041131689826
-0.3705734117820178,5.77021901797515,6.196731465786502,-6.737822492468039
-0.3128712216022663,6.029547398838355,6.129353240861821,-7.071623387647536
-0.2525757476138828,6.206652534857425,6.058637006985346,-7.289053240064596
-0.19050922226530853,6.259458877400604,5.985746474584699,-7.33081304274885
-0.1279146334913025,6.17010130828825,5.912438344157211,-7.171428629885791
-0.06621362040842,5.960253876550972,5.8407240578583535,-6.840690648058265
-0.0066110816429102714,5.678849544979462,5.772317151377771,-6.40648114004909
0.05017741380688435,5.374514412198509,5.70825233997728,-5.9362949374229546
0.10392255792886944,5.079283966469234,5.648889390603051,-5.4745691325303945
0.1547153975935618,4.808508930419077,5.594143699277747,-5.042588799990566
0.20280048689775254,4.566938571191522,5.543717811277841,-4.646965167795361
0.24846987260966777,4.354054863724929,5.497248159599888,-4.287047096969731
0.29201042124691706,4.167215549899839,5.45437768863019,-3.959278216544577
0.33368257674591545,4.003195496487182,5.414784906464744,-3.6593295403927164
0.3737145317107873,3.8588507912615344,5.378191611060817,-3.3830171576864028
0.41230303962340265,3.7313603078498785,5.344361439483953,-3.1266363898800735
0.44961664270190144,3.6182799384740125,5.313095075585153,-2.887038002066042
0.48579944208664155,3.517521082938168,5.284224695564492,-2.6616004370686364
0.5209746529160232,3.42730361601021,5.257608691193806,-2.4481670679661547
0.5552476890761253,3.3461047648006943,5.233127020514144,-2.244977701497374
0.5887087367241323,3.2726122636174475,5.21067724349917,-2.0506055727747374
0.6214348593603067,3.205684414394325,5.190171187771423,-1.8639031975162514
0.65349170350425,3.144317284339535,5.17153215579626,-1.6839571834419116
0.6849348763476454,3.0876183716372663,5.154692583961841,-1.510050899298347
0.7158110600640181,3.0347858169983875,5.139592074968858,-1.3416335921908518
0.7461589182340019,2.9850922484620126,5.12617573904695,-1.178294603535199
0.7760098407186221,2.937872447453446,5.114392793011598,-1.0197415259916331
0.8053885651931566,2.892514142297607,5.104195377751682,-0.8657813669393444
0.8343137066161327,2.848451342678325,5.095537564082289,-0.7163039973439627
0.862798220042916,2.8051597166276108,5.088374524108849,-0.571267353554868
0.8908498172091921,2.762153580949735,5.0826618505733,-0.43068401979934234
0.9184713530186894,2.718984130337583,5.078355010375306,-0.29460895106808443
0.9456611943220653,2.675238574510593,5.075408920864625,-0.1631282010247956
0.9724135800671713,2.6305398908834476,5.073777638854377,-0.036348599038186186
0.9987189789760057,2.5845469360937385,5.073414152863995,0.08561162398077678
1.0245644483369432,2.5369546956061035,5.074270269103803,0.20263122770384395
1.0499339952930042,2.4874944878454324,5.076296581380841,0.3145933254005986
1.0748089401714587,2.4359339780925136,5.079442514634847,0.42139167370733055
1.0991682799523839,2.382076897009419,5.08365643137192,0.5229358611919507
1.122989048922478,2.3257623978232793,5.08888578998384,0.6191553932085756
1.1462466729007108,2.26686402322602,5.095077343915925,0.7100027011218826
1.168915313132971,2.2052882862492704,5.102177370927143,0.7954551357239618
1.1909681959954637,2.1409728972792146,5.110131922284383,0.8755160340636424
1.2123779249682558,2.073884690935306,5.11888708262502,0.9502149731930762
1.2331167718776088,2.0040173212251005,5.128389232356951,1.0196073416341758
1.2531569450898599,1.9313888012273908,5.138585305773293,1.083773368740541
1.2724708331021337,1.8560389650625702,5.149423039460698,1.142816753515033
1.2910312227527594,1.7780269259837296,5.160851206995849,1.196863028503411
1.3088114920125966,1.6974285962158016,5.172819837280883,1.2460577823159242
1.3257857779747546,1.6143343229453846,5.185280415104042,1.2905648476450624
1.3419291212042084,1.5288466818694957,5.198186063580493,1.3305645419803809
1.3572175880229034,1.4410784560852898,5.211491709000296,1.366252027153664
1.3716283725837564,1.3511508148068354,5.225154229271833,1.3978358327929017
1.3851398807318247,1.2591916941822823,5.239132587599762,1.4255365688900967
1.3977317976736474,1.1653343718923441,5.253387953288663,1.449585834886621
1.4093851413925709,1.0697162185734594,5.267883811637529,1.470225317564311
1.4200823035783054,0.972477602583781,5.282586064813172,1.4877060579604444
1.4298070796041433,0.8737609202291335,5.297463125392777,1.5022878586425052
1.4385446888064346,0.7737097211878372,5.312486003979202,1.5142387969505597
1.446281786018313,0.6724678983329089,5.327628391948707,1.5238348070723877
1.453006465001642,0.5701789122048836,5.3428667400194305,1.5313592937917457
1.4587082541236909,0.46698502275884446,5.358180332957348,1.5371027431079598
1.4633781043512792,0.36302650439571466,5.3735513603884275,1.5413622992872413
1.4670083693952365,0.2584408243843541,5.3889649833813,1.5444412838716743
1.46959277763908,0.15336176928568956,5.404409396220016,1.5466486393333523
1.471126395331937,0.04791850861453109,5.41987588261335,1.54829828801878
1.4716055804180823,-0.05776541054834565,5.435358865493537,1.5497084054024666
1.471027926312599,-0.16357314019120062,5.450855949547562,1.5512006151100022
1.469392194910687,-0.2693956779536029,5.466367955698662,1.5530991213729952
1.4666982381311509,-0.3751330796209206,5.481898946912392,1.5557298022854789
1.4629469073349417,-0.48069573165284835,5.497456244935247,1.5594192942473066
1.4581399500184131,-0.586005677008851,5.51305043787772,1.5644941041734381
1.4522798932483245,-0.6909979877157589,5.528695378919454,1.571279791356745
1.4453699133711668,-0.7956221788744147,5.544408176833022,1.5801002653047374
1.4374136915824227,-0.89984366113023,5.560209179486069,1.5912772495067022
1.4284152549711204,-1.0036452320328686,5.576121951981136,1.605129964075318
1.4183788026507917,-1.1070286111796825,5.592173251621889,1.6219750827607136
1.407308516538995,-1.2100160295856246,5.608393002449496,1.642127022234579
