th1 (rad),w1 (rad/s),th2 (rad),w2 (rad/s),a1 (rad/s^2),a2 (rad/s^2)
5.307017236057566,-2.7978069597153126,0.9005943858554315,-0.29104979738995856,6.15672835852095,-13.289902902399565
5.279039166460413,-2.736239676130103,0.8976838878815319,-0.4239488264139542,6.289609212516542,-12.698734721985266
5.251676769699111,-2.6733435840049373,0.8934443996173923,-0.5509361736338069,6.4530239385984745,-12.101831386087328
5.224943333859062,-2.6088133446189525,0.8879350378810542,-0.6719544874946801,6.642742777540018,-11.499141607891273
5.198855200412872,-2.5423859168435525,0.8812154930061075,-0.7869459035735928,6.854663928102286,-10.891301122171477
5.173431341244436,-2.4738392775625297,0.8733460339703716,-0.8958589147953077,7.084817853202135,-10.279526328534393
5.148692948468811,-2.4029910990305083,0.8643874448224185,-0.9986541780806516,7.329379236889125,-9.665512812399031
5.124663037478506,-2.329697306661617,0.854400903041612,-1.095309306204642,7.58468372405071,-9.051339406102056
5.10136606441189,-2.25385046942111,0.8434478099795656,-1.1858227002656625,7.847247010495526,-8.439378646083467
5.078827559717679,-2.175377999316155,0.831589582976909,-1.2702164867264971,8.113784306640452,-7.832214477351643
5.057073779724517,-2.09424015624975,0.818887418109644,-1.3485386315000136,8.381228655399301,-7.232567904865764
5.036131378162019,-2.010427869695757,0.8054020317946439,-1.4208643105486713,8.646747023071793,-6.64323104664652
5.016027099465061,-1.9239603994650392,0.7911933886891571,-1.4872966210151366,8.90775348091603,-6.067009755915608
4.996787495470411,-1.8348828646558788,0.7763204224790058,-1.5479667185742927,9.161919138317261,-5.506674692877544
4.978438666823852,-1.7432636732727063,0.7608407552932629,-1.603033465503068,9.407178765429133,-4.964920474476525
4.9610060300911245,-1.649191885618415,0.7448104206382322,-1.6526826702478332,9.641734249752774,-4.444332334889656
4.94451411123494,-1.5527745431208873,0.7282835939357539,-1.6971259935967298,9.864055169479013,-3.947359601753269
4.928986365803731,-1.4541339914260971,0.7113123339997867,-1.7365995896142625,10.072876843911848,-3.4762952343162605
4.914445025889471,-1.3534052229869786,0.693946338103644,-1.771362541957425,10.267196248972771,-3.033260673166841
4.900910973659601,-1.250733260497251,0.6762327126840698,-1.8016951486890935,10.446266176700243,-2.6201953048146986
4.888403641054628,-1.1462705987302486,0.6582157611971788,-1.8278971017372405,10.609587985204396,-2.2388499333308842
4.876940935067326,-1.0401747188782047,0.6399367901798064,-1.8502856010705493,10.756903242091278,-1.8907837600198856
4.866539187878544,-0.9326056864572919,0.621433934169101,-1.869193438670748,10.888184520287247,-1.5773644865944958
4.857213131013971,-0.8237238412544194,0.6027419997823935,-1.884967083536693,11.003625568213629,-1.2997712660187624
4.848975892601427,-0.7136875855722832,0.5838923289470266,-1.8979647961968806,11.103631051316443,-1.0590003198900886
4.841839016745704,-0.6026512750591188,0.5649126809850578,-1.9085547993957814,11.1888060513174,-0.8558731173174107
4.835812503995112,-0.49076321454594474,0.5458271329911,-1.9171135305689555,11.259945513228603,-0.6910470664543483
4.830904871849652,-0.3781637594136587,0.5266559976854104,-1.924024001233499,11.318023846478589,-0.5650287077594969
4.827123234255516,-0.2649835209488728,0.5074157576730753,-1.929674288311094,11.364184912689531,-0.4781894214603282
4.824473399046027,-0.15134167182197747,0.4881190147899644,-1.9344561825256972,11.39973266556205,-0.4307836757932599
4.822959982327807,-0.03734434516635697,0.46877445296470743,-1.9387640192836297,11.426122744946674,-0.4229698532819068
4.822586538876143,0.07691688228310978,0.44938681277187115,-1.9429937178164487,11.44495536508601,-0.45483370555725056
4.823355707698974,0.19136643593396988,0.42995687559370666,-1.9475420548720213,11.457969874682874,-0.526414508548565
4.825269372058314,0.3059461346807986,0.41048145504498645,-1.9528061999575068,11.467041403440433,-0.6377340240449547
4.828328833405123,0.42061654871520293,0.3909533930454114,-1.9591835401979563,11.474180046676842,-0.7888284244548325
4.832534998892275,0.5353583491819713,0.3713615576434318,-1.9670718244425045,11.481533078164073,-0.9797834078622812
4.837888582384094,0.6501736799636121,0.35169083939900675,-1.9768696585211274,11.491390723849205,-1.2107728219400316
4.844390319183731,0.7650875872021041,0.33192214281379545,-1.9889773867405278,11.506196078338009,-1.4821012285823427
4.852041195055752,0.8801495479854842,0.3120323689463902,-2.0037983990263513,11.52855980456266,-1.7942509756170637
4.860842690535606,0.9954351460311108,0.2919943849561267,-2.021740908782522,11.561280326613943,-2.147934495126099
4.8707970419959175,1.1110479492972503,0.27177697586830146,-2.043220253733783,11.607370305900224,-2.5441527141694564
4.88190752148889,1.2271216523562525,0.2513447733309636,-2.0686617808754777,11.67009027723547,-2.984260632135276
4.894178738012453,1.3438225551286072,0.23065815552220884,-2.0985043871968303,11.752990402694742,-3.4700412690784295
4.907616963563739,1.4613524591555547,0.20967311165024052,-2.1332047998876145,11.859961353274974,-4.003789283995411
4.922230488155295,1.5799520726883045,0.18834106365136438,-2.1732426927275688,11.995295306345689,-4.588405534240824
4.938030008882178,1.6999050257517614,0.16660863672408868,-2.219126748069977,12.163757868505433,-5.227503579093273
4.9550290591396955,1.8215426044368157,0.1444173692433889,-2.2714017838609095,12.370671253215788,-5.92552841469089
4.973244485184064,1.9452493169689735,0.12170335140477981,-2.3306570680078185,12.622008005393015,-6.687886203118172
4.992696978353753,2.071469397022904,0.09839678072470162,-2.397535930039,12.924492526760567,-7.521080798156296
5.013411672323982,2.2007143222905095,0.07442142142431163,-2.4727467380205628,13.285703844745733,-8.432847386585014
5.035418815546887,2.3335713607379667,0.049693954044106,-2.557075211886413,13.7141661461159,-9.4322636727718
5.058754529154267,2.4707130221991256,0.02412320192524187,-2.651397848614131,14.219401246650708,-10.529801474042301
5.083461659376258,2.612907034665633,-0.002390776560899442,-2.756695863354554,14.811895384124464,-11.737250731281073
5.109590729722915,2.7610259885068773,-0.029957735194444984,-2.874068370667365,15.502894617408794,-13.067394092877457
5.137200989607984,2.9160549346809654,-0.05869841890111864,-3.00474231159614,16.303876983762507,-14.533216950234513
5.166361538954794,3.0790937045185904,-0.08874584201708004,-3.150074481098485,17.225435946202314,-16.146277743695013
5.19715247599998,3.2513480639806134,-0.12024658682806488,-3.3115372585354352,18.275117556410795,-17.91359297374743
5.229665956639786,3.434099239544721,-0.15336195941341924,-3.4906731882729094,19.453437991702515,-19.83194718881143
5.264006949035233,3.6286336194617466,-0.18826869129614832,-3.688992660161024,20.746815827363147,-21.87784603593548
5.30029328522985,3.836101777735378,-0.22515861789775854,-3.907771120520379,22.115464972539776,-23.990362849840007
5.338654303007204,4.057256427460776,-0.26423632910296235,-4.147674749018779,23.47356783688961,-26.043109057687495
5.379226867281812,4.291992105829672,-0.30571307659315017,-4.408105839595654,24.65902639388254,-27.801531010474477
5.422146788340108,4.5385823697684975,-0.3497941349891067,-4.686121149700399,25.39302017540119,-28.86586700349645
5.467532612037793,4.79251257152251,-0.3966553464861107,-4.974779819735363,25.240642912657574,-28.615653295991027
5.515457737753018,5.044919000649085,-0.44640314468346437,-5.260936352695273,23.6107239848001,-26.209473272567923
5.565906927759509,5.281026240497086,-0.4990125082104171,-5.523031085420953,19.87429805530621,-20.751944509700984
5.61871719016448,5.479769221050148,-0.5542428190646266,-5.730550530517962,13.689541525554521,-11.751860937987338
5.673514882374981,5.616664636305694,-0.6115483243698062,-5.848069139897835,5.472900427231268,0.2128825069395408
5.729681528738038,5.671393640578006,-0.6700290157687846,-5.8459403148284395,-3.3831436422267323,13.185610720140978
5.786395465143817,5.6375622041557385,-0.728488418917069,-5.71408420762703,-11.027723905750824,24.555473128080934
5.842771087185374,5.5272849650982305,-0.7856292609933393,-5.46852947634622,-16.163796778735406,32.47981231236752
5.898043936836356,5.3656469973108765,-0.8403145557568015,-5.143731353222545,-18.597945798576653,36.66062625523667
5.951700406809465,5.17966753932511,-0.8917518692890269,-4.777125090670179,-18.938110518729637,37.92606111134474
6.003497082202716,4.990286434137814,-0.9395231201957287,-4.397864479556731,-17.99509451567665,37.39429375286846
6.053399946544094,4.810335488981047,-0.983501764991296,-4.023921542028047,-16.42097131666108,35.96677560561409
6.101503301433905,4.646125775814436,-1.0237409804115765,-3.664253785971906,-14.63043705933598,34.21646765921379
6.147964559192049,4.499821405221076,-1.0603835182712955,-3.3220891093797684,-12.85079566407082,32.45607343340595
6.19296277324426,4.371313448580368,-1.0936044093650932,-2.997528375045709,-11.19154314668606,30.834129359037156
6.2366759077300635,4.259398017113508,-1.1235796931155502,-2.6891870814553376,-9.696617321748153,29.40731157261247
6.279269887901199,4.162431843896027,-1.1504715639301035,-2.395113965729213,-8.376501962896644,28.18491351386036
6.320894206340159,4.07866682426706,-1.1744227035873958,-2.113264830590609,-7.226110181140953,27.153661914109023
6.36168087458283,4.006405722455651,-1.1955553518933018,-1.841728211449519,-6.234157082223124,26.290772531597216
6.401744931807387,3.9440641516334196,-1.213972634007797,-1.5788204861335469,-5.387816130362762,25.570501293803048
6.441185573323721,3.890185990329792,-1.2297608388691323,-1.3231154731955164,-4.674870625624324,24.96725560369757
6.480087433227019,3.843437284073549,-1.2429919936010876,-1.0734429171585407,-4.084573461165798,24.456947934499585
6.5185218060677546,3.8025915494618907,-1.253726422772673,-0.8288734378135448,-3.607860006711454,24.017485824635227
6.5565477215623735,3.766512949394776,-1.2620151571508085,-0.5886985795671926,-3.237250405956628,23.628863498732265
6.594212851056321,3.73414044533521,-1.2679021429464803,-0.35240994457986996,-2.9666141458066644,23.27309194534448
6.631554255509673,3.7044743038771433,-1.271426242392279,-0.11967902512642517,-2.7908845450752096,22.934083885201524
6.668598998548445,3.676565458426391,-1.2726230326435433,0.10966181372559008,-2.705767011865113,22.597546913186168
6.705364653132709,3.64950778830774,-1.2715264145062875,0.33563728285745176,-2.7074627985492272,22.250905124834386
6.741859731015786,3.6224331603222475,-1.2681700416777129,0.5581463341057956,-2.7924190642991604,21.8832525116633
6.778084062619009,3.594508969679256,-1.2625885783366548,0.7769788592224286,-2.9571107887519212,21.485332906258837
6.814029152315802,3.5649378617917367,-1.2548187897444305,0.991832188285017,-3.1978575333931474,21.04953742417482
6.84967853093372,3.532959286457805,-1.2449004678615803,1.202327562526765,-3.510676685939646,20.569909179215347
6.885008123798298,3.4978525195984087,-1.2328771922363126,1.4080266543189186,-3.8911738763177763,20.042145471234846
6.919986648994282,3.458940780835231,-1.2187969256931235,1.608448109031267,-4.334470374576394,19.463589046497848
6.954576056802634,3.4155960770894667,-1.2027124446028108,1.8030839994962455,-4.835166364627571,18.833202004564477
6.988732017573529,3.367244413443191,-1.1846816046078483,1.9914160195418904,-5.387338056847034,18.151518160073817
7.022404461707961,3.313371032874721,-1.1647674444124294,2.1729312011426285,-5.984565740788774,17.420571899275373
7.055538172036708,3.253525375466833,-1.143038132401003,2.347136920135382,-6.619989180645848,16.643803581042537
7.088073425791376,3.1873254836603744,-1.1195667631996493,2.513574955945807,-7.28638629142103,15.825943159449606
7.119946680627979,3.114461620746164,-1.0944310136401914,2.6718343875403034,-7.976270830724507,14.972874861684796
7.151091296835441,3.034698912438919,-1.0677126697647883,2.8215631361571516,-8.682004878237269,14.091486433026375
7.18143828595983,2.9478788636565465,-1.0394970384032167,2.9624780004874154,-9.395922088474224,13.189506726016958
7.210917074596395,2.853919642771804,-1.0098722583983426,3.094373067747585,-10.110458003534335,12.275335385143727
7.239456271024113,2.752815062736461,-0.9789285277208668,3.2171264215990223,-10.818284009137349,11.357868208740884
7.266984421651478,2.6446322226450873,-0.9467572635048765,3.330705103686431,-11.512441737173395,10.446321597495597
7.293430743877929,2.5295078052733535,-0.9134502124680123,3.435168319661387,-12.186474826064508,9.55005942914283
7.318725821930663,2.4076430570127085,-0.8790985292713984,3.5306689139528156,-12.83455495682771,8.67842578136886
7.34280225250079,2.2792975074444315,-0.8437918401318703,3.6174531717665044,-13.451599041489201,7.8405871470579385
7.365595227575234,2.1447815170295397,-0.8076173084142052,3.6958590432370837,-14.033374436063546,7.045388080392773
7.387043042745529,2.0044477726689043,-0.7706587179818344,3.7663129240410114,-14.576589178839352,6.301224475813386
7.407087520472218,1.8586818808805108,-0.7329955887414242,3.829325168799145,-15.078964601634121,5.615938801805235
7.425674339281023,1.7078922348641696,-0.6947023370534328,3.8854845568171976,-15.539288281565296,4.996741493177886
7.442753261629664,1.5524993520485166,-0.6558474914852608,3.9354519717489764,-15.95744620371133,4.450162294627794
7.45827825515015,1.3929248900114033,-0.616492971767771,3.9799535946952544,-16.334434151623064,3.982034644293867
7.472207504050264,1.2295805484951727,-0.5766934358208184,4.019773941138193,-16.6723496497925,3.597515242947886
7.484503309535215,1.0628570519972478,-0.5364956964094365,4.055749093567671,-16.974367135826512,3.3011398710227216
7.495131880055188,0.8931133806389826,-0.4959382054737598,4.088760492277899,-17.244700312819543,3.096915414846413
7.504063013861577,0.7206663775107871,-0.4550506005509808,4.1197296464263635,-17.48855670077335,2.988447066540936
7.511269677636685,0.5457808105030536,-0.41385330408671717,4.149614117091773,-17.712090162132608,2.9790988601668285
7.516727485741716,0.3686599088817275,-0.37235716291579946,4.179405105693442,-17.922357530445986,3.0721851312826156
7.5204140848305325,0.18943633357726763,-0.33056311185886506,4.210126957006268,-18.127285337726516,3.2711900781252576
7.522308448166306,0.008163480200002488,-0.2884618422888024,4.24283885778752,-18.335651903378622,3.5800121679448624
7.522390082968306,-0.17519303883378373,-0.2460334537109272,4.278638979466969,-18.557088518214833,4.0032292840041075
7.520638152579968,-0.36076392401593205,-0.2032470639162575,4.31867127230701,-18.802100748866046,4.546378553283011
7.517030513339809,-0.5487849315045925,-0.1600603511931874,4.36413505783984,-19.082106267200658,5.216240529640965
7.511542664024763,-0.7396059941765991,-0.11641900061478899,4.4162974631362495,-19.409477708624863,6.021108754353947
7.5041466040829965,-0.9337007712628478,-0.0722560259834265,4.476508550679789,-19.797565393764238,6.971009061899099
7.494809596370368,-1.13167642520049,-0.027490940476628603,4.54621864129878,-20.26065085592394,8.07780202128223
7.483492832118364,-1.3342829337597295,0.017971245936359195,4.626996661511602,-20.81374012714289,9.355045526340078
7.470150002780766,-1.5424203350311585,0.06424121255147522,4.720547116775003,-21.4720319061542,10.817393480810422
7.454725799430454,-1.7571406540927006,0.11144668371922525,4.828721051583107,-22.24976655588817,12.479127712513314
7.437154392889527,-1.9796383196515823,0.15973389423505632,4.95351232870824,-23.15793860688493,14.351109007615236
7.417358009693011,-2.211217705720432,0.20926901752213872,5.097023418784392,-24.1999787896907,16.43490531905665
7.395245832635807,-2.453217493617339,0.26023925170998263,5.261372471974958,-25.36390547931881,18.712001488004177
7.370713657699633,-2.706856548410527,0.3128529764297322,5.448492486855,-26.60856036637908,21.124740111087036
7.343645092215527,-2.972942152074318,0.3673379012982822,5.65973988796587,-27.840529595782492,23.54418657317946
7.313915670694784,-3.251347448032143,0.4239353001779409,5.895181753697664,-28.87808389625992,25.71965739166332
7.281402196214462,-3.540128286994742,0.48288711771491755,6.152378327614297,-29.401817522368624,27.209190965111237
7.246000913344515,-3.834146462218428,0.5444109009910605,6.4244702372654094,-28.905591429143918,27.3095199399461
7.207659448722331,-4.123202376509867,0.6086556033637146,6.6975654366648705,-26.696837419544096,25.05353703438684
7.166427424957233,-4.390170750705308,0.6756312577303634,6.948100807008739,-22.051020672602533,19.421403885312163
7.12252571745018,-4.610680957431334,0.7451122658004508,7.14231484586186,-14.632402353342366,9.922732443514793
7.076418907875866,-4.757004980964758,0.8165354142590694,7.241542170297008,-5.075677544034402,-2.594974401937541
7.028848858066219,-4.807761756405101,0.8889508359620395,7.215592426277633,4.836030022466437,-15.696000208129488
6.980771240502168,-4.759401456180437,0.9611067602248158,7.058632424196338,12.962032683194652,-26.449261637856644
6.933177225940364,-4.6297811293484905,1.031693084466779,6.794139807817771,18.04412167546625,-33.140072515368274
6.886879414646879,-4.449339912593828,1.0996344825449569,6.462739082664089,20.151087781200193,-35.87592529445609
6.84238601552094,-4.247829034781827,1.1642618733715977,6.103979829719528,20.127688691259785,-35.819313653728095
6.799907725173122,-4.046552147869229,1.225301671668793,5.7457866931822466,18.892537128114732,-34.22161411659718
6.759442203694429,-3.8576267765880816,1.2827595386006154,5.403570552016275,17.111565916311758,-31.98031673072568
6.720865935928549,-3.686511117424964,1.3367952441207782,5.083767384709018,15.17661179270569,-29.615584515375996
6.684000824754299,-3.534744999497907,1.3876329179678684,4.787611539555258,13.28717511136598,-27.38571490884129
6.64865337475932,-3.401873248384247,1.435509033363421,4.513754390466845,11.53047196682963,-25.397940695725293
6.614634642275478,-3.286568528715951,1.4806465772680895,4.259774983509592,9.93478557355038,-23.681422464551382
6.581768956988318,-3.1872206729804473,1.5232443271031855,4.022960758864079,8.500026157078567,-22.228575451787037
6.5498967502585135,-3.1022204114096614,1.5634739346918263,3.8006750043462083,7.213903865317701,-21.016622660258626
6.518874546144417,-3.0300813727564844,1.6014806847352883,3.590508777743622,6.060039727025154,-20.018175571656194
6.488573732416852,-2.969480975486233,1.6373857725127245,3.3903270220270603,5.021819423303728,-19.206083416270914
6.45887892266199,-2.9192627812531957,1.6712890427329952,3.198266187864351,4.084079740105314,-18.555404224155172
6.429686294849458,-2.8784219838521428,1.7032717046116386,3.012712145622799,3.23372613388949,-18.0439837247431
6.400902075010936,-2.8460847225132477,1.7333988260678665,2.832272308375368,2.4598443004662163,-17.652396214345377
6.372441227785804,-2.8214862795085858,1.7617215491516203,2.6557483462319142,1.7535883589962296,-17.363622195024497
6.344226364990718,-2.8039503959186236,1.7882790326139395,2.4821121242816693,1.1079838921985492,-17.162644592253244
6.3161868610315315,-2.7928705569966383,1.8131001538567562,2.3104856783591368,0.517710459363987,-17.036048576782118
6.288258155461565,-2.7876934524029986,1.8362050106403476,2.1401251925913156,-0.021108953210168733,-16.971662344038172
6.260381220937536,-2.7879045419351,1.8576062625662608,1.9704085691509339,-0.5111024939768896,-16.95825338048492
6.232502175518184,-2.793015566874869,1.8773103482577702,1.8008260353460848,-0.9538277555917548,-16.98528432909705
6.204572019849436,-2.8025538444307863,1.895318608611231,1.6309731920551143,-1.3499373824288734,-17.042728166664272
6.176546481405127,-2.816053218255075,1.9116283405317822,1.4605459103884715,-1.6993367377532467,-17.120940728471304
6.148385949222576,-2.8330465856326077,1.9262337996356669,1.2893365031037585,-2.0013381940882864,-17.210587953954416
6.12005548336625,-2.8530599675734907,1.9391271646667045,1.1172306235642142,-2.254815605143893,-17.302624702714073
6.091524883690515,-2.8756081236249296,1.9502994709023467,0.9442043765370735,-2.4583610217320064,-17.388321178187734
