th1 (rad),w1 (rad/s),th2 (rad),w2 (rad/s)
2.5862523800311132,-1.6733606639943692,4.23326471889607,-0.3613215578006346
2.5695187733911697,-1.72227245048418,4.229651503318063,-0.30600078116614593
2.552296048886328,-1.7725068149843144,4.226591495506402,-0.2532252130495114
2.534570980736485,-1.8240667455432071,4.224059243375907,-0.20314009606043856
2.5163303132810526,-1.8769662666745832,4.2220278424153035,-0.15589668081637115
2.497560650614307,-1.9312310031004996,4.22046887560714,-0.11165286338051558
2.478248340583302,-1.9868987433817784,4.219352346973335,-0.07057394844113266
2.458379353149484,-2.0440200018036183,4.218646607488924,-0.032833539860142806
2.437939153131448,-2.1026585763021917,4.218318272090323,0.0013854424944702015
2.416912567368426,-2.1628920991880367,4.218332126515268,0.0318896240093791
2.3952836463765457,-2.224812575817556,4.2186510227553615,0.05847392307541602
2.37303552061837,-2.288526904040608,4.219235761986115,0.08092019866020207
2.350150251577964,-2.354157364046653,4.220044963972717,0.09899581713883618
2.3266086779374975,-2.4218420639615514,4.2210349221441055,0.11245216537610442
2.302390257297882,-2.4917353210112814,4.2221594437978665,0.12102314642224209
2.277472904087769,-2.5640079510529916,4.223369675262089,0.1244237057684242
2.251832824577239,-2.6388474305584775,4.224613912319773,0.12234845035684548
2.2254443502716543,-2.716457884511692,4.225837396823342,0.11447043992476683
2.198279771426537,-2.7970598409787852,4.226982101222589,0.10044025123841493
2.1703091730167494,-2.8808896782324878,4.227986503734973,0.07988544072177522
2.1415002762344244,-2.9681986733055625,4.228785358142191,0.05241056012059908
2.1118182895013686,-3.0592515419740245,4.229309463743397,0.017597913077514772
2.0812257740816285,-3.154324340025023,4.229485442874172,-0.02499072273730646
2.049682530681378,-3.2537015753151404,4.229235535646799,-0.07581114428177635
2.017145514928227,-3.357672361282706,4.228477424203981,-0.13533223997222968
1.9835687913153999,-3.4665254277790316,4.227124101804259,-0.20402963684992198
1.9489035370376095,-3.580542797864026,4.22508380543576,-0.2823771141278667
1.9130981090589694,-3.699991944222456,4.2222600342944805,-0.37083540955873073
1.8760981896167448,-3.8251162618486623,4.218551680198893,-0.4698380615403078
1.837847026998258,-3.956123741219768,4.21385329958349,-0.5797739839703486
1.7982857895860604,-4.093173805167478,4.208055559743786,-0.700966575362559
1.7573540515343857,-4.236362389034844,4.201045893990161,-0.8336493311544264
1.7149904276440373,-4.38570550087506,4.192709400678616,-0.9779381682027126
1.6711333726352866,-4.541121695004282,4.182930018996589,-1.1338009865272045
1.6257221556852437,-4.7024141193319124,4.171592009131317,-1.3010253779660765
1.5786980144919245,-4.869253035901714,4.158581755351656,-1.4791858216640847
1.5300054841329074,-5.041159935148643,4.143789897135015,-1.6676121404305666
1.479593884781421,-5.217494527359712,4.1271137757307095,-1.865361368718019
1.4274189395078238,-5.397445953486653,4.10846016204353,-2.0711954259992886
1.3734444799729573,-5.580029467692114,4.0877482077835365,-2.283567018301388
1.317644185296036,-5.764089575540932,4.064912537600523,-2.5006159385855358
1.2600032895406268,-5.948310161069995,4.039906378214668,-2.7201773712698127
1.2005201879299268,-6.131231536694063,4.01270460450197,-2.9398029497833873
1.1392078725629862,-6.311273675816677,3.9833065750041357,-3.1567942565095595
1.0760951358048194,-6.486764245199172,3.95173863243904,-3.3682473405436566
1.0112274933528278,-6.6559695615865815,3.9180561590336036,-3.571105846370066
0.944667797736962,-6.817126359635507,3.882345100569903,-3.762219680165251
0.8764965341406069,-6.968472339541374,3.8447229037682504,-3.9384059282165906
0.8068118107451931,-7.108273867554708,3.8053388444860845,-4.096509039992503
0.7357290720696461,-7.234849873843351,3.7643737540861593,-4.2334580545441804
0.6633805733312126,-7.3465918249425695,3.7220391735407174,-4.346319751485211
0.5899146550817869,-7.441980513667299,3.6785759760258654,-4.432347854704995
0.5154948499451139,-7.519601181179481,3.6342524974788155,-4.4890295938315425
0.44029883813331905,-7.5781590575361015,3.5893622015405002,-4.514131832570176
0.364517247557958,-7.616497698448768,3.5442208832147983,-4.505749434461719
0.28835227057347035,-7.633622448322802,3.499163388870181,-4.46235842507311
0.21201604609024233,-7.6287309253067805,3.45453980461945,-4.382875734075674
0.1357287368371745,-7.60125156127855,3.4107110472786935,-4.26672581288439
0.05971622122438901,-7.5508899110349486,3.3680437891498496,-4.113912238174075
-0.015792677885960477,-7.477680686296903,3.326904666768109,-3.9250896490752814
-0.09056948474892951,-7.382041378692223,3.2876537702773563,-3.7016283132899694
-0.16438989853585173,-7.264821164919313,3.2506374871444565,-3.445660784838474
-0.23703811018504486,-7.127336970203397,3.216180879296072,-3.160098246079938
-0.30831147988707885,-6.971387690545465,3.1845798968352725,-2.848604102775332
-0.3780253567925335,-6.799238260035144,3.1560938558075193,-2.515515018136165
-0.44601773939288497,-6.613567925499137,3.1309387056261575,-2.165705184068106
-0.5121534186478763,-6.417381726021922,3.1092816537854766,-1.804397785279758
-0.5763272359080955,-6.213890088503803,3.091237675932679,-1.4369368828047737
-0.6384661367931336,-6.0063673475774175,3.076868307104631,-1.068541119038693
-0.6985298102689077,-5.798004308723548,3.066182895914244,-0.7040653830304062
-0.7565098533561432,-5.591771408664834,3.05914224208394,-0.34779627376215666
-0.8124275674427915,-5.390307109088769,3.0556642793463187,-0.0033017135586015933
-0.8663306385336792,-5.195841441696623,3.0556312622107327,0.3266541633019787
-0.9182890529506454,-5.010158468632958,3.0588978038437524,0.6401301990331729
-0.9683906376369751,-4.834595460664063,3.065299105834084,0.9359699704027415
-1.0167365922436158,-4.670072131395079,3.0746588055381117,1.2137206095643567
-1.0634373135575665,-4.517140926104275,3.0867960116337554,1.4735254477458852
-1.1086087228186092,-4.376049074137488,3.1015312661112144,1.7160062735224817
-1.1523692135599841,-4.246804327296865,3.118691328846439,1.9421479213553137
-1.1948372568329528,-4.129238312856465,3.1381128080599923,2.153193959925972
-1.2361296399615176,-4.0230636012503735,3.159644747659252,2.350558416859098
-1.2763602759740214,-3.9279225034165375,3.183150331827843,2.5357553411818095
-1.3156395010081867,-3.843427067652714,3.208507885239661,2.7103457807958424
-1.3540737716847138,-3.7691907037060988,3.2356113430476197,2.8759003943388213
-1.3917656787217747,-3.704852382674125,3.264370346991008,3.0339752448965225
-1.428814202548516,-3.650094542088917,3.294710099439973,3.1860981157093553
-1.465315147969405,-3.6046557598846527,3.3265710805970663,3.333762736867984
-1.5013617055682515,-3.5683390169385905,3.359908707965746,3.478428441833837
-1.5370450957376374,-3.541015978104466,3.3946929923840843,3.6215228388855416
-1.572455255518682,-3.5226271784301724,3.4309082207729396,3.764444955363402
-1.6076815273029836,-3.5131772522535862,3.4685526703265737,3.9085658534029237
-1.6428132998255196,-3.5127232844105367,3.507638328860603,4.0552227508815095
-1.677940532669625,-3.521352831472474,3.548190556369418,4.205700975041654
-1.7131540609843499,-3.53914593177513,3.5902475661198348,4.361195317387517
-1.7485455203021012,-3.5661122389488873,3.63385951929371,4.522738191771332
-1.7842066426915901,-3.60209011036688,3.679086901211423,4.691076189457056
-1.8202275437952589,-3.646589353131166,3.7259976631059937,4.866469563600026
-1.8566934373265704,-3.6985550225474815,3.774662358741994,5.048383108692907
-1.8936789875520452,-3.7560310533054544,3.825146189828923,5.235038538386674
-1.9312392980850999,-3.8157208045056095,3.8774965752127897,5.422823345045017
-1.969396506130156,-3.8724973060655876,3.93172480866324,5.605627716800401
-2.008121479190812,-3.9190340847705323,3.987781085831244,5.774344223001816
-2.047311820038517,-3.945905825705297,4.045524528061262,5.917011944885493
-2.08677087829557,-3.942639878126639,4.104694647510117,6.020268960392384
-2.1261972770768365,-3.9000043605970403,4.1648973371140405,6.072504704405049
-2.165197320682807,-3.8130242392369946,4.225622384158091,6.067999934524662
-2.203327563075177,-3.683172233082075,4.286302383503338,6.009897745739535
-2.2401592854059977,-3.518116055901018,4.346401360960733,5.90977695595062
-2.275340445965008,-3.328994067777844,4.405499130520239,5.783825176543009
-2.308630386642786,-3.1269732284366882,4.463337382285669,5.648072282889432
-2.339900118927153,-2.920908721461844,4.519818105114563,5.515200683061085
-2.3691092061417716,-2.716619970945478,4.5749701119451744,5.393614065020269
-2.3962754058512266,-2.5172523523061012,4.628906252595377,5.288000404476699
-2.4214479293742874,-2.324022997707389,4.6817862566401445,5.200405708915129
-2.444688159351361,-2.136928094237021,4.733790313729296,5.131234804886135
-2.4660574402937314,-1.9552671893783213,4.785102661778157,5.079985283825484
-2.4856101121875147,-1.777984688721454,4.835902514616412,5.045720527455385
-2.5033899590747293,-1.60387440455613,4.886359719890965,5.027348993462177
-2.5194287031202904,-1.4316941230404363,4.936633209825587,5.023776728584406
-2.5337456443506947,-1.2602254314206585,4.986870977111431,5.033982689837687
-2.5463478986649015,-1.088302091850161,5.037210804009807,5.057049239393515
-2.5572309195834033,-0.9148213757587682,5.087781296403742,5.092167536597423
-2.566379133340991,-0.7387469602902004,5.138702971769717,5.138629315308998
-2.573766602943893,-0.559108415464472,5.190089264922807,5.195811490405912
-2.579357687098538,-0.3750001937597556,5.242047379826866,5.263157059446321
-2.5831076890361353,-0.18558180701534183,5.294678950421329,5.340154056323291
-2.5849635071062886,0.009919828702889405,5.348080490984563,5.426313364752473
-2.5848643088192595,0.2122053096592537,5.4023436246320875,5.521145704435161
-2.582742255722667,0.42189460745226504,5.457555081676439,5.624137884265126
-2.5785233096481446,0.6395157511739161,5.513796460519091,5.734728375447337
-2.5721281521364054,0.8654903758489455,5.571143744273564,5.852282338693401
-2.563473248377916,1.1001163806484142,5.6296665676604976,5.976066414350177
-2.552472084571432,1.3435481803760454,5.689427231803999,6.105223834195652
-2.5390366027676716,1.5957753271596928,5.750479470145956,6.238750721927665
-2.5230788494960747,1.8566006228180458,5.812866977365233,6.375474793048522
-2.5045128432678943,2.1256192166329777,5.876621725295718,6.514038008427927
-2.4832566511015646,2.4022005495447676,5.941762105379997,6.652885027122919
-2.459234645606117,2.6854753043353474,6.008290955651226,6.790259473255867
-2.4323798925627633,2.974329673412925,6.076193550383785,6.92420999595874
-2.402636595828634,3.2674091719791747,6.145435650343372,7.05260777633659
-2.3699625041088423,3.5631338210967605,6.215961728106738,7.173176455702953
-2.3343311658978747,3.8597257490316506,6.2876934926637675,7.283534405354115
-2.2957339084075583,4.155249115281979,6.360528836717308,7.381247884067313
-2.2541814172547383,4.447660838184027,6.434341315557981,7.463892083019138
-2.209704808872898,4.734869085361513,6.508980236388172,7.529115579482571
-2.1623561180192827,5.014795125861552,6.584271392182998,7.574702613315736
-2.1122081667606674,5.285433235225922,6.660018418316156,7.598627167141437
-2.0593538344084084,5.544903144376514,6.7360046899875705,7.59909329442019
-2.003904802964643,5.791490172320322,6.811995622931772,7.574557563940797
-1.94598990124144,6.023669657509173,6.88774119857118,7.523731739489917
-1.885753204666348,6.240114403521191,6.962978515966079,7.445566568409984
-1.8233520606311362,6.439686248283109,7.0374341816501795,7.339220375254959
-1.7589551981483051,6.621415166936525,7.110826385402729,7.204018597271705
-1.6927410464789399,6.784471180048688,7.182866571375445,7.039412093883333
-1.624896334678453,6.92813552048336,7.253260692314279,6.844942794415757
-1.5556149794736194,7.051777901175608,7.3217101202584365,6.620224944628279
-1.4850972004618632,7.154846313893226,7.387912369704719,6.364948900253015
-1.413548737322931,7.236874621160004,7.451561858707249,6.078912157402117
-1.341179991111331,7.297511331031518,7.51235098028127,5.762079160836091
-1.2682048778010158,7.33657040766413,7.569971771889631,5.414667449874583
-1.1948391737243744,7.354101831361476,7.624118446388377,5.037253025233991
-1.1212981554107597,7.3504760437801995,7.674490976640717,4.630882792787484
-1.0477933949729576,7.32647276636638,7.720799804568592,4.197177246454355
-0.9745286673092939,7.283361610520299,7.762771577033135,3.7384032685264668
-0.9016950512040909,7.222960302588918,7.8001556097183995,3.2574963912322246
-0.8294654481782017,7.147657173364124,7.832730573630721,2.758015301945143
-0.7579888764445605,7.0603884433827435,7.860310726650173,2.244019306307923
-0.687384992010733,6.964567663498669,7.882750919713252,1.7198711198894383
-0.6177393153757463,6.863973328371654,7.899949630912146,1.1899804486802361
-0.5490995820920298,6.762609173287521,7.911849435398948,0.6585149573618561
-0.4814734903591546,6.664557721979912,7.918434584972567,0.1291110391337249
-0.41482791313935546,6.573849604485769,7.919725695363904,-0.39538471525296526
-0.34908941709449776,6.494368652508535,7.915771848211374,-0.9131210385472762
-0.2841457305694124,6.429806913942525,7.906640637825902,-1.423385402780907
-0.21984766142998713,6.383676582142869,7.8924067837980925,-1.9266905004448018
-0.15601089560855844,6.3593795769193315,7.873139878793644,-2.424820980874516
-0.09241709983936512,6.360331600936344,7.848891668984899,-2.9208654049929295
-0.028813783830001688,6.390136218161658,7.819683014934969,-3.419261341451636
0.035087578351614884,6.45280479171,7.785490401520453,-3.9258796955841877
0.09961562626871488,6.55301713908525,7.746231604564611,-4.448166524600363
0.16514579765956738,6.696409312143652,7.701749939318607,-4.9953408755843
0.2321098907810039,6.889844669080868,7.651796530562764,-5.578597705001964
0.3010083374718126,7.141537527659542,7.596010553512745,-6.2111382671158495
0.372423712748408,7.46066970120854,7.533899170841586,-6.90752754573047
0.4470304097604934,7.855568752935513,7.464823895384281,-7.681079016424014
0.5255860972898485,8.328201907016439,7.3880131052200415,-8.536129087175887
0.6088681163600129,8.860292205682416,7.302651814348283,-9.44863923553191
0.6974710384168371,9.38482787180116,7.208165421992964,-10.32641397164489
0.7913193171348487,9.75062983334532,7.104901282276515,-10.959707797096144
0.8888256154683019,9.748341722791361,6.995304204305554,-11.05808276161315
0.9863090326962155,9.29385767330746,6.884723376689422,-10.50766086490392
1.0792476094292902,8.568993584232812,6.779646768040383,-9.567046116977405
1.1649375452716184,7.820691135393685,6.683976306870609,-8.58483236664278
1.2431444566255552,7.1661169826879565,6.598127983204181,-7.727280650675651
1.3148056264524348,6.622650902597513,6.520855176697425,-7.020846936636098
1.3810321354784099,6.174449602054893,6.450646707331064,-6.445309946189892
1.4427766314989587,5.801200935139786,6.386193607869165,-5.97395742133905
1.5007886408503566,5.485678666061905,6.326454033655775,-5.5841886456227545
1.5556454275109757,5.214611533063877,6.2706121471995475,-5.25878967940057
1.6077915428416145,4.977996051420261,6.218024250405541,-4.985026778851735
1.6575715033558172,4.768262739136644,6.168173982617024,-4.753521301067712
1.7052541307471836,4.579603727448172,6.120638769606346,-4.557335928994108
1.7510501680216652,4.407483682143312,6.075065410316405,-4.391303267187887
1.7951250048430984,4.2482965996452,6.031152377644526,-4.251544105762238
1.8376079708395505,4.099129190337475,5.988636936586904,-4.135118857203321
1.8785992627429253,3.9576011237249884,5.94728574801487,-4.039767896308126
1.9181752739801752,3.8217617829542085,5.9068880690517895,-3.9637088369891424
1.9563928918097173,3.690030070586387,5.867250980681898,-3.9054683003475037
1.9932931925155812,3.5611681826202353,5.8281962976784225,-3.8637329227713346
2.0289048743417837,3.434282416735955,5.789558968450709,-3.8372103350581104
2.063247698509143,3.3088442040549837,5.751186865100128,-3.824496675993787
2.0963361405496928,3.1847228041536586,5.7129418983401905,-3.8239536270004892
2.1281833685912295,3.062217835025839,5.674702362070185,-3.8336051002568357
2.1588055469414877,2.9420759360056015,5.636366311067617,-3.8510707137238627
2.188226306301544,2.8254731630974623,5.597855603930378,-3.873557848316806
2.2164810379325184,2.7139457884816913,5.55912002544721,-3.897933046501498
2.243620495817335,2.6092596088569495,5.520140694982195,-3.920883457387763
2.2697130919059045,2.5132225177816037,5.480931860408317,-3.9391590783127777
2.2948453170837206,2.4274641470124685,5.4415402696251896,-3.949860852917162
2.3191199585538453,2.353222857452768,5.402041661096018,-3.9507179891391653
2.342652187128373,2.291185728583509,5.362534481204626,-3.9402917359579654
2.365564044414208,2.2414165264591213,5.323131563845046,-3.9180586466727987
2.387978209678799,2.2033828239575977,5.283950977378319,-3.884359592812269
2.410012037918375,2.176066526478999,5.245107381450196,-3.8402375007201055
2.431772703183165,2.1581233000980924,5.206705006442995,-3.7872116931106516
2.453353936184146,2.1480517827975483,5.168832889511888,-3.727042113568867
2.4748344540121217,2.1443413677582006,5.1315624683762,-3.6615252422460425
2.4962778676897037,2.145581357499278,5.09494721595374,-3.592344148478439
2.5177336812646964,2.150527786299753,5.0590237744689555,-3.5209768365557697
2.539238959127694,2.15813337804991,5.023814006103398,-3.448654843569944
2.560820292908193,2.167550265415421,4.989327457667698,-3.3763586956497957
2.5824957955623473,2.178115462762728,4.9555638707112,-3.304836561015325
2.6042769501899747,2.189327384545194,4.922515505101046,-3.2346348824685656
2.6261702240354268,2.200819330130601,4.89016915627636,-3.1661330454298433
2.648178417336733,2.212333641035782,4.858507825822062,-3.0995771489076502
2.670301753747091,2.2236985204459816,4.827512054332986,-3.035110256529857
2.6925387389515505,2.2348083347144003,4.797160951767687,-2.9727980668724387
2.7148868222986944,2.2456075027788156,4.7674329710989625,-2.912649887471685
2.7373428973264824,2.2560776957443913,4.738306472224246,-2.854635300016429
2.7599036742839265,2.2662279002615193,4.709760119224081,-2.798697121624045
2.7825659532865417,2.2760868583247817,4.681773148007841,-2.7447613163895
2.8053268218697895,2.285697423156636,4.654325534843946,-2.6927444719816327
2.828183796101356,2.295112428603945,4.62739809012413,-2.6425593772898233
2.8511349203873957,2.304391736368689,4.600972496351232,-2.594119147307458
2.8741788377510824,2.313600190018206,4.5750313048781575,-2.5473402553351994
2.8973148396512647,2.3228062618589775,4.549557902324805,-2.50214475680031
2.9205429022698546,2.3320812266951676,4.524536454756802,-2.458461925534563
2.943863714536806,2.341498735335331,4.499951835501457,-2.416229471876152
2.967278701890159,2.3511346913950386,4.475789540782695,-2.375394471027447
2.9907900488041097,2.3610673586832744,4.45203559607242,-2.33591409791459
3.0144007223909424,2.3713776444580215,4.4286764550932745,-2.297756239559555
3.0381144988355224,2.3821495171458325,4.405698892697679,-2.2609000360503835
3.061935994006981,2.3934705265965293,4.383089892337175,-2.2253363851449035
3.085870699272946,2.4054324012334023,4.360836528485726,-2.1910684321246783
3.10992502328528,2.4181317000062315,4.338925844164479,-2.158112054641555
3.134106340285342,2.4316704981162593,4.3173447236180635,-2.1264963409869524
3.1584230452665047,2.4461570841402844,4.296079760208194,-2.0962640485352337
3.1828846161079074,2.461706642349204,4.275117119722841,-2.067472016141173
3.2075016825313996,2.4784418874454617,4.254442399561429,-2.0401914890386443
3.232286101405854,2.496493609225236,4.234040484671043,-2.0145082962443426
3.2572510374981065,2.5160010712447023,4.2138954017086,-1.9905227974675157
3.2824110482105535,2.5371121897467512,4.1939901737339245,-1.9683494878247534
3.307782170108021,2.5599833961232514,4.174306678855677,-1.9481161129910194
3.3333820040692537,2.584779057328331,4.154825517725767,-1.929962103646752
3.359229794642537,2.6116702934615343,4.135525896689299,-1.9140360855091447
