th1 (rad),w1 (rad/s),th2 (rad),w2 (rad/s),a1 (rad/s^2),a2 (rad/s^2)
0.9859312553510663,-2.537132512616784,0.021485229182648564,2.6533987206186924,-14.93633303720425,13.590793230744344
0.9605599302248985,-2.686495842988826,0.04801921638883549,2.7893066529261357,-15.636773417645733,14.804488476926922
0.9336949717950103,-2.8428635771652835,0.07591228291809685,2.9373515376954047,-16.406792226181995,16.10180395122691
0.9052663360233574,-3.0069314994271035,0.10528579829505089,3.0983695772076736,-17.23574215324578,17.46455302342576
0.8751970210290864,-3.179288920959561,0.13626949406712763,3.2730151074419314,-18.099432622147106,18.855241856773528
0.8434041318194907,-3.360283247181032,0.16899964514154694,3.4615675260096666,-18.951816467424766,20.205320149555178
0.8098012993476804,-3.5498014118552796,0.2036153204016436,3.663620727505218,-19.713100560043095,21.398396443498484
0.7743032852291276,-3.7469324174557106,0.24025152767669578,3.877604691940203,-20.25439521021973,22.248583753220768
0.7368339610545706,-3.949476369557908,0.27902757459609784,4.100090529472411,-20.381736609508547,22.477972682020223
0.6973391973589915,-4.153293735652993,0.32002847989082195,4.324870256292613,-19.828497311894463,21.705937974501825
0.6558062600024616,-4.351578708771938,0.36327718245374807,4.541929636037631,-18.2755345412226,19.47755302637971
0.6122904729147421,-4.534334054184164,0.4086964788141244,4.736705166301428,-15.427690042529713,15.371469762072069
0.5669471323729005,-4.688610954609461,0.4560635304771387,4.8904198639221494,-11.164190044487313,9.212107367721323
0.5200610228268059,-4.800252855054334,0.5049677291163602,4.982540937599363,-5.720510315692109,1.3265955268197345
0.47205849427626256,-4.857457958211255,0.5547931384923539,4.99580689286756,0.23628851368240572,-7.347690744738031
0.42348391469415003,-4.855095073074431,0.6047512074210295,4.92232998542018,5.785939311289297,-15.512467731115198
0.3749329639634057,-4.797235679961538,0.6539745072752313,4.767205308109028,10.13750250059995,-22.045871213259346
0.32696060716379033,-4.695860654955538,0.7016465603563216,4.546746595976434,12.935590349061913,-26.434089845040337
0.28000200061423497,-4.566504751464919,0.7471140263160859,4.2824056975260305,14.276848691438632,-28.79703358767685
0.23433695309958577,-4.4237362645505325,0.7899380832913462,3.994435361649262,14.511009081869698,-29.611332039124274
0.19009959045408045,-4.278626173731835,0.8298824369078388,3.698322041258019,14.030163560999524,-29.415757973827166
0.14731332871676212,-4.13832453812184,0.866865657320419,3.404164461519747,13.15424082744841,-28.650574411813903
0.10593008333554371,-4.006782129847356,0.9009073019356164,3.117658717401608,12.103766257468665,-27.61873411177937
0.06586226203707016,-3.8857444672726698,0.9320838891096325,2.841471376283814,11.014931076325665,-26.506287691731156
0.02700481736434346,-3.775595156509413,0.9604986028724706,2.5764084993665026,9.964800704992578,-25.417123047743615
-0.010751134200750675,-3.6759471494594873,0.9862626878661356,2.3222372688890665,8.993079149365313,-24.40305651047675
-0.04751060569534555,-3.586016357965834,1.0094850605550263,2.078206703784299,8.117412325310143,-23.4850289389092
-0.08337076927500389,-3.504842234712733,1.0302671275928692,1.843356414395207,7.343126024337554,-22.666622440362993
-0.11841919162213121,-3.4314109744693573,1.0487006917368213,1.616690189991577,6.669071632093795,-21.942205885484974
-0.15273330136682478,-3.3647202581484192,1.064867593636737,1.3972681311367274,6.090994545272039,-21.301665058687405
-0.18638050394830896,-3.303810312695699,1.0788402749481043,1.1842514805498534,5.603403419096954,-20.73306995363142
-0.21941860707526595,-3.2477762785047295,1.0906827897536029,0.9769207810135392,5.200559347446336,-20.224134920561767
-0.2518963698603133,-3.1957706850302663,1.1004519975637383,0.7746794318079215,4.876959553184032,-19.76298869299558
-0.2838540767106159,-3.147001089498426,1.1081987918818175,0.5770495448779658,4.62753668942116,-19.33855851201134
-0.31532408760560016,-3.1007257226042144,1.113969287330597,0.3836639597578524,4.447702422479995,-18.94074418058305
-0.3463313448316423,-3.0562486983794144,1.1178059269281757,0.1942565179520219,4.333309532798521,-18.5604820662076
-0.37689383181543645,-3.0129156030514292,1.119748492107696,0.008651697289945887,4.280575113964097,-18.189754818928055
-0.40702298784595076,-2.970109851911788,1.1198350090805953,-0.17324585089933467,4.285989176611562,-17.821576931339592
-0.43672408636506865,-2.9272499601456725,1.118102550571602,-0.3514616202127306,4.346222460089843,-17.44997151520302
-0.4659965859665254,-2.8837877355447743,1.1145879343694747,-0.5259613353647608,4.458041223831115,-17.069945279117096
-0.4948344633219731,-2.839207323306463,1.1093283210158271,-0.6966607881559317,4.618233313496266,-16.67746402923414
-0.5232265365550377,-2.7930249901715003,1.1023617131342678,-0.863435428448273,4.82354776459077,-16.269428548817377
-0.5511567864567527,-2.7447895125255926,1.0937273588497851,-1.026129713936447,5.07064898159012,-15.843649547569685
-0.5786046815820086,-2.6940830227096915,1.0834660617104206,-1.1845662094121439,5.35608575308042,-15.39881997869342
-0.6055455118091055,-2.6405221651788873,1.0716203996162992,-1.338554409199078,5.676274833490884,-14.934483080933955
-0.6319507334608944,-2.5837594168439786,1.0582348555243084,-1.4878992400084174,6.027498433453951,-14.450994816005545
-0.6577883276293341,-2.523484432509439,1.0433558631242241,-1.6324091881684728,6.4059146603759105,-13.949479811973756
-0.6830231719544285,-2.45942528590568,1.0270317712425394,-1.7719039862882104,6.807579713771202,-13.431780407780257
-0.7076174248134853,-2.391349488767968,1.0093127313796573,-1.906221790366013,7.2284804557422095,-12.900398869828935
-0.731530919701165,-2.3190646842105456,0.9902505134759971,-2.0352257790643025,7.664575840816708,-12.358433285969332
-0.7547215665432705,-2.2424189258023786,0.9698982556853541,-2.1588101119239957,8.111845597689193,-11.809508018464427
-0.7771457558012943,-2.1613004698254867,0.9483101545661142,-2.27690519210864,8.566344504431479,-11.257699910287103
-0.7987587604995492,-2.0756370247811717,0.9255411026450279,-2.3894821912115107,9.02426058431679,-10.707461690842676
-0.8195151307473609,-1.9853944189380037,0.9016462807329128,-2.4965568081199376,9.481975567990164,-10.163544224710295
-0.839369074936741,-1.8905746632581022,0.8766807126517133,-2.5981922503670405,9.936126017430759,-9.630919398008437
-0.858274821569322,-1.7912134030837945,0.850698790148043,-2.6945014443471247,10.383663588525307,-9.114705547770042
-0.8761869556001599,-1.6873767671985413,0.8237537757045716,-2.785648499824825,10.821913025159633,-8.620097413431246
-0.8930607232721454,-1.579157636946945,0.7958972907063234,-2.871849473959138,11.248626633405546,-8.152302625901887
-0.9088522996416148,-1.4666713706128895,0.767178795966732,-2.9533725002181566,11.662034184906377,-7.716486745665612
-0.9235190133477438,-1.3500510287638259,0.7376450709645505,-3.0305373676748126,12.060887447748764,-7.317728812727012
-0.937019523635382,-1.2294421542863383,0.7073396972878023,-3.103714655802083,12.44449884128515,-6.960989274423715
-0.9493139451782454,-1.1049971658734867,0.6763025507297815,-3.17332454854632,12.81277405360395,-6.651092010836651
-0.9603639168369803,-0.9768694253374473,0.6445693052443183,-3.2398354686546864,13.166238835025265,-6.392721983330594
-0.9701326110903548,-0.8452070369871946,0.6121709505577715,-3.3037626884879923,13.50606056883286,-6.190439793176702
-0.9785846814602267,-0.710146431298866,0.5791333236728916,-3.365667086419759,13.83406559348704,-6.048714156675198
-0.9856861457732153,-0.5718057753639956,0.5454766528086941,-3.426154227986511,14.152753570560838,-5.971972976079746
-0.9914042035268553,-0.4302782396583872,0.511215110528829,-3.4858739577473083,14.465310407563658,-5.964673290423923
-0.9957069859234392,-0.2856251355827506,0.47635637095135586,-3.5455206906515477,14.775621281517603,-6.031389873248105
-0.9985632372792667,-0.13786892276757456,0.44090116404484037,-3.605834589384029,15.088285059366097,-6.176921494853879
-0.9999419265069424,0.013013927826086402,0.4048428181510001,-3.667603804332568,15.408630706274625,-6.406412679417391
-0.9998117872286815,0.16710023488883266,0.3681667801076744,-3.7316679311267418,15.742734839207312,-6.725486797874563
-0.9981407848797932,0.3245275832809058,0.330850100796407,-3.7989227991054872,16.097436967311722,-7.140382918152558
-0.9948955090469841,0.48550195295402304,0.2928608728053521,-3.870326628287013,16.480344401748987,-7.658082917572387
-0.9900404895174438,0.6503053969715129,0.254157606522482,-3.946907457462737,16.899811034372934,-8.286405145239979
-0.9835374355477287,0.8193035073152423,0.21468853194785462,-4.029771508915137,17.364861021878554,-9.034023373362002
-0.9753444004745763,0.9929521175340278,0.17439081685870325,-4.120111742648757,17.88500626359075,-9.910339824657088
-0.965414879299236,1.1718021801699352,0.13318969943221567,-4.2192151408953285,18.46986945702304,-10.925090306794202
-0.9536968574975366,1.3565008747401657,0.09099754802326239,-4.32846604396327,19.12846276391957,-12.087474255831832
-0.940131848750135,1.5477855023793614,0.04771288758362969,-4.449340786521589,19.867870544299514,-13.404461307566985
-0.9246539937263414,1.7464642078223567,0.003219479718413805,-4.583385399597258,20.690921062330364,-14.877697329316922
-0.9071893516481179,1.9533734184456604,-0.04261437427755878,-4.732162372890428,21.59217888367715,-16.498076791719104
-0.8876556174636613,2.169295207282432,-0.08993599800646306,-4.897143140807619,22.5512265775236,-18.236534183161684
-0.865962665390837,2.3948074730576683,-0.13890742941453924,-5.079508482639236,23.52176527136182,-20.02897793382148
-0.8420145906602603,2.6300251257712866,-0.1897025142409316,-5.279798261977451,24.414771011631323,-21.752849646550107
-0.8157143394025475,2.8741728358875998,-0.2425004968607061,-5.497326758442952,25.074530592370003,-23.193553908972326
-0.7869726110436714,3.1249181418112997,-0.2974737644451356,-5.729262297532675,25.24969622686486,-24.003548307963044
-0.7557234296255585,3.3774151040799483,-0.3547663874204624,-5.9692977806123055,24.571102795595415,-23.670199732901132
-0.721949278584759,3.6231261320359023,-0.41445936522658544,-6.205999777941317,22.567779274267114,-21.535980346541333
-0.6857180172644,3.8488039247785735,-0.4765193630059986,-6.421359581406731,18.77688445630689,-16.948717797370218
-0.6472299780166142,4.036572769341642,-0.5407329588200659,-6.590846759380433,12.995022078338112,-9.608682793278774
-0.6068642503231978,4.166522990125023,-0.6066414264138702,-6.686933587313221,5.604511031024959,-0.021287511757880087
-0.5651990204219476,4.222568100435273,-0.6735107622870025,-6.6871464624308,-2.3025725356930375,10.329105775618526
-0.5229733394175948,4.199542375078343,-0.7403822269113105,-6.5838554046746145,-9.297755447459924,19.493793067238567
-0.4809779156668114,4.106564820603744,-0.8062207809580566,-6.388917474002229,-14.320732089507496,26.031032804774718
-0.439912267460774,3.963357499708669,-0.8701099556980789,-6.128607145954482,-17.105123174501728,29.58879310523703
-0.4002786924636873,3.7923062679636517,-0.9313960271576237,-5.832719214902111,-18.02982840943516,30.694347932330306
-0.3623556297840508,3.6120079838693,-0.9897232193066449,-5.525775735578808,-17.70666627263978,30.185010040211374
-0.32623554994535775,3.4349413211429023,-1.044980976662433,-5.223925635176694,-16.681428850050505,28.799978040544396
-0.2918861367339287,3.268127032642397,-1.0972202330141998,-4.93592585477125,-15.333813509344187,27.047202449403756
-0.25920486640750473,3.114788897548955,-1.1465794915619123,-4.665453830277213,-13.891756102696709,25.226312494222157
-0.22805697743201517,2.9758713365219878,-1.1932340298646844,-4.413190705334991,-12.477724186273713,23.49375990584627
-0.1982982640667953,2.8510940946592505,-1.2373659369180343,-4.178253106276528,-11.150102795744989,21.92005553440495
-0.16978732312020278,2.7395930667018007,-1.2791484679807996,-3.959052550932478,-9.931437728474785,20.528386374714
-0.14239139245318477,2.6402786894170527,-1.3187389934901244,-3.753768687185338,-8.825534874840434,19.317733371426048
-0.11598860555901425,2.5520233406686486,-1.3562766803619777,-3.5605913534710774,-7.8271533978765895,18.27580259053589
-0.09046837215232775,2.4737518066898825,-1.3918825938966886,-3.3778333275657184,-6.927262189084934,17.385914658322474
-0.06573085408542892,2.404479184799033,-1.4256609271723457,-3.2039741809824935,-6.115777098026717,16.630500585541906
-0.041686062237438586,2.343321413818766,-1.4577006689821705,-3.0376691751270744,-5.382912945091674,15.992756032935484
-0.018252848099250926,2.2894922843678494,-1.4880773607334412,-2.8777416147977197,-4.719792205969197,15.457324685811384
0.004642074744427568,2.2422943623081575,-1.5168547768814185,-2.7231683679396057,-4.118664949617783,15.010487016735546
0.027065018367509144,2.2011077128119796,-1.5440864605608144,-2.5730634977722504,-3.5729327393245716,14.640110387938826
0.04907609549562894,2.165378385418734,-1.5698170955385369,-2.426662393892862,-3.0770796640242866,14.335495676610448
0.07072987934981628,2.1346075887784908,-1.5940837194774655,-2.2833074371267577,-2.626564652991848,14.08719018347452
0.09207595523760119,2.1083419422485723,-1.616916793848733,-2.1424355352920124,-2.2177026144424916,13.886801490308331
0.11315937466008691,2.0861649161041473,-1.638341149201653,-2.003567520388929,-1.8475476317406228,13.726828325363648
0.13402102382112838,2.067689439786741,-1.6583768244055423,-1.8662992371352927,-1.513783884876767,13.600514799097073
0.15469791821899578,2.0525516009379734,-1.6770398167768952,-1.730294089144322,-1.2146260836978473,13.50172945471283
0.17522343422837552,2.0404053401009947,-1.6943427576683383,-1.5952767945971935,-0.9487293258362884,13.424868190602648
0.19562748762938548,2.0309180468426318,-1.7102955256143102,-1.461028112691167,-0.7151075048709127,13.364779034491209
0.21593666809781178,2.023766971793923,-1.724905806741222,-1.327380322346255,-0.5130591855562795,13.316706323714508
0.236174337815751,2.01863637993836,-1.7381796099646845,-1.19421325910911,-0.3420999523378348,13.276251723010683
0.25636070161513463,2.0152153804149817,-1.7501217425557756,-1.0614507418790031,-0.20190046808767087,13.239349511382239
0.27651285541928444,2.013196375734105,-1.7607362499745656,-0.9290572467651808,-0.09222976270220287,13.202253608536001
0.2966448191766255,2.0122740781070827,-1.7700268224422173,-0.7970347106798208,-0.01290355307881015,13.161533857270875
0.31676755995769634,2.012145042576295,-1.7779971695490155,-0.665419372107112,0.03626235580574555,13.114079127899286
0.3368890103834593,2.0125076661343524,-1.7846513632700867,-0.5342785808281192,0.055493345800502636,13.057104876029511
0.3570140870448028,2.0130625995923572,-1.789994149078368,-0.40370753206782406,0.045091569168314735,12.988162883399578
0.3771447130407264,2.0135135152840404,-1.7940312243990462,-0.27382590323382827,0.005465425679472731,12.905151060533797
0.39727984819356676,2.013568169540835,-1.7967694834313845,-0.1447743926284903,-0.06284745146674922,12.806321403207859
0.4174155298889751,2.0129396950261675,-1.7982172273576695,-0.01671117859641169,-0.15916398081042624,12.690284478441583
0.4375449268392368,2.0113480552180634,-1.7983843391436336,0.11019166618800413,-0.2826462998811377,12.556009167687089
0.45765840739141744,2.008521592219252,-1.7972824224817536,0.235751757864875,-0.43229920802583505,12.402816803639716
0.47774362331361,2.0041986001389933,-1.7949249049031049,0.35977992590127217,-0.6069740322423026,12.23036928298557
0.49778560931499993,1.9981288598165703,-1.791327105644092,0.48208361873112787,-0.8053783115104707,12.03865119439873
0.5177668979131657,1.9900750767014657,-1.7865062694567808,0.6024701306751152,-1.0260904605972463,11.827946439696804
0.5376676486801804,1.9798141720954932,-1.7804815681500297,0.7207495950720832,-1.267578378799722,11.5988102165413
0.5574657904011353,1.967138388307496,-1.7732740721993088,0.8367376972374962,-1.528220830354802,11.352037546845306
0.5771371742842103,1.951856180003948,-1.7649066952269339,0.9502580727059493,-1.8063303535680777,11.088629755538086
0.5966557360842498,1.9337928764682673,-1.7554041144998744,1.0611443702613301,-2.1001764609296476,10.809760416982732
0.6159936648489325,1.9127911118589709,-1.7447926707972612,1.1692419744311575,-2.408007971758009,10.516742287601334
0.6351215759675222,1.8887110321413907,-1.7331002510529496,1.2744093973071708,-2.728073465306138,10.210996638447732
0.654008686288936,1.8614302974883292,-1.720356157079878,1.3765193636916482,-3.0586390438838045,9.894026203644522
0.6726229892638194,1.830843907049491,-1.7065909634429615,1.4754596257280934,-3.3980028370825393,9.567392688755456
0.6909314283343143,1.7968638786786657,-1.6918363671856804,1.571133552615648,-3.7445059425503553,9.232699460027295
0.708900067121101,1.7594188192531621,-1.676125031659524,1.663460547215921,-4.096539768640963,8.891579685278199
0.7264942553136327,1.7184534215667524,-1.6594904261873649,1.752376344068703,-4.4525500033765795,8.545689843914278
0.7436787895293002,1.6739279215329865,-1.6419666627466778,1.8378332425078459,-4.811037668153246,8.196708189121921
0.7604180687446301,1.625817544851454,-1.6235883303215994,1.9198003243990651,-5.170557911551701,7.846337448854603
0.7766762441931446,1.574111965735937,-1.6043903270776088,1.9982636988876112,-5.5297173491980205,7.496310809577417
0.792417363850504,1.5188147922439568,-1.5844076900887327,2.0732268069833855,-5.887170853186095,7.148400050079952
0.8076055117729436,1.459943083712096,-1.5636754220188989,2.144710807484185,-6.241618735034099,6.804424590726235
0.8222049426100646,1.3975268963617549,-1.542228313944057,2.2127550533914477,-6.591805247925891,6.466260201521375
0.8361802115736822,1.331608843882496,-1.5201007634101424,2.2774176554066616,-6.936519258084762,6.135846172096813
0.8494963000125071,1.2622436513016484,-1.497326586856076,2.3387761171276296,-7.274597805262531,5.8151898862825675
0.8621187365255236,1.189497673249023,-1.4739388256847996,2.396928015990455,-7.6049330951530125,5.50636795762076
0.8740137132580138,1.1134483422974928,-1.449969545524895,2.4519916955666625,-7.926483251798297,5.211523360174966
0.8851481966809888,1.0341835097795098,-1.4254496285692284,2.504106929168412,-8.238286918583478,4.932858317348914
0.8954900317787838,0.951800640593675,-1.4004085592775444,2.5534355123419012,-8.539481547841609,4.672623072294826
0.9050080381847205,0.8664058251152589,-1.3748742041541253,2.6001617430648496,-8.829324979175418,4.433101035829407
0.9136720964358731,0.7781125753235048,-1.3488725867234768,2.6444927534231435,-9.107219694149423,4.216591168606822
0.9214532221891082,0.6870403783820105,-1.3224276591892454,2.6866586651092117,-9.372738968429278,4.025388780460985
0.9283236259729283,0.5933129886977178,-1.2955610725381532,2.7269125529138214,-9.625654038113074,3.861766200108463
0.9342567558599054,0.497056448316587,-1.268291947009015,2.765530214914906,-9.86596136758165,3.727954965808643
0.9392273203430713,0.3983968346407705,-1.240636644859866,2.8028097645729924,-10.093909159259313,3.6261313014592385
0.943211288689479,0.2974577430481774,-1.2126085472141361,2.839071077587585,-10.310022382789041,3.558406670291791
0.9461858661199608,0.194357519220287,-1.1842178364382603,2.874655144290503,-10.51512581764503,3.5268251460190654
0.9481294413121637,0.08920626104383668,-1.1554712849953552,2.9099233957506936,-10.71036488886492,3.5333692239997276
0.9490215039226021,-0.017897387844812526,-1.1263720510378483,2.945257087990691,-10.897224415826129,3.579975535601606
0.948842530044154,-0.12686963200307383,-1.0969194801579414,2.981056843346707,-11.077545771886815,3.6685617563756665
0.9475738337241232,-0.23764508972194198,-1.0671089117244743,3.0177424609104637,-11.253543351184739,3.801065845446393
0.9451973828269038,-0.35018052323378934,-1.0369314871153696,3.0557531193649274,-11.42782164289315,3.979498653165775
0.9416955775945659,-0.46445873966272083,-1.0063739559217204,3.0955481058965852,-11.603394611502193,4.206010918251858
