th1 (rad),w1 (rad/s),th2 (rad),w2 (rad/s),a1 (rad/s^2),a2 (rad/s^2)
5.310581396303485,2.2961641005573505,0.16058565877915906,-0.5356440338911618,10.516399563900958,-10.799096050814011
5.333543037309059,2.40132809619636,0.15522921844024745,-0.6436349943993018,10.735358966093202,-11.489714464734947
5.357556318271023,2.508681685857292,0.14879286849625442,-0.7585321390466513,10.993541359149262,-12.222321800921902
5.382643135129595,2.6186170994487847,0.1412075471057879,-0.8807553570558703,11.295314853790256,-12.999808437200507
5.408829306124083,2.7315702479866872,0.1323999935352292,-1.0107534414278754,11.645002390852104,-13.824917969357744
5.43614500860395,2.848020271895208,0.12229245912095044,-1.1490026211214528,12.04657329550145,-14.699800287331662
5.464625211322902,2.968486004850223,0.1108024329097359,-1.2960006239947695,12.50313249784109,-15.625270939442125
5.494310071371404,3.0935173298286336,0.09784242666978821,-1.4522533333891907,13.016094656956252,-16.599616832057997
5.525245244669691,3.223678276398196,0.0833198933358963,-1.6182495017097707,13.583874687366869,-17.61671040692379
5.5574820274336725,3.3595170232718647,0.0671373983187986,-1.7944166057790085,14.199850571641457,-18.66308917787646
5.591077197666391,3.5015155289882793,0.04919323226100851,-1.9810474975577732,14.849262873694967,-19.713531041383806
5.626092352956274,3.650008157725229,0.02938275728543078,-2.1781828079716115,15.504632634714554,-20.724543526672758
5.662592434533527,3.8050544840723743,0.007600929205714663,-2.385428243238339,16.119280395564118,-21.62519406566239
5.70064297937425,3.9662472880280157,-0.016253353226668727,-2.601680183894963,16.618796300936992,-22.305097020392047
5.740305452254531,4.132435251037386,-0.042270155065618355,-2.8247311540988833,16.891218535446082,-22.600670294349204
5.781629804764905,4.301347436391846,-0.07051746660660718,-3.0507378570423755,16.778842560562673,-22.283851156686477
5.824643279128823,4.469135861997473,-0.10102484517703093,-3.2735763686092403,16.078642233128548,-21.063208941230016
5.869334637748798,4.629922284328758,-0.13376060886312335,-3.4842084580215404,14.56378173678535,-18.61515546373975
5.915633860592085,4.775560101696612,-0.16860269344333875,-3.670360012658938,12.041435254328393,-14.66677572084124
5.963389461609052,4.895974454239895,-0.20530629356992813,-3.8170277698673503,8.45148828054501,-9.136649193320602
6.012349206151451,4.980489337045346,-0.24347657126860164,-3.9083942618005563,3.975273620428505,-2.2897963819432503
6.062154099521904,5.020242073249631,-0.2825605138866072,-3.931292225619989,-0.9238465826757649,5.204225006698446
6.112356520254401,5.011003607422873,-0.32187343614280706,-3.8792499755530043,-5.605678763488793,12.42037912708989
6.16246655632863,4.954946819787986,-0.3606659358983371,-3.7550461842821052,-9.481952461488191,18.50339009670539
6.212016024526509,4.860127295173104,-0.3982163977411582,-3.570012283315051,-12.223769358174655,22.964191920484694
6.26061729747824,4.737889601591357,-0.4339165205743087,-3.3403703641102043,-13.814023161253202,25.757457377455435
6.307996193494153,4.599749369978825,-0.46732022421541075,-3.0827957903356498,-14.45188865250113,27.148828035306206
6.353993687193942,4.455230483453814,-0.49814818211876727,-2.811307509982588,-14.414650692287633,27.520010693742652
6.39854599202848,4.311083976530938,-0.5262612572185932,-2.5361074030451616,-13.959878019715738,27.229508907718056
6.4416568317937895,4.171485196333781,-0.5516223312490448,-2.263812313967981,-13.28486380918932,26.553789880861785
6.483371683757127,4.038636558241888,-0.5742604543887246,-1.9982744151593632,-12.523809094519455,25.681947242237765
6.523758049339547,3.9133984672966933,-0.5942431985403183,-1.7414549427369854,-11.760494023922211,24.73266010826286
6.562892034012513,3.795793527057471,-0.6116577479676881,-1.4941283416543567,-11.043372709366494,23.77497610761247
6.600849969283088,3.6853597999638064,-0.6265990313842317,-1.256378580578232,-10.398003983174842,22.845623425705742
6.637703567282726,3.581379760132058,-0.639162817190014,-1.0279223463211744,-9.835872480695642,21.96140744658915
6.673517364884046,3.4830210353251014,-0.6494420406532257,-0.808308271855283,-9.360171335856416,21.12741833760637
6.708347575237297,3.389419321966537,-0.6575251233717786,-0.5970340884792193,-8.969412717811483,20.34222099995692
6.742241768456962,3.2997251947884223,-0.6634954642565708,-0.3936118784796502,-8.659605277034531,19.60103996847448
6.775239020404846,3.213129142018077,-0.6674315830413673,-0.19760147879490536,-8.425528545040692,18.897669789124826
6.807370311825027,3.12887385656767,-0.6694075978293164,-0.008624780903657092,-8.26145508185215,18.225595989931488
6.838659050390704,3.0462593057491487,-0.6694938456383529,0.1736311789956578,-8.161542777228815,17.578634827238915
6.869121643448195,2.9646438779768607,-0.6677575338483963,0.349417527268047,-8.120034849858463,16.9512826180839
6.898768082227964,2.883443529478276,-0.6642633585757158,0.518930353448886,-8.131351266805567,16.338890922698866
6.927602517522747,2.8021300168102203,-0.659074055041227,0.6823192626758747,-8.190121916515187,15.7377376535768
6.9556238176908485,2.7202287976450683,-0.6522508624144682,0.8396966392116427,-8.2911913914704,15.145036013025301
6.982826105667299,2.637316883730364,-0.6438538960223518,0.9911469993418958,-8.429612742959888,14.5589061733556
7.009199274504603,2.553020756300765,-0.6339424260289328,1.1367360610754518,-8.600639959270678,13.978324485571015
7.03472948206761,2.4670143567080585,-0.6225750654181783,1.276519305931162,-8.799724281522783,13.403059046210942
7.059399625634691,2.3790171138928304,-0.6098098723588667,1.4105498963932712,-9.02251664824163,12.833597015143022
7.083189796773619,2.288791947410414,-0.595704373394934,1.5388858665447014,-9.264876850080954,12.271067147070216
7.106077716247722,2.196143178909604,-0.580315514729487,1.6615965380154036,-9.522888957897845,11.717159956628349
7.128039148036819,2.1009142893306256,-0.5636995493493329,1.778768137581687,-9.792882006178967,11.174047402134834
7.149048290930125,2.002985469268836,-0.545911867973516,1.8905086116030354,-10.071454615252325,10.64430371512572
7.169078145622813,1.9022709231163129,-0.5270067818574856,1.9969516487542927,-10.35550212490911,10.130828881971931
7.188100854853976,1.7987159018672219,-0.5070372653699426,2.098259937574012,-10.64224482924968,9.636776217064705
7.206088013872649,1.6922934535747252,-0.48605466599420255,2.1946276997446588,-10.92925600857631,9.165485406681679
7.223010948408397,1.5830008934889621,-0.46410838899675594,2.2862825538114757,-11.21448862167216,8.72042232306833
7.238840957343286,1.4708560072722405,-0.4412455634586412,2.373486777042159,-11.496299730145617,8.305126797296566
7.253549517416008,1.3558930099707844,-0.4175106956882196,2.4565380450151246,-11.773471958383446,7.923169392647311
7.267108447515716,1.23815829038695,-0.3929453152380683,2.535769738941598,-12.045231531998464,7.578118036926197
7.279490030419586,1.1177059750669653,-0.36758761784865235,2.6115509193108597,-12.311262668080067,7.273515152212207
7.290667090170255,0.9945933483861646,-0.3414721086555437,2.684286070832982,-12.571718293823597,7.012865661722431
7.300613023654117,0.8688761654479287,-0.3146292479472139,2.754414727450206,-12.827227224395363,6.799635947819996
7.309301785308596,0.740603893203975,-0.28708510067271187,2.822411086928406,-13.078898008306934,6.637263464860194
7.316707824240636,0.6098149131209056,-0.2588609898034278,2.888783721577008,-13.328319611455951,6.5291762416765895
7.322805973371845,0.4765317170063461,-0.22997315258765771,2.954075483993774,-13.57755890599545,6.478820882024679
7.327571290541909,0.34075612794639165,-0.20043239774771998,3.018863692814021,-13.82915447899311,6.489696789275725
7.3309788518213725,0.20246458315646057,-0.17024376081957976,3.083760660706778,-14.0861054604912,6.565393046171232
7.333003497652937,0.06160352855154855,-0.13940615421251198,3.1494145911684903,-14.351852710693144,6.709622421321646
7.333619532938453,-0.0819149985553829,-0.10791200830082709,3.2165108153817066,-14.630247523555715,6.926243959408
7.332800382952899,-0.22821747379094004,-0.07574690014701002,3.2857732549757865,-14.925499569866005,7.219260932807463
7.33051820821499,-0.3774724694896001,-0.042889167597252156,3.357965864303861,-15.242090456952132,7.592773650522346
7.326743483520094,-0.5298933740591214,-0.009309508954213543,3.4338936008090846,-15.58463101944652,8.050855306592448
7.321444549779502,-0.6857396842535866,0.025029427053877305,3.514402153875009,-15.957627771980537,8.597301564389905
7.314587152936967,-0.8453159619733919,0.060173448592627396,3.6003751695189083,-16.36510466642589,9.235177801835501
7.306133993317233,-1.0089670086376508,0.09617720028781648,3.6927269475372633,-16.80999739657417,9.966047581974337
7.2960443232308565,-1.1770669826033924,0.13310446976318913,3.7923874233570065,-17.293195251140272,10.788706578305167
7.2842736534048225,-1.3499989351147952,0.1710283439967592,3.9002744891400583,-17.812046352880703,11.697162585651014
7.270773664053674,-1.5281193986436021,0.2100310888881598,4.017246114996569,-18.35806553747946,12.677493215883352
7.255492470067239,-1.7117000540183969,0.2502035500381255,4.144021047155403,-18.913500445363987,13.703092113745468
7.238375469527055,-1.9008350584720368,0.29164376050967955,4.281051968292857,-19.4463597136651,14.72773564502915
7.219367118942334,-2.095298655608688,0.33445428019260814,4.4283293247431486,-19.90359201983054,15.676009996023128
7.198414132386247,-2.2943345758069933,0.3787375734400396,4.58508942470338,-20.202559130201323,16.43125858886019
7.1754707866281775,-2.4963601671090063,0.4245884676870734,4.749402010591982,-20.222204569719448,16.8229510435279
7.150507184957087,-2.6985822128062007,0.4720824877929932,4.917631521027261,-19.797991059789048,16.619097363385873
7.123521362829025,-2.8965621234040912,0.5212588030032659,5.083822494661121,-18.729075638517788,15.535489747500888
7.094555741594984,-3.0838528797892693,0.572097027949877,5.2391773921361295,-16.810772314433933,13.28003117188943
7.0637172127970915,-3.251960602933609,0.6244888018712383,5.371977703855024,-13.903998054548737,9.648679840047226
7.031197606767756,-3.391000583479096,0.6782085789097886,5.468464502255497,-10.035016422159238,4.664080769131388
6.997287600932965,-3.4913507477006887,0.7328932239323436,5.515105309946811,-5.4790926903019495,-1.3073371546392483
6.962374093455958,-3.546141674603708,0.7880442770318117,5.502031938400418,-0.7494055539997367,-7.569158050976
6.926912676709921,-3.5536357301437054,0.8430645964158159,5.426340357890658,3.5516627630926894,-13.299504905395318
6.891376319408484,-3.5181191025127783,0.8973279999947225,5.293345308836705,6.9498209456975,-17.85067514036626
6.856195128383356,-3.448620893055803,0.9502614530830895,5.114838557433043,9.2418096615441,-20.945873539406907
6.821708919452798,-3.3562027964403622,1.00140983865742,4.905379822038974,10.487277689584797,-22.667332116357247
6.788146891488394,-3.2513300195445143,1.0504636368778097,4.678706500875402,10.899345979669878,-23.30530918899099
6.755633591292948,-3.1423365597478154,1.0972507018865638,4.445653408985492,10.7289025636236,-23.199393735478715
6.7242102256954706,-3.0350475341115795,1.1417072359764187,4.213659471630705,10.19472377117527,-22.643479560676507
6.693859750354354,-2.933100296399827,1.1838438306927257,3.98722467602394,9.45972727824491,-21.8542051654401
6.6645287473903565,-2.8385030236173776,1.2237160774529652,3.768682624369539,8.633663389044763,-20.975410684788134
6.636143717154183,-2.75216638972693,1.2614029036966605,3.5589285175216574,7.785246907479886,-20.09519234667738
6.608622053256913,-2.674313920652131,1.2969921888718772,3.357976594054884,6.954806495625491,-19.26339018793061
6.5818789140503915,-2.6047658556958764,1.330571954812426,3.1653426921755776,6.16431637816599,-18.50532076382743
6.555831255493433,-2.5431226919142165,1.3622253817341818,2.980289484537303,5.424442279402532,-17.831337439939283
6.530400028574291,-2.488878269120191,1.3920282765795549,2.80197611013791,4.73917206068505,-17.243053967863528
6.505511245883088,-2.441486548513341,1.420048037680934,2.6295455704592747,4.108736819920765,-16.737226708618547
6.481096380397955,-2.400399180314133,1.4463434933855266,2.4621733033730893,3.531401233663547,-16.30810105583379
6.4570923885948135,-2.365085167977498,1.4709652264192574,2.2990922928147515,3.004534170057302,-15.94878932680068
6.433441536915039,-2.3350398262769247,1.493956149347405,2.139604399546745,2.5252318659912216,-15.65205335291726
6.41009113865227,-2.3097875076170125,1.5153521933428724,1.9830838660175722,2.0906673373257076,-15.410728340200865
6.386993263576099,-2.288880834243755,1.5351830320030482,1.8289765826155635,1.6982743565327783,-15.217934699916066
6.364104455233662,-2.2718980906784276,1.5534727978292038,1.676797235616403,1.3458326386847919,-15.067167574465609
6.341385474326877,-2.25843976429158,1.5702407701853678,1.526125559871747,1.0314948228045053,-14.952318399755956
6.318801076683961,-2.2481248160635348,1.5855020257840853,1.3766023758741874,0.753779755350684,-14.867661127973605
6.296319828523326,-2.240587018510028,1.599268049542827,1.2279257645944515,0.5115467391473443,-14.807822494813836
6.273913958338226,-2.2354715511185543,1.6115473071887716,1.0798475396463132,0.3039594277840371,-14.767747672418688
6.251559242827041,-2.232431956840714,1.6223457825852348,0.9321700629221263,0.13044443972951533,-14.742667769580583
6.229234923258633,-2.2311275124434187,1.631667483214456,0.7847433852263205,-0.009352378193064415,-14.728072676374392
6.2069236481341985,-2.2312210362253495,1.6395149170667191,0.6374626584625765,-0.11561035619121937,-14.719690940860064
6.184611437771945,-2.232377139787262,1.645889543651345,0.4902657490539759,-0.18837809334729494,-14.713477249980988
6.162287666374072,-2.2342609207207347,1.6507922011418847,0.343130976554166,-0.22761662045240286,-14.705607388033249
6.139945057166865,-2.2365370869252588,1.6542235109074264,0.19607490267383354,-0.23324118819237488,-14.692480099442722
6.117579686297613,-2.2388694988071824,1.6561842599341647,0.04915010167940631,-0.20516129369697922,-14.670724992427644
6.095190991309541,-2.2409211117441523,1.6566757609509588,-0.09755714824487013,-0.14331856123926318,-14.63721543292847
6.072781780192099,-2.242354297356545,1.6557001894685102,-0.24392930257415482,-0.047722075667173444,-14.58908526567889
6.050358237218534,-2.2428315181132166,1.6532608964427686,-0.3898201552309437,0.08151924701689188,-14.523748147618122
6.027929922037401,-2.2420163256430476,1.6493626948904592,-0.5350576367071249,0.24416766473783785,-14.438918281465755
6.005509758780971,-2.2395746489956694,1.644012118523388,-0.6794468195217824,0.4398313762258232,-14.332631390250041
5.983114012291015,-2.2351763352334113,1.6372176503281701,-0.8227731334242828,0.667943383899493,-14.203264872463402
5.960762248938681,-2.2284969013944163,1.6289899189939272,-0.9648057821489169,0.9277447130244468,-14.049556215573562
5.938477279924737,-2.219219454264172,1.619341861172438,-1.1053013443046524,1.2182721582948406,-13.870618913030418
5.916285085382095,-2.2070367326812237,1.6082888477293915,-1.2440075334349565,1.5383506339656594,-13.665955313938827
5.8942147180552835,-2.191653226341567,1.5958487723950419,-1.380667086574345,1.8865901131539464,-13.435466020471209
5.872298185791868,-2.1727873252100274,1.5820421015292985,-1.515021746779057,2.261387066000889,-13.179455620625653
5.850570312539768,-2.1501734545500186,1.5668918840615078,-1.6468163029853136,2.660930253306193,-12.898634689197756
5.829068577994268,-2.123564152016957,1.5504237210316547,-1.7758026498772912,3.083210707152948,-12.594118097187126
5.807832936474099,-2.092732044945427,1.5326656945328818,-1.9017438308491625,3.526035733987742,-12.267419733593782
5.786905616024645,-2.05747168760555,1.5136482562243903,-2.0244180281851003,3.987046805099635,-11.920443764052777
5.766330899148589,-2.0176012195545536,1.4934040759425393,-2.143622465825628,4.463741246533368,-11.555472534898351
5.746154886953044,-1.97296380708922,1.471967851284283,-2.2591771911746115,4.953497693633441,-11.175151192011919
5.726425248882152,-1.9234288301528855,1.449376079372537,-2.3709287030947306,5.453605320881783,-10.782469038938578
5.707190960580623,-1.8688927769440675,1.4256667923415898,-2.478753393484116,5.961296881338928,-10.380737628712849
5.688502032811182,-1.8092798081306782,1.4008792584067487,-2.5825607697712445,6.47378557948132,-9.973565589180208
5.670409234729875,-1.744541952335865,1.3750536507090363,-2.6822964256630466,6.98830574810561,-9.564830240170975
5.652963815206516,-1.674658894854809,1.3482306864524058,-2.7779447280647562,7.5021572015486715,-9.158646185094701
5.636217226257968,-1.5996373228393221,1.3204512391717582,-2.8695311899157034,8.012752998047382,-8.759331254219568
5.620220853029575,-1.5195097928588484,1.2917559272726011,-2.957124502457899,8.51767017535481,-8.371370438087643
5.6050257551009866,-1.4343330911053003,1.262184682248022,-3.0408382068387754,9.014702844329022,-7.999378764244972
5.590682424189933,-1.3441860626620101,1.2317763001796342,-3.1208319944812253,9.501916859016468,-7.648064417999328
5.577240563563313,-1.2491668940718454,1.200567980234822,-3.1973126386612187,9.977705155526987,-7.322193762120029
5.5647488946225945,-1.1493898425165756,1.1685948538482098,-3.270534576282419,10.44084279229852,-7.026560243074906
5.5532549961974285,-1.0449814145935905,1.1358895080853857,-3.340800178713168,10.890540754219828,-6.765959456202821
5.5428051820514925,-0.9360760070513923,1.102481506298254,-3.4084597732751964,11.326497718948492,-6.545172858439639
5.533444421980978,-0.8228110298619074,1.068396908565502,-3.4739115018595927,11.748949232955532,-6.368962752904314
5.525216311682359,-0.705321537532352,1.0336577935469062,-3.537601129388636,12.158714103974509,-6.242081223344086
5.518163096307036,-0.5837343964926069,0.9982817822530199,-3.6000219416220767,12.557238270876162,-6.1692956768847615
5.512325752342109,-0.45816201378384536,0.9622815628367991,-3.6617148983909242,12.946636935294716,-6.155433576872679
5.50774413220427,-0.32869564443089816,0.9256644138528899,-3.723269234159651,13.329736293582691,-6.2054488313189236
5.504457175759962,-0.19539828149507124,0.8884317215112933,-3.78532372247284,13.710116741151488,-6.324512155171189
5.502503192945011,-0.05829711408355637,0.8505784842865649,-3.8485688440245522,14.092159862754073,-6.518127529768503
5.501920221804175,0.08262448454398436,0.8120927958463193,-3.9137501193222373,14.48110176777249,-6.792276572593856
5.502746466649615,0.22743550222170925,0.772955294653097,-3.9816728850481757,14.883095215527408,-7.153592043036553
5.505020821671832,0.37626645437698336,0.7331385658026153,-4.053208805478541,15.305282228620483,-7.609560516761156
5.508783486215602,0.5293192766631882,0.6926064777478299,-4.129304410646153,15.755877037553224,-8.168751840181546
5.514076678982234,0.6868780470387205,0.6513134336413684,-4.210991929047968,16.24425539685953,-8.841068186220026
5.520945459452621,0.8493206010073158,0.6092035143508887,-4.299402610910168,16.78103906205501,-9.637996309632005
5.529438665462695,1.017130991627866,0.5662094882417871,-4.395782574006488,17.37815083528542,-10.572829235572799
5.539609975378974,1.1909124999807201,0.5222516625017222,-4.501510866362216,18.048791278746243,-11.660791458057144
5.551519100378781,1.3714004127681825,0.4772365538381,-4.618118780942788,18.807244405178153,-12.918942884220638
5.565233104506462,1.559472856819964,0.4310553660286721,-4.747308209784994,19.66834123676055,-14.365630108783867
5.580827833074662,1.7561562691875696,0.38358228393082217,-4.890964510872832,20.646270643805867,-16.01906212516521
5.598389395766538,1.9626189756256283,0.33467263882209386,-5.051155132124484,21.752181551814,-17.894248262145968
5.6180155855227945,2.1801407911437685,0.284161087500849,-5.230097614745944,22.989598059461894,-19.996947875432223
5.639816993434232,2.4100367717383873,0.23186011135338958,-5.430067093500266,24.345970162292012,-22.3123021841867
5.663917361151616,2.6534964733613076,0.1775594404183869,-5.653190115342134,25.777619319538466,-24.784317201501274
