th1 (rad),w1 (rad/s),th2 (rad),w2 (rad/s)
3.9026466039254095,0.38882023974418606,6.1381056018686015,2.0530832526820633
3.9065348063228513,0.49771457052880025,6.158636434395422,2.133226586726779
3.9115119520281394,0.6084407096652944,6.17996870026269,2.213212824996219
3.917596359124792,0.7209807071783432,6.202100828512652,2.292771761580824
3.924806166196576,0.8353003213935313,6.22502854612846,2.3716182143816957
3.9331591694105112,0.9513481174050656,6.248744728272277,2.4494515209546424
3.9426726505845617,1.069054692491354,6.273239243481823,2.5259552283649125
3.9533631975094754,1.1883320516227434,6.298498795765473,2.600796993561924
3.965246518025703,1.3090731531116042,6.324506765701091,2.6736287050819243
3.978337249556819,1.4311516400287732,6.351243052751911,2.7440868298183614
3.9926487659571066,1.5544217673113014,6.3786839210500945,2.811792980399813
4.008192983630219,1.6787185277045271,6.406801850854093,2.876354689783442
4.024980168907264,1.8038579721562131,6.435565397751927,2.9373663705840944
4.0430187486288265,1.929637712509202,6.464939061457768,2.9944104281635404
4.062315125753918,2.055837586971115,6.494883165739403,3.0470584894988475
4.082873501623629,2.182220462653507,6.525353750634392,3.094872705336579
4.1046957062501646,2.308533145334346,6.556302477687757,3.137407082162148
4.1277810377035085,2.4345073653994485,6.587676548509379,3.1742088040638983
4.152126111357503,2.5598608115035746,6.6194186365500185,3.2048195134883986
4.177724719472539,2.6842981905649768,6.651466831684902,3.2287765347365336
4.204567701378188,2.8075123047394923,6.683754597032268,3.2456140450195283
4.232642824425583,2.929185153154406,6.716210737482463,3.2548642246542947
4.261934675957127,3.048989088142902,6.748759379729006,3.256058449590588
4.292424566838556,3.166588081735091,6.781319964224912,3.248728624288069
4.324090447655907,3.2816391868992865,6.813807250467793,3.2324087885884665
4.3569068395249,3.393794307550087,6.846131338353677,3.2066371654354495
4.390844782600401,3.5027024190845415,6.878197710008032,3.170958843052417
4.425871806791246,3.608012403998602,6.909907298438556,3.1249293007188186
4.4619519308312325,3.709376681251335,6.941156591445744,3.068118986217601
4.499045697643746,3.806455809362155,6.97183778130792,3.00011912968424
4.5371102557373675,3.8989242274887586,7.001838972604763,2.920548927470193
4.576099498012255,3.9864772619699322,7.031044461879465,2.8290641461332413
4.615964270631954,4.068839464963322,7.059335103340797,2.7253670780626034
4.656652665281587,4.145774265527664,7.086588774121423,2.60921762694324
4.698110407936864,4.21709480316922,7.112680950390855,2.4804451181736504
4.7402813559685555,4.282675684607609,7.137485401572592,2.3389602271771706
4.783108112814632,4.342465266010201,7.160875003844364,2.184766214594719
4.826532765474734,4.396497929812347,7.182722665990311,2.0179684753837943
4.870497744772857,4.444905716501064,7.202902350744149,1.8387812774941297
4.914946801937868,4.487928609113862,7.2212901635190905,1.6475305150847641
4.959826088029006,4.525922773116047,7.237765468669938,1.444651357395627
5.005085315760167,4.559366143822583,7.252211982243894,1.2306798532624275
5.050678977198393,4.58886093584511,7.264518780776519,1.006237851918051
5.096567586556844,4.6151329198117885,7.2745811592957,0.7720110006854294
5.142718915754962,4.639027652154001,7.282301269302554,0.5287200344140166
5.189109192276502,4.661504222455544,7.287588469646694,0.2770860164359328
5.235724234501057,4.683627459990869,7.290359329811054,0.017790553249540708
5.282560509100966,4.706559876504492,7.290537235343549,-0.24856778511713423
5.3296261078660105,4.73155488430437,7.288051557492377,-0.5215196041967685
5.376941656709055,4.759953001753069,7.28283636145041,-0.8007723806459404
5.424541186726585,4.793182846904091,7.27482863764395,-1.0862591753240225
5.472473015195626,4.8327687483203885,7.26396604589071,-1.3781884896575392
5.52080070267883,4.8803468064043125,7.250184160994134,-1.6770962021304288
5.569604170742873,4.9376912540673885,7.23341319897283,-1.9839014059474245
5.618981083283547,5.006753003526204,7.213574184913355,-2.299968826425895
5.669048613318809,5.089712273568149,7.190574496649096,-2.627181163989508
5.71994573605449,5.189046972997423,7.164302685009201,-2.968024859003015
5.7718362057844645,5.30761756488466,7.13462243641917,-3.325691685364145
5.824912381433311,5.44876626634007,7.101365519565529,-3.704194609760151
5.879400044096712,5.616420958553782,7.064323573467927,-4.1084857809802084
5.93556425368225,5.815176061056363,7.023238715658125,-4.544538959965318
5.993716014292813,6.05028049239459,6.977793326058472,-5.019299524171054
6.054218819216759,6.3273677396711685,6.9276003308167615,-5.540271914734466
6.117492496613471,6.651555898670558,6.872197611669417,-6.1142243485095324
6.184008055600176,7.025123840783712,6.811055368184322,-6.743900232657147
6.254259294008014,7.4422430021361645,6.743616365857751,-7.420608311661606
6.328681724029376,7.878571732079902,6.669410282741135,-8.109623414029338
6.407467441350175,8.275411395116167,6.588314048600841,-8.727993404709604
6.4902215553013365,8.530019492905888,6.501034114553745,-9.13106423621681
6.575521750230395,8.527791083328035,6.409723472191577,-9.157883873070173
6.660799661063676,8.234697264258148,6.318144633460875,-8.761154749745891
6.7431466337062576,7.748100873387979,6.230533085963416,-8.0784365930154
6.8206276424401375,7.209491868052027,6.149748720033262,-7.309463708260716
6.8927225611206575,6.7076454588674626,6.076654082950655,-6.5802152350395495
6.959799015709332,6.272581091962739,6.01085193060026,-5.93430878967929
7.02252482662896,5.904884397713918,5.951508842703467,-5.373951643902207
7.081573670606099,5.595628004691244,5.897769326264444,-4.887805035294262
7.137529950653011,5.334557564513678,5.848891275911502,-4.462477756896024
7.190875526298148,5.112627276868843,5.804266498342542,-4.0861284733052665
7.242001799066837,4.922468555294192,5.763405213609489,-3.7491727209422545
7.291226484619779,4.758227393115368,5.725913486400066,-3.444097828066286
7.3388087585509325,4.61526700436319,5.6914725081194035,-3.1650805271371416
7.384961428594565,4.489887961667211,5.659821702848032,-2.9076216208697923
7.429860308211237,4.379101537010391,5.630745486639334,-2.668248997648896
7.473651323581341,4.280455838414462,5.6040629966628455,-2.444289346853375
7.516455881965485,4.191905315620667,5.579620103194312,-2.233695875174079
7.558374935121692,4.111713716767621,5.557283144442572,-2.0349183025283883
7.599492072289368,4.0383823275052375,5.536933961417287,-1.846803643680749
7.63987589556442,3.9705972951073454,5.51846592498048,-1.6685189340441333
7.679581868515493,3.9071914733353825,5.501780735640039,-1.49948934783731
7.718653783248847,3.8471174367429644,5.486785842161666,-1.3393469625422942
7.757124957616276,3.789429162419302,5.473392372536243,-1.187886814540079
7.795019249240469,3.7332704467193816,5.461513504390842,-1.0450279667103821
7.832351953707663,3.677868492545822,5.451063224723738,-0.9107781518252496
7.869130638633122,3.6225313349238712,5.441955443205486,-0.7852012204415665
7.905355951982361,3.5666479224950622,5.43410343100107,-0.668387139058577
7.941022431207311,3.5096897828848572,5.427419559610484,-0.5604246667786602
7.97611932903616,3.4512133031695678,5.421815312942697,-0.4613770908067152
8.010631462067856,3.390861774963838,5.41720154203463,-0.37126152561568826
8.044540079817494,3.328366498404982,5.413488926778473,-0.2900322848113832
8.077823744801544,3.2635464116968826,5.410588603930359,-0.21756873411390337
8.110459208918513,3.1963059052977263,5.40841291658922,-0.15366785280377657
8.14242226797149,3.126630678562987,5.406876238061182,-0.09804150075776069
8.17368857475712,3.054581685221977,5.405895823053604,-0.050318143081232065
8.20423439160934,2.9802873767683935,5.405392641622791,-0.010048556735253351
8.234037265377024,2.903934577628569,5.405292156055439,0.023285140381702284
8.26307661115331,2.825758406191692,5.405525007459256,0.050257920741823836
8.291334195215226,2.746031690649164,5.406027586666674,0.0714885776582701
8.318794512121718,2.6650543224199597,5.406742472443257,0.08762558487232694
8.345445055345918,2.5831429506779595,5.407618728291981,0.09933285144280718
8.371276484852697,2.500621358917707,5.408612056806409,0.10727603350229323
8.396282698441874,2.417811788545388,5.409684817141432,0.11210993455655907
8.420460816327328,2.335027394045375,5.410805916486998,0.11446738562432572
8.443811090267781,2.2525659364374464,5.411950590343241,0.11494985808826069
8.466336749632156,2.1707047515425826,5.413100088924123,0.114119935016125
8.488043797147581,2.0896969700983887,5.414241288274284,0.11249565707523697
8.508940766848564,2.009768919442254,5.415366244845036,0.11054667027672635
8.529038456042986,1.9311186014837378,5.416471711547803,0.10869203556698606
8.548349642057824,1.8539151183090665,5.417558631903473,0.10729951389924375
8.566888793240915,1.7782989037365204,5.4186316270424655,0.10668611285211049
8.58467178227828,1.7043826149065133,5.419698488170987,0.10711966939816839
8.601715608427345,1.6322525408625592,5.420769684864968,0.10882124502978241
8.61803813383597,1.5619703933905968,5.421857897315266,0.11196812105394913
8.633657837769876,1.493575357567216,5.422977578525805,0.11669720057440414
8.648593591345549,1.427086294114414,5.424144550531549,0.12310864689092471
8.662864454286693,1.3625040015566032,5.425375637000458,0.13126961354727287
8.676489494302258,1.299813462324649,5.426688333135931,0.14121794725129924
8.689487628925505,1.2389860125684842,5.428100512608443,0.15296576999171696
8.70187748905119,1.1799813899497336,5.429630170308361,0.16650286989753485
8.713677302950687,1.1227496267054085,5.431295199007336,0.1817998510905946
8.724904799217741,1.0672327665864954,5.433113197518242,0.1988110106291059
8.735577126883607,1.0133663938028465,5.435101307624533,0.21747692552987402
8.745710790821635,0.961080969878275,5.437276076879832,0.2377267448699048
8.755321600520418,0.9103029804465502,5.439653344328531,0.2594801913128703
8.764424630324884,0.8609558986624033,5.44224814624166,0.2826492833720884
8.773034189311508,0.8129609752542427,5.445074639075381,0.3071397946410621
8.78116379906405,0.7662378675116523,5.448146037021791,0.3328524694393278
8.788826177739166,0.7207051208835875,5.451474561716185,0.35968401616972623
8.796033228948001,0.6762805175536154,5.455071401877882,0.38752790047319696
8.802796034123537,0.6328813065298413,5.458946680882614,0.41627496027559696
8.809124847188835,0.5904243295914846,5.46310943048537,0.4458138642874876
8.81502909048475,0.5488260570013518,5.467567569128245,0.47603143464418
8.820517351054763,0.5080025463318318,5.472327883474686,0.5068128533253907
8.82559737651808,0.4678693371492819,5.47739601200794,0.5380417709045511
8.830276069889573,0.42834129372711427,5.482776429716986,0.5696003351508996
8.834559482826844,0.3893324074645359,5.488472433068495,0.601369156121487
8.83845280690149,0.3507555703143462,5.494486124629709,0.6332272236919507
8.841960362604633,0.3125223302953413,5.500818396866629,0.6650517930224888
8.845085585907587,0.2745426400970676,5.507468914796854,0.6967182532605389
8.847831012308557,0.23672460988039842,5.514436097329459,0.7280999948508229
8.85019825840736,0.19897427562948572,5.521717097277968,0.7590682911487057
8.852188001163656,0.16119539480078104,5.529307780189455,0.7894922105914601
8.853799955111663,0.12328928151283419,5.537202702295369,0.8192385764353083
8.855032847926791,0.08515469408318027,5.545395088059722,0.848171991957775
8.855884394867623,0.04668778828809963,5.5538768079793,0.8761549499790099
8.856351272750503,0.007782150223898721,5.5626383574790905,0.9030480464745873
8.856429094252743,-0.031671077005460624,5.571668837943837,0.9287103188145736
8.856112383482689,-0.07178295846693174,5.5809559411319825,0.9529997296234564
8.85539455389802,-0.1126664104390481,5.590485938428217,0.975773817243039
8.854267889793629,-0.15443570813491517,5.600243676600647,0.9968905331047218
8.85272353271228,-0.19720584641528005,5.610212581931695,1.01620928477282
8.850751474248128,-0.24109174409114983,5.6203746747794225,1.0335922007958154
8.848340556807216,-0.28620728563954084,5.630710596787381,1.0489056295964283
8.84547848395082,-0.3326641984127517,5.641199653083345,1.062021879272027
8.842151841966693,-0.38057076876536944,5.651819871876065,1.072821198245562
8.838346134279039,-0.43003040694218947,5.662548083858521,1.0811939881667336
8.834045830209616,-0.481140077965847,5.673360023740188,1.0870432303874336
8.829234429429958,-0.5339886239318229,5.684230456044062,1.0902870959377935
8.82389454319064,-0.588655011739573,5.6951333270034405,1.0908616965841722
8.818007993073245,-0.6452065489198705,5.706041943969282,1.08872392180576
8.811555927584045,-0.7036971183069133,5.7169291831873394,1.0838542940977545
8.804518956400976,-0.7641654892111391,5.727767726128317,1.0762597637536333
8.796877301508864,-0.8266337677955908,5.738530323765853,1.0659763551457535
8.788610963830909,-0.891106051885158,5.74919008731731,1.0530715704781535
8.779699903312057,-0.9575673548771018,5.759720803022092,1.0376464549162916
8.770124229763287,-1.025982859377593,5.770097267571255,1.0198372296100742
8.75986440116951,-1.0962975535122772,5.780295639867355,0.9998164068353093
8.748901425634388,-1.1684362916999806,5.790293803935708,0.9777933143255366
8.737217062717388,-1.242304307516283,5.800071737078964,0.9540139734629033
8.724794019642225,-1.3177881899024932,5.809611876813593,0.928760297519955
8.7116161377432,-1.3947573164519012,5.818899479788792,0.9023486003843094
8.69766856457868,-1.4730657200526962,5.827922965792635,0.8751274316628351
8.682937907378154,-1.5525543490527207,5.8366742401092635,0.8474747791240987
8.667412363887626,-1.6330536675083405,5.8451489879005045,0.8197947025087373
8.651081827212543,-1.7143865319364902,5.853346934925592,0.7925134824407166
8.633937961893178,-1.7963712749245526,5.861272069749999,0.766075383492589
8.615974249143932,-1.8788249241955248,5.868932823584925,0.7409381408407254
8.597185999901976,-1.9615664881034278,5.876342204993332,0.7175682853375002
8.577570335020942,-2.0444202445151234,5.883517887846707,0.6964364226432869
8.55712613257579,-2.127218978816733,5.89048225207314,0.6780125791024453
8.535853942787623,-2.209807127407419,5.897262377864164,0.6627617213681062
8.513755871513549,-2.292043794525121,5.903889995077845,0.6511395495363521
8.490835433568298,-2.3738056216977204,5.910401390573209,0.6435886558506048
8.46709737735132,-2.454989499834451,5.916837277131715,0.6405351338197062
8.442547482352976,-2.5355151235359976,5.923242628469912,0.6423857165402493
8.417192331117617,-2.615327395474215,5.929666485635314,0.6495255185145925
8.391039057162875,-2.6943986958343067,5.93616174082046,0.6623164524212528
8.364095070204531,-2.7727310382456305,5.942784905344673,0.6810963910147874
8.336367759822075,-2.8503581399820304,5.9495958692548205,0.7061791443738922
8.307864178422255,-2.927347441262724,5.95665766069856,0.73785532383956
8.278590704009629,-3.0038021170846614,5.964036213936955,0.7763941660738838
8.248552682838783,-3.079863136048791,5.971800155597694,0.8220463938603754
8.217754051478295,-3.1557114349824382,5.9800206195362975,0.8750481950617817
8.18619693712847,-3.23157029667449,5.988771101486916,0.9356264085183621
8.153881234161725,-3.3077080416142417,5.998127365572099,1.0040050171130794
8.120804153745583,-3.3844411742277183,6.008167415743229,1.080413065845388
8.086959742003305,-3.4621381608931268,6.0189715464016835,1.165094149265295
8.052338360394375,-3.5412240624690434,6.030622487894337,1.2583176514033072
8.016926119769684,-3.6221863001455796,6.04320566440837,1.3603919764475543
7.980704256768228,-3.705581902729238,6.0568095841728455,1.4716800846079021
7.9436484377409355,-3.7920466693402273,6.071526385018925,1.5926177502312184
7.905727971047534,-3.8823067879780555,6.087452562521237,1.7237350940213396
7.866904903167753,-3.977193581820086,6.10468991346145,1.8656821135224486
7.827132967349552,-4.077662214824997,6.123346734596675,2.0192591489446627
7.786356345201302,-4.184815375616982,6.143539326086121,2.1854534714364555
7.744508191445132,-4.299933162363533,6.165393860800486,2.3654834482327205
7.701508859821497,-4.424510574486938,6.189048695282813,2.5608519665999836
7.657263754076628,-4.560304085195575,6.214657214948813,2.773410846648166
7.611660713224673,-4.709388502072061,6.242391323415295,3.0054375238318842
7.564566828203952,-4.874224230259179,6.2724456986536135,3.259723633585634
7.51582458590136,-5.057732060526189,6.30504293498947,3.5396707594617824
7.465247265296098,-5.263365391805468,6.340439642584088,3.8493782329489434
7.412613611378043,-5.495153393127512,6.378933424913577,4.193684492337588
7.357662077446768,-5.7576525187622085,6.420870269836953,4.578072358780309
7.300085552259145,-6.055666568072696,6.466650993424755,5.008239547833426
7.239528886578419,-6.393436585996192,6.51673338890309,5.488911927951315
7.175594520718457,-6.772699400755519,6.571622508182603,6.021051772865483
7.107867526710902,-7.188538464838062,6.631833025911258,6.595946805687925
7.0359821420625215,-7.621613593975841,6.697792493968137,7.184198102606188
6.959766006122763,-8.02682113272283,6.7696344749941995,7.71970359173602
6.879497794795535,-8.32606214799564,6.84683151091156,8.08950282486334
6.796237173315578,-8.427697953390053,6.927726539160194,8.161367081695344
6.711960193781678,-8.288276542372442,7.009340209977147,7.871144805171369
6.629077428357954,-7.961604744631694,7.08805165802886,7.292450468529746
6.549461380911637,-7.5568201856013975,7.1609761627141575,6.578102499877255
6.473893179055623,-7.160448837569337,7.22675718771293,5.850319909813589
6.40228869067993,-6.812519383403926,7.285260386811066,5.1665144225060775
6.33416349684589,-6.522581449982441,7.336925531036127,4.5412908552070785
6.268937682346065,-6.287209549606485,7.382338439588198,3.970847614554608
6.20606558685,-6.099154917296264,7.422046915733744,3.4458431467675004
6.145074037677038,-5.950934688154996,7.456505347201419,2.9565239891984576
6.085564690795488,-5.8359370274922115,7.486070587093403,2.4943794472603513
6.027205320520566,-5.7485923256573574,7.511014381566007,2.052480057008556
5.969719397263993,-5.684243052283486,7.531539182136092,1.6253833167900908
5.912876966741158,-5.638946082753685,7.547793015303993,1.208934040084433
5.856487505913621,-5.609286189307006,7.559882355704837,0.8000688682138837
5.8003946440205505,-5.592222591552015,7.567883044386976,0.39665371607504285
5.744472418105031,-5.584971080787751,7.571849581547727,-0.0026452723073308593
5.688622707297153,-5.5849185187018815,7.571823128824653,-0.39846523932404343
5.632773522110134,-5.5895654422977055,7.567838476431413,-0.7908339638125065
5.576877867687157,-5.596492725991492,7.559930136793287,-1.1792492342892325
5.520912940427243,-5.603348576100215,7.548137644450395,-1.5627563758576215
5.4648794546662405,-5.607852228955225,7.532510080691819,-1.940027736458483
5.408800932376688,-5.6078105997081025,7.513109803327234,-2.3094456304832724
5.352722826379607,-5.601143927893322,7.490015347022402,-2.6691881582779344
5.296711387100674,-5.585916366342747,7.463323465439622,-3.0173156726725874
5.240852223437247,-5.560367612304661,7.433150308712896,-3.3518546261754047
5.1852485473142,-5.522942162077816,7.399631762451142,-3.670875208354113
5.130019125693422,-5.472313567890985,7.3629230103676,-3.9725595600364576
5.075295990014512,-5.407402083605223,7.323197414767236,-4.255258289935234
5.02122196917846,-5.327385140020927,7.280644831867884,-4.517534279841007
4.967948117778251,-5.2317010132584265,7.235469489069473,-4.758194061697669
4.915631107645667,-5.1200466961508635,7.187887548452497,-4.976308121518289
4.864430640684159,-4.992371275468792,7.138124467237314,-5.171222148719564
4.814506927929471,-4.848866060127324,7.086412245750118,-5.342561433256928
4.766018267328198,-4.689952372421648,7.032986631417549,-5.490230356337525
4.719118743603981,-4.5162674290816485,6.978084327854173,-5.6144083494306445
4.6739560693131645,-4.328648242049007,6.921940244359867,-5.715542984351877
4.630669586892674,-4.128113087974869,6.864784814516348,-5.7943401837195925
