th1 (rad),w1 (rad/s),th2 (rad),w2 (rad/s)
1.4594850477245853,-2.392101797794302,6.074591490068874,-0.9791167627030343
1.4355640297466423,-2.4909810235833074,6.064800322441844,-0.9114755933148316
1.4106542195108092,-2.589114694702868,6.0556855665086955,-0.8365587826196238
1.3847630725637805,-2.6865780434709485,6.047319978682499,-0.7541324297621852
1.357897292129071,-2.7834816273218563,6.039778654384878,-0.6639708445585766
1.3300624758558526,-2.8799758600010357,6.033138945939292,-0.5658535447764669
1.3012627172558422,-2.9762558252861258,6.027480410491528,-0.4595611367883453
1.2715001590029809,-3.0725664260565564,6.022884799123644,-0.3448699199420818
1.2407744947424153,-3.1692079446608417,6.019436099924223,-0.2215450490449427
1.2090824152958068,-3.266542117111426,6.017220649433774,-0.08933208534644183
1.1764169941246925,-3.364998851889987,6.01632732858031,0.05205323377179355
1.1427670056057926,-3.4650837504176626,6.016847860918028,0.20293716831737985
1.108116168101616,-3.5673866036031208,6.018877232601201,0.3637022297861311
1.0724423020655849,-3.6725910346083634,6.022514254899063,0.5348035952381268
1.0357163917195011,-3.781485409063026,6.027862290851444,0.7167876379755606
0.9979015376288709,-3.8949749990363673,6.0350301672311994,0.9103122861985558
0.9589517876385072,-4.014095091867402,6.0441332900931855,1.1161684486903216
0.9188108367198332,-4.140024146247494,6.055294974580089,1.3353008588699191
0.8774105952573583,-4.274094977249501,6.068647983168788,1.5688250482896704
0.8346696454848633,-4.41779987421049,6.084336233651684,1.8180341679817957
0.7904916467427584,-4.572781770409688,6.102516575331502,2.0843839752067974
0.7447638290386616,-4.740796794873163,6.12336041508357,2.3694346745464214
0.69735586108993,-4.923621594659732,6.147054761829034,2.674711438538665
0.6481196451433326,-5.122858453463661,6.173801876214421,3.001416783674822
0.596891060608696,-5.339558450737147,6.20381604405117,3.3498820257634288
0.5434954761013245,-5.57353607426376,6.237314864308804,3.71857972864524
0.4877601153586869,-5.822200106345888,6.274500661595256,4.102452171185672
0.42953811429522804,-6.0787337476565515,6.315525183307113,4.49032562503934
0.36875077681866253,-6.329691792461317,6.360428439557506,4.861517306241763
0.30545385889404936,-6.55287459998951,6.409043612619923,5.182867541531852
0.23992511289415425,-6.717902516297656,6.460872288035242,5.409644299891639
0.17274608773117767,-6.793116194253117,6.514968731034158,5.495460585896162
0.1048149257886465,-6.759451434105804,6.56992333689312,5.412114743159218
0.03722041144758846,-6.622875831947563,6.624044484324712,5.167412861222924
-0.029008346871887164,-6.412710165617269,6.675718612936942,4.802953744626534
-0.09313544852805986,-6.166173800102184,6.723748150383207,4.372249996616705
-0.1547971865290817,-5.91356494189611,6.767470650349374,3.9195548024338165
-0.2139328359480428,-5.673189355163864,6.806666198373712,3.4724091859116877
-0.27066472949968146,-5.453414939188915,6.8413902902328285,3.044335310399054
-0.3251988788915706,-5.256490406620254,6.871833643336819,2.6401325957803907
-0.3777637829577732,-5.081530787237799,6.898234969294623,2.2600746805656198
-0.42857909083015117,-4.926300000723466,6.920835716100279,1.9024446546444769
-0.4778420908373858,-4.788135253916243,6.939860162646724,1.5648696460317923
-0.5257234433765483,-4.664378987935781,6.9555088591070415,1.2449588158365232
-0.5723672332559061,-4.55255679404075,6.967958447265406,0.940576672101343
-0.6178928011963136,-4.450433332155482,6.977364213986419,0.6499369103234189
-0.6623971345178684,-4.3560139462513146,6.983863583089653,0.37161253459999855
-0.7059572739803815,-4.267525086424622,6.9875797084356535,0.10450964832430437
-0.7486325248446277,-4.18338904046739,6.988624804918897,-0.1521724373196655
-0.7904664152493016,-4.102199775215536,6.9871030805457,-0.39898439705034616
-0.8314884130014569,-4.0227024800542015,6.983113236575197,-0.6362689384846388
-0.8717154378019989,-3.9437774224742803,6.976750547190351,-0.8642000276564522
-0.9111532120267417,-3.8644278323433325,6.968108546913786,-1.0828188428449033
-0.949797490350175,-3.7837711665332785,6.957280358485337,-1.2920664862348763
-0.9876352020155078,-3.701032994207673,6.944359693622989,-1.491813619213204
-1.0246455319575845,-3.615542752196972,6.929441557430857,-1.6818871792526482
-1.0608009594795542,-3.526730685313162,6.91262268563833,-1.8620942819448905
-1.096068266332686,-3.434125377266155,6.894001742818881,-2.032243356645013
-1.1304095201053475,-3.3373513787957956,6.873679309252431,-2.192162527546209
-1.1637830338933055,-3.236126542644301,6.8517576839769685,-2.3417152391503437
-1.1961442993197484,-3.13025877521357,6.828340531585465,-2.480813134349157
-1.2274468870718842,-3.019642008874009,6.8035324002419735,-2.6094262197502323
-1.2576433071606243,-2.9042512845287036,6.777438138044471,-2.727590390489436
-1.2866858200059115,-2.784136909530833,6.750162234139577,-2.8354124298170507
-1.3145271891012198,-2.659417720411432,6.721808109841406,-2.933072642399272
-1.341121366305334,-2.5302735326991916,6.692477383417414,-3.0208253209074454
-1.366424101632326,-2.3969369014746764,6.662269130208339,-3.0989972806245967
-1.3903934706470726,-2.2596843465894008,6.631279157402093,-3.167984725027161
-1.4129903141129667,-2.1188272162647297,6.599599310151822,-3.2282487258761727
-1.434178586275614,-1.9747023727131952,6.56731682289306,-3.2803096140335617
-1.453925610002746,-1.8276628841781022,6.534513726752724,-3.3247405820549623
-1.472202238844527,-1.6780689000995117,6.501266320932174,-3.362160796840685
-1.4889829278455222,-1.5262788708211783,6.467644712963768,-3.3932283106594356
-1.504245716553734,-1.3726412513510127,6.433712429857174,-3.4186330422985
-1.517972129067244,-1.2174868013774023,6.399526099434189,-3.439090077779627
-1.5301469970810182,-1.0611215624320776,6.365135198656392,-3.4553335131090632
-1.540758212705339,-0.9038205593508537,6.3305818635253015,-3.46811103123437
-1.5497964182988475,-0.745822238681767,6.295900753212957,-3.4781793732480257
-1.557254640685665,-0.5873236230905746,6.261118959480477,-3.486300831426121
-1.5631278769165708,-0.4284761296968156,6.226255951166216,-3.493240860298068
-1.567412638213539,-0.2693819730887883,6.191323542563236,-3.4997668726497904
-1.5701064579444268,-0.11009105184798382,6.156325873836738,-3.5066482606400466
-1.5712073684629067,0.04940179790569657,6.121259391230337,-3.5146576576883417
-1.5707133504838497,0.2091593055917675,6.086112814653454,-3.5245734329071072
-1.568621757427932,0.3693041462936961,6.050867080324383,-3.537183383321839
-1.564928715964995,0.5300213012387567,6.015495246491165,-3.553289554157709
-1.5596285029526074,0.6915604650641296,5.979962350949588,-3.573714064469623
-1.552712898301966,0.8542384998172635,5.944225210304892,-3.5993057288407013
-1.5441705133037933,1.0184418231806307,5.908232153016485,-3.6309471209216966
-1.533986095071987,1.1846284330750252,5.871922681807268,-3.6695614815424236
-1.5221398107412367,1.3533289689011612,5.835227066991844,-3.716118469763394
-1.508606521052225,1.525145721224654,5.7980658822942095,-3.771637089347008
-1.4933550638399784,1.7007477163497695,5.760349511400739,-3.8371830386935573
-1.4763475866764808,1.880858750253622,5.721977681013803,-3.913855988410837
-1.4575389991739447,2.0662332772232177,5.682839121129695,-4.002759531774293
-1.4368766664017125,2.2576120291869635,5.642811525811952,-4.104942291500511
-1.4143005461098428,2.4556447528300485,5.601762102896947,-4.221292330305861
-1.3897440985815424,2.660761232331367,5.559549179593888,-4.352358204815906
-1.3631364862582287,2.872964240834979,5.516025597545728,-4.498059291218994
-1.3344068438498788,3.0915117717617733,5.471045004633538,-4.657238921624307
-1.3034917261322612,3.314458472006241,5.4244726154172955,-4.827017076401927
-1.2703471414121987,3.5380552067263116,5.376202444653276,-5.001939555925349
-1.2349665893449355,3.7560924143790317,5.3261830490940225,-5.1730417770810035
-1.197405665201145,3.959451473540592,5.2744526313232125,-5.327195978409187
-1.1578111504657391,4.136378844276332,5.221180671539121,-5.447463767042341
-1.1164473620229758,4.274124792069748,5.166706033868698,-5.515358389179842
-1.0737061141022783,4.362165483252398,5.111552449976899,-5.515334277820927
-1.0300844592697544,4.396001914279846,5.05639910719869,-5.440108518076471
-0.986124440126956,4.379320953811326,5.001998022017925,-5.29372343745758
-0.9423312305888427,4.3228281904529196,4.949060787643349,-5.089982289601803
-0.8991029486843135,4.2404622444151086,4.898160964747331,-4.847234389058004
-0.8566983262401624,4.145454778020504,4.8496886208567505,-4.582932815813322
-0.8152437784599573,4.0480663675605575,4.8038592926986174,-4.310506756491854
-0.7747631147843518,3.955132877255882,4.760754225133699,-4.038734810660091
-0.7352117860117929,3.8706329366882795,4.7203668770270975,-3.772525531054601
-0.6965054566449101,3.7965310681397337,4.682641621716551,-3.5140752724094066
-0.6585401459635128,3.733516800330838,4.6475008689924575,-3.2638811065691815
-0.6212049779602045,3.681535881798393,4.614862057926766,-3.021467586488465
-0.5843896191422205,3.640133336448609,4.584647382061881,-2.785855997527901
-0.5479882857777345,3.608660057638043,4.556788822086602,-2.5558480112826776
-0.511901685201354,3.5863902225823177,4.531230341973775,-2.33018904793939
-0.47603778297553084,3.572583720162878,4.507928451494381,-2.1076583476832336
-0.4403119457739021,3.566515909536031,4.486851868017549,-1.8871162787237044
-0.40464678667854176,3.567488517734967,4.467980705230312,-1.6675276493212954
-0.3689719015011921,3.574829967198133,4.4513054287371,-1.4479721745455638
-0.33322360182921074,3.587890027778614,4.436825706991644,-1.227648548527831
-0.2973447015514246,3.606031660613513,4.424549221506365,-1.0058757433298742
-0.2612843849452895,3.6286217377596115,4.414490464073066,-0.7820934702280556
-0.22499816756769336,3.655021644654479,4.406669529370785,-0.5558627366704614
-0.18844795112114857,3.6845783945038537,4.40111090200408,-0.3268668321376325
-0.15160216717611003,3.716616678694649,4.397842233682704,-0.09491271335545848
-0.11443600038916353,3.750432169063867,4.396893106549149,0.14006746120762023
-0.07693167869852485,3.7852863297727386,4.398293781161225,0.3780150287485163
-0.03907881540079747,3.8204029598607967,4.402073931448711,0.618744202458458
-0.0008747858021894983,3.854966654450009,4.408261373473295,0.8619426083595277
0.03767488074231059,3.888123332411973,4.416880799556891,1.1071734343180752
0.07655611406643031,3.918982925739807,4.427952533900071,1.3538795924504734
0.11574594332382838,3.9466242597510037,4.441491329824576,1.6013902092326984
0.15521218592133842,3.970102076008729,4.457505231916903,1.8489296443119025
0.1949132066814257,3.9884560667415476,4.4759945283600215,2.0956291080920817
0.23479776734884117,4.000721707682631,4.496950819440943,2.3405408109910124
0.2748049844256675,4.0059426033355825,4.520356227550852,2.5826544466671484
0.3148644104590233,4.003184001485629,4.546182772017524,2.8209156999602882
0.35489625047387957,3.9915470967110376,4.574391929017127,3.0542463877231474
0.39481172144098997,3.970183726610672,4.604934392894358,3.2815657925544612
0.4345135587070967,3.938311066400915,4.6377500508199025,3.501812735236175
0.47389666937110586,3.895225940881796,4.672768178172264,3.7139679449395073
0.5128489287799238,3.8403183887880705,4.709907857621659,3.917076315612377
0.5512521126678045,3.7730841243838915,4.749078620777783,4.110268668510842
0.5889829539116435,3.693135538281405,4.790181307462891,4.292782661442739
0.6259143092944575,3.600210861798101,4.8331091340773185,4.463982485949742
0.6619164179124385,3.494181090544171,4.877748958936816,4.623376972311075
0.6968582288178802,3.375054233245726,4.923982728659927,4.77063568528266
0.7306087711503374,3.2429764357060176,4.971689085512753,4.9056025553419556
0.7630385355073975,3.0982295439243464,5.020745111066172,5.0283065710970805
0.794020830946641,2.941224729594215,5.071028176777143,5.13896908039742
0.8234330782425832,2.7724919145143607,5.122417867581118,5.238007329313571
0.8511579973877268,2.5926648976443727,5.174797940874253,5.326034020272118
0.8770846463641705,2.4024622983179706,5.228058281076974,5.403852892409874
0.9011092693473503,2.202664659544906,5.282096810001073,5.472450605037608
0.9231359159427993,1.994088276675866,5.336821316051449,5.532985514166591
0.943076798709558,1.777556496381981,5.392151171193115,5.586774240602101
0.9608523636733778,1.553869339316941,5.448018913599136,5.635277203457205
0.9763910570665472,1.3237723159434271,5.504371685633708,5.680084507773278
0.9896287802259814,1.0879252203406096,5.561172530711441,5.722903712312
1.0005080324293876,0.8468715072219561,5.618401567834561,5.7655510592215045
1.0089767475016072,0.601008602719691,5.676057078426776,5.809947728145208
1.0149868335288041,0.35055920219751685,5.734156555708228,5.8581225960199115
1.0184924255507792,0.09554331332363758,5.792737781668428,5.912222847951148
1.0194478586840157,-0.16424942849347107,5.851860010147939,5.974533579595528
1.017805364399081,-0.42928771990767695,5.911605345943894,6.0475071918373855
1.0135124872000043,-0.7003271341427394,5.9720804178622675,6.133802736346764
1.0065092158585769,-0.9784387198084815,6.033418445225736,6.2363340590445775
0.9967248286604921,-1.2650351242268563,6.095781785816182,6.3583228540283425
0.9840744774182235,-1.5618874597109285,6.159365014356465,6.503347075409781
0.9684556028211142,-1.8711174907865744,6.224398485110562,6.675363587969019
0.9497444279132484,-2.1951325788320197,6.291152120990253,6.878660722104112
0.9277931021249283,-2.536437540143376,6.359938728211294,7.117650800501165
0.9024287267234945,-2.8971950607222747,6.431115236216305,7.396326177615232
0.8734567761162717,-3.278296317341877,6.505078497992458,7.717048620857639
0.8406738129428529,-3.6775369112880827,6.582248984201034,8.078106341163336
0.8038984438299721,-4.086338159274762,6.663030047612668,8.469246405690406
0.7630350622372245,-4.484668955110678,6.747722511669572,8.864666365225666
0.7181883726861177,-4.835456753731541,6.8363691753218285,9.215184290240197
0.6698338051488023,-5.084296002819794,6.928521018224231,9.447560547650344
0.6189908451206043,-5.175197301021217,7.022996623700735,9.485822975958804
0.5672388721103921,-5.084160752068343,7.117854853460322,9.297103241885809
0.5163972645897087,-4.84204642633734,7.2108258858791805,8.922663746481597
0.46797680032633526,-4.515031547699402,7.300052523343997,8.450770714490915
0.42282648484934127,-4.164437757263619,7.384560230488906,7.961972711163899
0.3811821072767051,-3.8270915892553634,7.464179957600544,7.503101712572754
0.34291119138415144,-3.5185706856182835,7.539210974726272,7.092413807718738
0.3077254845279686,-3.242456698400172,7.61013511280346,6.732465350634561
0.2753009175439669,-2.9970434066578138,7.677459766309805,6.419217520505853
0.24533048347738876,-2.77882527802527,7.7416519415148635,6.14665579288478
0.21754223069713605,-2.584030649099592,7.803118499443711,5.908746864112972
0.19170192420614013,-2.4092038291701625,7.86220596808484,5.7001291697611105
0.1676098859144385,-2.251372474844123,7.919207259782452,5.516267776748273
0.14509616116599727,-2.1080494728332586,7.974369937549934,5.353406422281205
0.12401566643766468,-1.977177482661936,8.027904001772747,5.208457339246893
0.10424389161104532,-1.857060571173292,8.079988575165215,5.078884323063004
0.08567328589931239,-1.7462997602130965,8.130777418395844,4.962598437116937
0.06821028829718143,-1.6437377363864452,8.180403402767014,4.857871148090306
0.05177291093331697,-1.5484133565035783,8.228982114247918,4.7632641884595355
0.03628877736828119,-1.4595249274937916,8.276614756132513,4.67757371461396
0.021693528093343274,-1.3764008066368212,8.323390493278653,4.599786083760806
0.007929520026975062,-1.298475908136758,8.36938835411626,4.529042853348734
-0.00505523905439252,-1.2252728986719297,8.414678782649748,4.464613023279773
-0.017307968041111815,-1.1563870889581662,8.459324912882545,4.405870945296276
-0.028871838930693478,-1.0914742329353335,8.503383622335509,4.352278667886942
-0.03978658126004681,-1.0302406173303893,8.546906409014378,4.30337176125455
-0.050088987433350704,-0.9724349619566593,8.589940126626923,4.258747882170073
-0.0598133370529173,-0.9178417597111225,8.632527605448624,4.218057503608326
-0.06899175465002852,-0.8662757703174724,8.674708180484707,4.18099635943089
-0.07765451235320324,-0.8175774484508408,8.716518144079016,4.147299249078023
-0.08583028683771164,-0.7716091390565273,8.757991136569796,4.116734918618775
-0.09354637822827691,-0.7282519135245166,8.799158485755983,4.089101788527188
-0.10082889736352207,-0.6874029520680571,8.840049503641255,4.064224340045383
-0.10770292688420265,-0.6489734015633007,8.880691747041709,4.041950004996091
-0.11419266089983565,-0.6128866550258614,8.92111124709167,4.022146431825477
-0.12032152745009426,-0.5790770092479908,8.961332711409923,4.004699026312001
-0.12611229754257416,-0.5474886612284044,9.001379701673043,3.989508690892108
-0.1315871841548582,-0.5180750024610988,9.041274788581964,3.976489713128449
-0.1367679341794692,-0.49079816401944676,9.081039685713248,3.9655677814916506
-0.14167591581966366,-0.4656287565402436,9.120695363528165,3.9566781339963204
-0.14633220338506608,-0.44254574029207255,9.16026214486813,3.9497638697116138
-0.1507576607879868,-0.42153635456469685,9.199759783565245,3.9447744713441897
-0.15497302433363377,-0.4025960355484698,9.239207528278687,3.9416645956174006
-0.15899898468911847,-0.3857282596618506,9.278624174234862,3.9403931848397944
-0.16285626728573696,-0.3709442652765626,9.31802810608326,3.940922937773702
-0.1665657099385026,-0.3582626283646435,9.357437335460997,3.9432201531542406
-0.17014833622214903,-0.3477086934024771,9.39686953699254,3.947254929692028
-0.1736254231561738,-0.33931388563961595,9.43634208628946,3.9530016780059567
-0.17701856201256996,-0.33311495049512735,9.47587210306952,3.9604398782194163
-0.18034971151752124,-0.3291531775504832,9.515476501851714,3.9695550057123907
-0.18364124329302609,-0.32747366941041345,9.555172051908837,3.9803395479935952
-0.18691597998713022,-0.328124710547427,9.594975447388773,3.9927940465305114
-0.1901972270926045,-0.331157280473118,9.634903387854077,4.006928115507106
-0.1935087998973357,-0.33662474214063487,9.674972669009149,4.022761410974085
-0.19687504731874203,-0.3445827231686438,9.71520028311889,4.040324545109193
-0.20032087455042846,-0.3550891963852008,9.755603528569981,4.059659958706576
-0.20387176651428046,-0.3682047585086466,9.796200128157047,4.080822779223074
-0.20755381409936693,-0.38399310185253127,9.837008355949278,4.10388170155016
-0.21139374511789225,-0.4025216734844292,9.878047172964779,4.128919934823341
-0.21541896185273654,-0.42386251866818425,9.919336372313012,4.156036262162788
-0.21965758703941837,-0.44809330996988717,9.96089673493464,4.185346262537032
-0.22413852013911725,-0.4752985694883968,10.00275019756001,4.216983746156428
-0.22889150583400122,-0.5055710988389975,10.044920035021574,4.251102457952854
-0.2339472168223912,-0.5390136395406281,10.087431059601103,4.28787810860537
-0.23933735321779748,-0.575740795298013,10.130309840687158,4.3275107998841875
-0.2450947611707776,-0.615881257460605,10.173584948685999,4.370227921363204
-0.25125357374538365,-0.6595803859358623,10.21728722789963,4.416287609313875
-0.25784937760474225,-0.7070032103702587,10.26145010399277,4.46598287637264
-0.26491940970844485,-0.7583379308500087,10.306109932756497,4.519646542936423
-0.2725027890169449,-0.8138000140301203,10.351306398185862,4.577657128760476
-0.2806407891572461,-0.8736369996201382,10.397082969473466,4.6404458963911654
-0.28937715915344747,-0.938134153292112,10.443487428437377,4.708505277015902
-0.2987585006863686,-1.0076211242895303,10.490572481207536,4.782398953399827
-0.3088347119292639,-1.0824797867229166,10.538396470741535,4.8627739214238535
-0.3196595097964931,-1.163153457245851,10.587024209955773,4.950374895494659
-0.3312910443689516,-1.2501576775979082,10.63652795891072,5.046061451194101
-0.3437926211449307,-1.344092707421478,10.686988573422662,5.150828285604243
-0.3572335482191455,-1.4456577513121192,10.738496856278704,5.265828872286902
