th1 (rad),w1 (rad/s),th2 (rad),w2 (rad/s)
1.9023835928435695,2.8545582760504806,1.1018791742817837,-0.04782412767466044
1.9309291756040743,2.7455308090981334,1.1014009330050372,-0.000842710589904691
1.9583844836950557,2.640642816890013,1.101392505899138,0.03818046310293549
1.9847909118639557,2.5396096194931332,1.1017743105301674,0.06963542021998165
2.010187008058887,2.4421639525378893,1.1024706647323672,0.09391258094777974
2.0346086475842657,2.3480573983239967,1.103409790541845,0.11139530452088214
2.0580892215675055,2.2570602368683677,1.1045237435870539,0.12245540865730058
2.0806598239361893,2.1689603653726106,1.1057482976736268,0.12745064968542258
2.1023494275899153,2.083561712936698,1.107022804170481,0.1267234774395348
2.1231850447192824,2.0006824265268426,1.1082900389448764,0.12060060462977594
2.143191868984551,1.9201530026809983,1.1094960449911742,0.1093930845017562
2.1623933990113606,1.8418144717280722,1.1105899758361917,0.09339669507676035
2.1808115437286415,1.7655166965667186,1.1115239427869592,0.07289249864070693
2.1984667106943085,1.6911168188254673,1.1122528677733663,0.048147492269066824
2.2153778788825633,1.6184778664119897,1.112734342696057,0.019415296517512948
2.231562657546683,1.5474675246028164,1.1129284956612322,-0.013063149898625892
2.2470373327927113,1.4779570655965364,1.112797864162246,-0.0490589080722204
2.261816903448677,1.4098204272865449,1.1123072750815237,-0.08835437939092955
2.2759151077215423,1.342933429852002,1.1114237312876145,-0.13074267281541702
2.289344442020062,1.277173117913078,1.1101163045594604,-0.17602699970259533
2.302116173199193,1.2124172159777764,1.1083560345624344,-0.22402009475581486
2.3142403453589706,1.1485436854087547,1.1061158336148762,-0.2745436603716827
2.325725782213058,1.0854303719516118,1.1033703970111595,-0.3274278308760841
2.336580085932574,1.02295473385426,1.1000961187023985,-0.3825106526875444
2.346809633271117,0.9609936416814496,1.096271012175523,-0.43963757617745397
2.3564195696879313,0.899423242032669,1.0918746364137486,-0.4986609548279883
2.365413802108258,0.8381188784705094,1.0868880268654688,-0.559439547168059
2.373794990892963,0.7769550640395395,1.0812936313937882,-0.6218380168663484
2.381564541533358,0.7158055007914627,1.0750752512251247,-0.685726426264426
2.388722596541273,0.654543142725455,1.0682179869624804,-0.7509797185379153
2.3952680279685272,0.5930402995011752,1.0607081897771011,-0.8174771835818014
2.401198430963539,0.531168779185753,1.052533417941283,-0.8851019026334339
2.4065101187553966,0.4688000691552909,1.0436823989149486,-0.9537401665824584
2.4111981194469494,0.4058055550856317,1.0341449972491241,-1.023280862881532
2.415256174997806,0.34205677873457285,1.0239121886203089,-1.093614825977437
2.4186767427851517,0.27742573593454245,1.0129760403605346,-1.1646341462426602
2.421451000144497,0.2117852168746283,1.001329698898108,-1.2362314325176296
2.4235688523132435,0.1450091913443548,0.9889673845729317,-1.3082990235902396
2.425018944226687,0.0769732421258614,0.9758843943370292,-1.3807281442605623
2.425788676647946,0.0075550501394528735,0.9620771128944237,-1.4534080020854474
2.4258642271493405,-0.06336506475095209,0.9475430328735692,-1.5262248214931287
2.425230576501831,-0.13590354320629697,0.932280784658638,-1.5990608127275392
2.423871541069768,-0.21017292210042743,0.9162901765313626,-1.671793074053794
2.421769811848764,-0.286281102590539,0.8995722457908246,-1.744292426860347
2.4189070008228586,-0.36433054719347,0.8821293215222211,-1.8164221847613182
2.415263695350924,-0.4444174032368024,0.863965099674608,-1.888036859566643
2.410819521318556,-0.5266305511283912,0.8450847310789416,-1.9589808090793344
2.405553215807272,-0.6110505773372987,0.8254949229881482,-2.029086834126768
2.399442710033899,-0.6977486738483082,0.8052040546468805,-2.0981747350596174
2.392465223295416,-0.7867854681836214,0.7842223072962843,-2.166049841172425
2.38459736861358,-0.8782097909157073,0.76256180888456,-2.23250153011601
2.3758152707044227,-0.9720573909520086,0.7402367935834,-2.297301758369395
2.3660946967949026,-1.0683496127694116,0.717263775999706,-2.360203628181421
2.3554112006672083,-1.1670920542100822,0.6936617397178918,-2.420940021016368
2.3437402801251075,-1.268273228393522,0.6694523395077281,-2.4792223323480034
2.3310575478411724,-1.3718632586975064,0.644660116184248,-2.5347393475089053
2.317338915254197,-1.4778126415250057,0.6193127227091589,-2.5871563030405804
2.302560788838947,-1.5860511175802823,0.5934411596787531,-2.6361141823821415
2.286700277663144,-1.6964866984598612,0.5670800178549317,-2.681229298509586
2.2697354106785457,-1.8090049013160578,0.5402677248698358,-2.7220932189726517
2.251645361665385,-1.9234682499239772,0.5130467926801092,-2.758273090302166
2.2324106791661453,-2.0397161053908164,0.48546406177708756,-2.7893124185635365
2.2120135181122373,-2.157564893669551,0.4575709375914522,-2.814732360459203
2.190437869175542,-2.2768087996340127,0.42942361398686013,-2.834033574353166
2.167669781179202,-2.3972209983823047,0.40108327824332846,-2.846698672405651
2.143697571195379,-2.5185554933051506,0.37261629151927195,-2.852195303165321
2.1185120162623274,-2.6405496269486304,0.3440943384876187,-2.8499798779868186
2.092106519992841,-2.7629273245204202,0.31559453970775053,-2.839501934080546
2.0644772467476367,-2.8854031208048756,0.28719952036694507,-2.8202091014889152
2.0356232155395877,-3.007687009133804,0.25899742935205594,-2.7915526105600645
2.00554634544825,-3.1294901359160323,0.2310819032464553,-2.752993240460644
1.9742514440890895,-3.250531346263602,0.20355197084184887,-2.704007568065364
1.9417461306264534,-3.3705445659305138,0.17651189516119523,-2.6440943306169977
1.9080406849671483,-3.4892869829077133,0.15007095185502525,-2.57278066568426
1.8731478151380712,-3.6065479698331804,0.12434314519818265,-2.489627939431286
1.8370823354397394,-3.7221586676376455,0.0994468658038698,-2.3942368208282394
1.7998607487633629,-3.836002133909802,0.0755044975955874,-2.2862512074455443
1.761500727424265,-3.948023949318011,0.05264198552113196,-2.165360560541072
1.7220204879310848,-4.0582431756615875,0.03098837991572124,-2.0313001660939407
1.6814380561744688,-4.166763573821288,0.01067537825478183,-1.8838488068924328
1.639770420436256,-4.273785023359076,-0.008163109814142498,-1.722823310707994
1.5970325702026653,-4.379615141975771,-0.02539134292122244,-1.5480694317417887
1.5532364187829075,-4.484681186004724,-0.04087203723864033,-1.359448526037669
1.5083896069228604,-4.589542424742725,-0.05446652249901702,-1.1568194938241771
1.4624941826754332,-4.69490332140386,-0.06603471743725879,-0.9400154791821479
1.4155451494613946,-4.801628017439092,-0.07543487222908027,-0.7088148376394796
1.3675288692870038,-4.910756793423997,-0.08252302060547506,-0.46290590900854234
1.318421301352764,-5.023525344304877,-0.08715207969556049,-0.20184518577834692
1.2681860479097151,-5.141387810441158,-0.08917053155334397,0.07499139831052293
1.2167721698053036,-5.2660444507434905,-0.08842061757023874,0.3684639917367113
1.1641117252978685,-5.399474434569326,-0.08473597765287162,0.6797302683255504
1.1101169809521754,-5.543973071739691,-0.07793867496961612,1.0103100303478656
1.0546772502347785,-5.702190103629568,-0.06783557466613746,1.36214616733993
0.9976553491984829,-5.877159851804285,-0.054214112992738164,1.737646672301937
0.93888375068044,-6.07230188848029,-0.03683764626971879,2.139674964506671
0.8781607317956371,-6.291346228045356,-0.015440896624652083,2.5714205679711073
0.8152472695151836,-6.538088113131078,0.01027330905505899,3.036012785203966
0.7498663883838728,-6.815784167934937,0.04063343690709865,3.535608335380321
0.6817085467045234,-7.125837394722591,0.07598952026090186,4.069453353877612
0.6104501727572975,-7.465180026900252,0.11668405379967797,4.630088445201742
0.535798372488295,-7.821605402048935,0.16298493825169538,5.196655871773105
0.4575823184678056,-8.166932350034983,0.21495149696942645,5.725190278606481
0.3759129949674558,-8.451131113493858,0.27220339975549124,6.14040988887202
0.2914016838325172,-8.607776407201731,0.33360749864421146,6.343804157333997
0.20532391976049988,-8.583851970434525,0.39704554021755145,6.256547942928475
0.11948540005615463,-8.381538934175254,0.4596110196468362,5.879644128415468
0.035670010714402095,-8.063099152378228,0.5184074609309909,5.3016156008593756
-0.044960980809380185,-7.7062015106042,0.5714236169395847,4.63514620280636
-0.12202299591542219,-7.364134062465586,0.6177750789676483,3.959725571781576
-0.19566433654007806,-7.060578873095447,0.6573723346854641,3.3131658038391194
-0.26627012527103255,-6.8008164847127635,0.6905039927238553,2.706914615660078
-0.3342782901181602,-6.581858194870182,0.7175731388804562,2.14031347738087
-0.400096872066862,-6.39793072222694,0.7389762736542649,1.6084777144859248
-0.4640761792891314,-6.242840367934726,0.7550610507991241,1.105799097670517
-0.5265045829684787,-6.1108220588541755,0.7661190417758292,0.6272819424422704
-0.5876128035570204,-5.996754374681125,0.7723918612002519,0.1689446699740374
-0.6475803473038316,-5.896140235863504,0.7740813078999923,-0.27214743433631194
-0.7065417496624666,-5.805019068374209,0.7713598335566292,-0.6979801157367943
-0.7645919403462087,-5.7198744204619,0.7643800323992612,-1.109724622114148
-0.8217906845508277,-5.637558831229827,0.7532827861781197,-1.5078747192122062
-0.878166272863126,-5.555240888261052,0.7382040389859976,-1.8923760552255415
-0.9337186817457365,-5.470372964024429,0.7192802784337422,-2.262746341931307
-0.9884224113859807,-5.380675867120425,0.6966528150144291,-2.6181872762787575
-1.042229170057185,-5.284136049244813,0.6704709422516415,-2.9576891916959087
-1.095070530549633,-5.17901106973024,0.6408940503346824,-3.280128729496114
-1.1468606412469355,-5.063839357472568,0.6080927630397213,-3.58435905004427
-1.1974990348216612,-4.9374507865245825,0.5722491725392785,-3.869291539480958
-1.246873542686907,-4.7989751409963395,0.533556257144469,-4.133967695391853
-1.2948632940968705,-4.647846153604587,0.4922165801905504,-4.377619882385286
-1.3413417556329164,-4.483799430584214,0.44844038136669756,-4.599719879001304
-1.3861797499387585,-4.306863196613953,0.40244318257668454,-4.8000145186847805
-1.429248381904898,-4.117341385429405,0.35444303738983673,-4.978548192336935
-1.470421795759192,-3.915789150323849,0.3046575554664674,-5.1356724757139505
-1.5095796872624305,-3.702981363973977,0.2533008307093279,-5.272043635719215
-1.5466095009021703,-3.479875109576832,0.20058039435213576,-5.38860923144286
-1.5814082519979387,-3.2475675221134566,0.14669430203770717,-5.4865854394456
-1.6138839272190733,-3.0072506017266822,0.09182844764325117,-5.567427078081651
-1.64395643323634,-2.7601647704403725,0.03615417686243466,-5.632792559680704
-1.6715580809407438,-2.507552961833706,-0.02017374873437238,-5.684506139290591
-1.696633610559081,-2.2506169139411853,-0.07701881012727829,-5.724519837400112
-1.7191397796984929,-1.9904770868920802,-0.1342640085012794,-5.7548772864479
-1.7390445505674137,-1.7281372738326557,-0.1918127813657584,-5.777681497106882
-1.7563259233057402,-1.4644545563094644,-0.24958959633682723,-5.795068184898749
-1.7709704688688348,-1.2001148227609177,-0.30754027818581475,-5.809185874297719
-1.782971617096444,-0.9356136737093348,-0.36563213692879193,-5.822183539864347
-1.7923277538335374,-0.6712422315559585,-0.4238539723274354,-5.836206074599227
-1.799040176149097,-0.4070772078962542,-0.48221603307342764,-5.853397392846373
-1.8031109482280596,-0.14297461469052786,-0.5407500070018914,-5.8759104369126485
-1.804540694374965,0.12143318229641953,-0.5995091113710178,-5.905922659232428
-1.8033263625520006,0.38673664649145684,-0.6585683379633421,-5.945654494016369
-1.7994589960870861,0.6537427020921847,-0.7180248829035059,-5.997386554580533
-1.7929215690661644,0.9234586042953317,-0.7779987484493112,-6.063468175618478
-1.7836869830232112,1.197057650884029,-0.838633430205496,-6.146304421551625
-1.771716406514371,1.4758112183285848,-0.9000964744210123,-6.248299111988723
-1.756958294331085,1.7609597903892251,-0.9625794655408995,-6.371715223200212
-1.739348696427193,2.0534769253001754,-1.0262966177729016,-6.518387972951624
-1.7188139271741911,2.3536531296399374,-1.091480497502418,-6.6891878236447475
-1.6952773958777918,2.6603957183878326,-1.1583723757388653,-6.883086114091589
-1.6686734386939135,2.9701294702323087,-1.2272032368797812,-7.095657114161155
-1.6389721439915903,3.2752627482565555,-1.2981598080213927,-7.3169559167281
-1.6062195165090247,3.5625088644794083,-1.3713293671886737,-7.529156781993841
-1.5705944278642305,3.8121074344260535,-1.446620935008612,-7.705382102168133
-1.53247335351997,3.999985813612743,-1.5236747560302935,-7.8125430408714145
-1.4924734953838426,4.104724286576228,-1.6018001864390077,-7.8207939886773135
-1.4514262525180803,4.117592013298372,-1.680008126325781,-7.717248467992101
-1.4102503323850966,4.048492231203062,-1.757180611005702,-7.51411146210428
-1.3697654100730658,3.921680876228967,-1.8323217256267448,-7.2428236628773925
-1.3305486013107761,3.764755544562177,-1.9047499622555186,-6.939091781516234
-1.2929010458651544,3.599859937183374,-1.974140880070681,-6.631070430983967
-1.2569024464933207,3.441015289245115,-2.040451584380521,-6.335935156733671
-1.2224922936008695,3.295487233450179,-2.1038109359478576,-6.06188156373633
-1.1895374212663676,3.1661758572532253,-2.164429751585221,-5.811421574427732
-1.1578756626938354,3.0535644825391097,-2.222543967329498,-5.584015768472933
-1.1273400178684443,2.9569620371058396,-2.2783841250142274,-5.377718434981967
-1.0977703974973858,2.8752015476928063,-2.332161309364047,-5.190079001654481
-1.0690183820204577,2.807001553229347,-2.384062099380592,-5.018590654693498
-1.0409483664881642,2.7511388657885285,-2.4342480059275267,-4.860890482327564
-1.013436977830279,2.7065218596670846,-2.4828569107508023,-4.714831984248895
-0.9863717592336081,2.672213684371058,-2.530005230593291,-4.578495860652443
-0.9596496223898975,2.6474315499947543,-2.5757901891998154,-4.4501734205462595
-0.93317530688995,2.631535465985294,-2.620291923405278,-4.3283399210969495
-0.9068599522300971,2.624013009666517,-2.6635753226162473,-4.2116263008911785
-0.8806198221334319,2.624463125128639,-2.705691585625159,-4.098793312228206
-0.8543751908821455,2.632580080539977,-2.746679518747441,-3.9887099072287344
-0.8280493900767457,2.648137722011355,-2.7865666178197284,-3.8803367839736738
-0.8015680128566322,2.6709736219714575,-2.825369985659465,-3.772715674165403
-0.7748582766369175,2.700972405955822,-2.863097142401119,-3.6649649497176124
-0.7478485525773593,2.7380473446338303,-2.8997467918982953,-3.556282275910259
-0.720468079131021,2.782119175326059,-2.935309614657398,-3.445955238047893
-0.6926468873777604,2.833091071112934,-2.969769167037877,-3.333381028784496
-0.664315976666631,2.890818743324476,-3.0031029773257223,-3.218096305854991
-0.6354077892333863,2.955074914426338,-3.0352839403842724,-3.0998180886976883
-0.6058570400891229,3.025507930871902,-3.066282121271249,-2.9784958973339366
-0.5756019607804038,3.1015952126897868,-3.0960670802445884,-2.854374065206451
-0.5445860086535059,3.182593657482537,-3.124610820896653,-2.7280611139095248
-0.5127600720786806,3.2674910606880427,-3.151891432035748,-2.6006001940258177
-0.48008516147180014,3.354964958869602,-3.1778974339760064,-2.473531027967668
-0.44653551188310414,3.4433576786786007,-3.2026327442556832,-2.348930066789133
-0.41210193509631815,3.530678099155064,-3.2261220449235744,-2.229412708709403
-0.3767951541047675,3.614640754041726,-3.2484161720106686,-2.1180808877332336
-0.34064874656435024,3.6927504070128987,-3.269596980888001,-2.018402727557351
-0.3037212424942213,3.7624344973801036,-3.2897810081635743,-1.9340193608778333
-0.26609689752042026,3.821217155725379,-3.309121201772353,-1.8684871853752916
-0.22788472596316647,3.866918374572243,-3.327806073626106,-1.8249795451950863
-0.18921554221744405,3.8978530657037243,-3.346055869078057,-1.8059860110077222
-0.1502370115604068,3.9130001645008505,-3.3641157291881343,-1.8130552770279107
-0.11110700991539829,3.9121138187770397,-3.3822462819584134,-1.8466255395873834
-0.0719858717276279,3.895757302609299,-3.4007125373542872,-1.9059732962630336
-0.033028298701534904,3.865253723304887,-3.4197722703169178,-1.9892905741253977
0.005624238531513968,3.822562389000704,-3.439665176058172,-2.0938771210259404
0.04384986242152101,3.7701020904891176,-3.460603947268431,-2.216414286285003
0.0815508833264122,3.7105496505044195,-3.482768090131281,-2.353276004329791
0.11865637983145638,3.6466427459910538,-3.506300850174579,-2.5008314619314245
0.1551228072913669,3.581010916755396,-3.5313091647938935,-2.655702499135803
0.19093291645892085,3.5160499463497747,-3.5578661897852513,-2.8149530202221014
0.2260934159224186,3.453845109273793,-3.5860157199874725,-2.976203242848666
0.26063186701515656,3.396140464910361,-3.6157777524159593,-3.137674698648516
0.2945932716642602,3.3443458487068716,-3.6471544994024443,-3.298180346882861
0.3280367301513289,3.2995707816445115,-3.680136302871273,-3.4570776117753295
0.361032437967774,3.2626746650107785,-3.714707078989026,-3.6142015790319815
0.3936591846178818,3.234324417267692,-3.750849094779346,-3.769792558426955
0.4260024287905587,3.2150532053845464,-3.7885470203636156,-3.9244282553504366
0.45815296084440416,3.2053164199080317,-3.8277913029171198,-4.078966994736113
0.4902061250434845,3.2055431385752833,-3.868580972864481,-4.234505401999273
0.5222615564292373,3.2161828697268056,-3.9109260268844737,-4.39235185028067
0.5544233851265054,3.237748378040167,-3.9548495453872805,-4.554015750607593
0.5868008689069071,3.270855953687465,-4.000389702893356,-4.7212121783961205
0.6195094284437818,3.316264668608221,-4.047601824677318,-4.895881127735362
0.652672075129864,3.3749159806275153,-4.096560635954671,-5.080220554438859
0.6864212349361392,3.4479743750900083,-4.14736284149906,-5.276731903185082
0.7209009786870393,3.5368682102683855,-4.200130160530911,-5.488275360633888
0.7562696607897231,3.643326739230831,-4.25501291413725,-5.718128429440444
0.7927029281820315,3.7694027200858575,-4.312194198431655,-5.970033209260576
0.83039695538289,3.917456684163307,-4.371894530524261,-6.248200282611421
0.8695715222245232,4.090052112817998,-4.434376533350376,-6.557201059166447
0.9104720433527032,4.289657940099106,-4.499948543942041,-6.901608347335568
0.9533686227536942,4.5179548293472465,-4.568964627415396,-7.285107084042456
0.9985481710471666,4.774368509653022,-4.6418156982558205,-7.708556219606519
1.046291856143697,5.0532145615386765,-4.718901260451886,-8.166146369998748
1.0968240017590838,5.338738801302682,-4.800562724151873,-8.638645104475756
1.1502113897721107,5.598232589388745,-4.88694917519663,-9.083938206620074
1.206193715665998,5.777300293350084,-4.977788557262831,-9.430453748562561
1.263966718599499,5.808952059398054,-5.072093094748457,-9.589575608848623
1.3220562391934796,5.647746806414958,-5.167988850836943,-9.50249012387728
1.3785337072576291,5.308636206479771,-5.263013752075716,-9.193100266074737
1.4316200693224268,4.860588801139509,-5.354944754736463,-8.758187095153097
1.480225957333822,4.377720988360214,-5.442526625687994,-8.299705179999721
1.5240031672174241,3.9061739448890593,-5.525523677487991,-7.8799929292897
1.5630649066663147,3.464479544074977,-5.604323606780888,-7.523304831138272
1.5977097021070645,3.0555207170148915,-5.67955665509227,-7.232768863868946
1.6282649092772135,2.675655334154265,-5.75188434373096,-7.003004930919659
1.655021462618756,2.319320493568186,-5.8219143930401565,-6.826357828709124
1.6782146675544378,1.9809260273415432,-5.8901779713272475,-6.695373905574359
1.6980239278278533,1.6554981397714141,-5.957131710382991,-6.603573116121903
1.7145789092255674,1.3388191554233737,-6.02316744154421,-6.545546415421204
1.7279671007798012,1.027389320161898,-6.088622905698422,-6.516820904867198
1.7382409939814203,0.7183419608040413,-6.153791114747094,-6.513666950254394
1.7454244135894608,0.40936085705610786,-6.2189277842496375,-6.532909849964032
1.749518022160022,0.09861532448890331,-6.284256882749278,-6.571764757162563
