th1 (rad),w1 (rad/s),th2 (rad),w2 (rad/s)
1.329755217878708,-0.9997591258573277,0.2759767477734461,2.0196203734548743
1.3197576266201347,-1.123293495459902,0.29617295150799483,2.0626672452937944
1.3085246916655358,-1.248729631109577,0.31679962396093275,2.1101056112820156
1.29603739535444,-1.3763369636928247,0.3379006800737529,2.16245977878472
1.2822740257175118,-1.5064109084067505,0.3595252778616001,2.2202681962477637
1.2672099166334443,-1.6392700918985843,0.38172795982407776,2.2840788826649585
1.2508172157144584,-1.7752507978291538,0.40456874865072734,2.3544407871760615
1.2330647077361667,-1.9146971435995794,0.42811315652248794,2.431888929645594
1.213917736300171,-2.0579448205769917,0.45243204581894386,2.5169202078622064
1.193338288094401,-2.2052953006525975,0.4776012478975659,2.6099554398097253
1.1712853350878751,-2.3569762063747204,0.5037008022956632,2.7112815028994492
1.147715573024128,-2.513082117729963,0.5308136173246577,2.820965418659695
1.1225847518468284,-2.673488715990214,0.5590232715112546,2.938730294864892
1.0958498646869261,-2.837732569854022,0.5884105744599035,3.063782206470957
1.067472538988386,-3.0048506327617077,0.6190483965246131,3.194579611629965
1.0374240326607689,-3.17318058174896,0.6509941926409127,3.3285469209086305
1.0056922268432793,-3.3401399990392022,0.684279661849999,3.4617577571700613
0.9722908268528873,-3.50203390841383,0.7188972394216996,3.5886581165800675
0.937270487768749,-3.6539864358956193,0.7547838205875003,3.7019652752664776
0.9007306234097928,-3.790137786831003,0.7918034733401651,3.792942951865952
0.8628292455414828,-3.9042484661405084,0.8297329028588246,3.852255043736363
0.8237867608800777,-3.99074388968786,0.8682554532961883,3.8714474991025423
0.7838793219831991,-4.045989092638023,0.9069699282872137,3.8447644431323313
0.7434194310568188,-4.0693182771039975,0.945417572718537,3.770629233413433
0.7027262482857789,-4.063306109951298,0.9831238650526714,3.6520640751625013
0.6620931871862659,-4.03310402019374,1.0196445058042964,3.4957919750987463
0.6217621469843284,-3.9851652486332587,1.054602425555284,3.3104689321950445
0.5819104944979958,-3.9259382276656303,1.0877071148772344,3.1048576834402533
0.5426511122213395,-3.8609642431236155,1.1187556917116368,2.886557252837193
0.5040414697901034,-3.794489408978539,1.1476212642400088,2.6614475743672497
0.46609657570031804,-3.7294659131128536,1.1742357399836814,2.4336784971201015
0.4288019165691895,-3.6677549867166883,1.1985725249548824,2.2059432360877835
0.3921243667020226,-3.610387215330927,1.2206319573157602,1.9798351688235185
0.3560204945487133,-3.557802154256164,1.2404303090039954,1.756178720186547
0.3204424730061517,-3.5100386318937784,1.2579920962058608,1.5352937592873808
0.2853420866872139,-3.466873683715775,1.2733450337987346,1.3171899593722032
0.2506733498500561,-3.427918633107984,1.2865169333924567,1.101702395112527
0.21639416351897628,-3.3926830384223052,1.297533957343582,0.8885828210664837
0.18246733313475322,-3.3606159988161735,1.3064197855542468,0.6775594499596285
0.14886117314659147,-3.3311321583091993,1.313195380053843,0.46837511303850765
0.11554985156349948,-3.3036277021415024,1.317879131184228,0.2608108810902523
0.08251357454208445,-3.2774900156434637,1.3204872399951304,0.05469999645457754
0.049738674385649814,-3.252103489323812,1.3210342399596762,-0.15006465861266105
0.017217639492411695,-3.2268531241447325,1.3195335933735495,-0.3535274608968045
-0.015050891749035629,-3.2011270238161553,1.3159983187645814,-0.5556699765982057
-0.04706216198719718,-3.1743184767517993,1.3104416189985992,-0.7564130872459792
-0.07880534675471518,-3.1458280694707463,1.3028774881261393,-0.9556207962571932
-0.11026362744942264,-3.115066093811824,1.2933212801635674,-1.1531054008364656
-0.1414142883875409,-3.0814553840468597,1.2817902261552028,-1.3486338317893583
-0.1722288422280095,-3.0444346282564805,1.2683038878373092,-1.541935027002711
-0.2026731885105743,-3.0034621293176604,1.2528845375672821,-1.7327082312682713
-0.23270780980375091,-2.9580199372441442,1.2355574552545994,-1.9206321185761792
-0.2622880091761924,-2.907618232145242,1.2163511340688375,-2.105374622073495
-0.2913641914976448,-2.8517998034295893,1.1952973878481026,-2.286603338250418
-0.3198821895319407,-2.7901444450387247,1.1724313544655984,-2.4639963506619047
-0.3477836339823279,-2.7222730681668943,1.1477913909589794,-2.6372532985882966
-0.37500636466399684,-2.647851322228362,1.1214188579730964,-2.8061065006465604
-0.40148487788628046,-2.5665925120426705,1.0933577929666307,-2.970331934997015
-0.42715080300670716,-2.478259604555659,1.0636544736166607,-3.129759878394675
-0.45193339905226376,-2.382666131952508,1.0323568748327139,-3.2842850173107903
-0.47576006037178886,-2.279675819509408,0.9995140246596059,-3.4338758665365177
-0.49855681856688294,-2.1692007953636363,0.9651752659942407,-3.5785833642977125
-0.5202488265205193,-2.051198274545106,0.9293894323512636,-3.7185485574798496
-0.5407608092659704,-1.9256656497207707,0.8922039467764651,-3.854009344802153
-0.5600174657631781,-1.792633964527511,0.8536638533284435,-3.985306307466082
-0.5779438054084532,-1.6521597905029832,0.8138107902537827,-4.1128877225855645
-0.5944654033134831,-1.5043155743443073,0.772681913027927,-4.237313919821264
-0.6095085590569261,-1.3491785686246691,0.7303087738297144,-4.359261199409015
-0.6230003447431728,-1.1868185086174634,0.6867161618356242,-4.479525570672096
-0.6348685298293474,-1.0172842570435354,0.6419209061289033,-4.599026580062965
-0.6450413723997828,-0.840589720714898,0.5959306403282736,-4.718811455048121
-0.6534472696069318,-0.656699472750712,0.5487425257777924,-4.840059659769424
-0.6600142643344389,-0.4655147342512884,0.5003419291800981,-4.96408768252029
-0.6646694116769518,-0.266860753367366,0.4507010523548952,-5.092353356255357
-0.6673380192106255,-0.06047729114959588,0.39977751879234164,-5.226458086567833
-0.6679427921221215,0.1539849113828172,0.3475129379266633,-5.368143747830269
-0.6664029430082933,0.3769568119271547,0.29383150044836065,-5.519278241052259
-0.6626333748890217,0.6089246382087016,0.23863871803783807,-5.681819024233135
-0.6565441285069348,0.8503704913414031,0.18182052779550673,-5.857736134954357
-0.6480404235935208,1.1016570921030429,0.12324316644596316,-6.04886361427148
-0.6370238526724903,1.3628199797522753,0.06275453030324836,-6.25662881015269
-0.6233956528749676,1.6332114076327506,0.0001882422017214641,-6.481581854964915
-0.6070635387986401,1.91091953952838,-0.06462757634792769,-6.722617344036048
-0.5879543434033563,2.1918808371838194,-0.13185374978828818,-6.975769096865501
-0.566035535031518,2.4686597009559783,-0.2016114407569432,-7.232531239678501
-0.5413489380219583,2.7290864866824123,-0.27393675315372823,-7.477951944470299
-0.5140580731551342,2.9554508702107634,-0.34871627259843124,-7.689439668859443
-0.48450356445302656,3.1256842437761962,-0.4256106692870257,-7.83824202741692
-0.4532467220152646,3.2181650116823386,-0.5039930895611949,-7.8958509647175905
-0.4210650718984412,3.2198501098321817,-0.5829515992083708,-7.844953812447241
-0.3888665708001194,3.133280543465222,-0.6614011373328432,-7.688857814000364
-0.35753376536546716,2.976404167640017,-0.7382897154728468,-7.451151654944978
-0.327769723689067,2.774728801865571,-0.8128012320222966,-7.165041172472814
-0.30002243567041126,2.552140979377228,-0.8844516437470248,-6.861061338985375
-0.274501025876639,2.325989294111301,-0.9530622571368785,-6.560698987356929
-0.25124113293552597,2.106712171658558,-1.018669247010448,-6.2761494061242145
-0.23017401121894038,1.8995777310624438,-1.0814307410716901,-6.0128226888631175
-0.21117823390831594,1.7066299908200964,-1.1415589679603213,-5.772025766756503
-0.19411193400011498,1.5281335356478796,-1.1992792256278864,-5.552904734318708
-0.17883059864363618,1.3634747356330077,-1.2548082729710734,-5.353627237919441
-0.1651958512873061,1.2116718116091107,-1.3083445453502678,-5.172031492766767
-0.153079133171215,1.0716441386186746,-1.3600648602779355,-5.005954124446088
-0.14236269178502825,0.9423446682225387,-1.4101244015223964,-4.853379856272967
-0.13293924510280286,0.8228182304645759,-1.458658200085126,-4.712497749994203
-0.12471106279815711,0.7122212559291075,-1.505783177585068,-4.581710988331179
-0.11758885023886603,0.6098223283044044,-1.5516002874683799,-4.459625238733185
-0.11149062695582199,0.5149939070341456,-1.5961965398557116,-4.345028512507169
-0.10634068788548053,0.42720059661042026,-1.6396468249807834,-4.236868929691957
-0.10206868191937632,0.3459866684433162,-1.682015514277703,-4.134233383610039
-0.09860881523494315,0.2709641237369499,-1.7233578481138032,-4.03632834175474
-0.09589917399757365,0.20180184580233052,-1.7637211315313506,-3.9424631420684237
-0.09388115553955034,0.13821601380161236,-1.8031457629520349,-3.852035727046912
-0.09249899540153422,0.07996176697899532,-1.841666120222504,-3.764520579493777
-0.09169937773174427,0.02682602715671044,-1.8793113260174417,-3.67945856513246
-0.09143111746017717,-0.021378641790789153,-1.9161059116687662,-3.5964483866546835
-0.09164490387808506,-0.06481926211953924,-1.9520703955353131,-3.51513937893515
-0.09229309649928046,-0.10364687437168849,-1.9872217893246646,-3.435225409686029
-0.09332956524299733,-0.13800027713672006,-2.021574043421525,-3.356439685719002
-0.09470956801436453,-0.16800916465764212,-2.0551384402787147,-3.2785502985460644
-0.09638965966094096,-0.193796740112817,-2.087923943264175,-3.201356372834694
-0.09832762706206913,-0.21548187163790913,-2.119937506992522,-3.124684706895211
-0.10048244577844823,-0.2331808491543166,-2.151184354061474,-3.048386816088198
-0.1028142542699914,-0.24700879270848194,-2.1816682222223562,-2.972336308176419
-0.10528434219707622,-0.25708075705990735,-2.2113915853041206,-2.896426534645594
-0.1078551497676753,-0.26351257241410636,-2.2403558506505767,-2.820568474306981
-0.11049027549181636,-0.26642145722082056,-2.2685615353936464,-2.7446888154580673
-0.11315449006402457,-0.26592643561911,-2.296008423548227,-2.6687282108556487
-0.11581375442021567,-0.2621485892195872,-2.3226957056567836,-2.5926396860439427
-0.11843524031241154,-0.2552111703204865,-2.348622102517223,-2.5163871864366976
-0.1209873520156164,-0.24523960124689548,-2.37378597438159,-2.4399442522020025
-0.12343974802808536,-0.23236138220385052,-2.39818541690361,-2.363292812640631
-0.12576336185012385,-0.21670592779574852,-2.4218183450300166,-2.286422093559907
-0.12793042112808134,-0.19840435016209532,-2.4446825659656155,-2.209327632282692
-0.1299144646297023,-0.17758920450697904,-2.4667758422884423,-2.132010395535297
-0.13169035667477208,-0.15439421066436573,-2.4880959462437953,-2.0544759956531653
-0.13323429878141574,-0.12895396226000314,-2.508640706200327,-1.976734000438236
-0.13452383840401577,-0.10140363302522644,-2.528408046204709,-1.8987973316916198
-0.13553787473426804,-0.07187868791213106,-2.547396019521625,-1.8206817470104828
-0.13625666161338934,-0.040514604876731454,-2.56560283699173,-1.742405398946455
-0.13666180766215666,-0.007446611557786913,-2.5830268909811944,-1.6639884651297265
-0.13673627377773453,0.02719056039877426,-2.5996667756324916,-1.5854528425121086
-0.1364643681737468,0.06326290192357226,-2.6155213040576126,-1.5068218985072064
-0.13583173915451108,0.10063733369076049,-2.630589523042685,-1.4281202715308194
-0.13482536581760346,0.13918189447894566,-2.644870725757993,-1.3493737132860926
-0.133433546872814,0.17876591208722395,-2.658364462890854,-1.2706089651053523
-0.13164588775194178,0.21926015873773472,-2.671070552541907,-1.1918536607578372
-0.12945328616456442,0.2605369932942047,-2.6829890891494856,-1.1131362483588165
-0.12684791623162237,0.3024704928628594,-2.694120451633074,-1.0344859243662177
-0.12382321130299377,0.34493657643108155,-2.7044653108767363,-0.9559325731180391
-0.12037384553868295,0.38781312315535,-2.714024636607917,-0.877506705937219
-0.11649571430712945,0.43098008774963226,-2.722799703667289,-0.7992393944978704
-0.11218591342963312,0.47431961516577464,-2.7307920976122677,-0.7211621938938899
-0.10744271727797537,0.5177161564162703,-2.7380037195512066,-0.6433070516624921
-0.10226555571381267,0.5610565869850136,-2.7444367900678315,-0.5657061998747934
-0.09665498984396254,0.6042303288210616,-2.750093852066579,-0.4883920282958975
-0.09061268655575191,0.6471294764313864,-2.7549777723495383,-0.4113969375202523
-0.08414139179143805,0.689648927097785,-2.759091741724741,-0.3347531718863555
-0.0772449025204602,0.7316865147562182,-2.7624392734436043,-0.2584926328503276
-0.06992803737289803,0.773143146608325,-2.7650241997721077,-0.18264667433308812
-0.06219660590681478,0.8139229410976945,-2.7668506665154387,-0.10724588233444746
-0.05405737649583783,0.8539333654889224,-2.767923125338783,-0.03231984181427268
-0.04551804284094861,0.8930853709449027,-2.7682463237569257,0.04210310553730433
-0.03658718913149958,0.9312935227145094,-2.7678252927015525,0.11599610849307297
-0.027274253904354485,0.9684761228239736,-2.766665331616622,0.18933405387707403
-0.01758949267611475,1.0045553225138606,-2.764771991077851,0.2620938096700266
-0.007543939450976143,1.0394572215804936,-2.762151052981151,0.3342544585580192
0.002850632764828793,1.0731119517648533,-2.7588085083955707,0.40579751676908865
0.013581752282477325,1.1054537413805536,-2.7547505332278797,0.4767071330724508
0.024636289696282863,1.1364209584810647,-2.749983461897155,0.54697026295184
0.036000499281093515,1.1659561300293997,-2.7445137592676367,0.6165768132002989
0.04766006058138751,1.194005934744664,-2.7383479911356337,0.685519752509681
0.059600119928834155,1.2205211675524883,-2.7314927936105367,0.7537951840336811
0.07180533160435904,1.245456673853746,-2.7239548417701998,0.8214023763772849
0.08425989834289649,1.2687712521419143,-2.715740818006427,0.8883437499970009
0.09694761086431564,1.2904275238385763,-2.706857380506457,0.9546248165745153
0.1098518861027014,1.3103917695747656,-2.6973111323407117,1.020254069542095
0.12295580379844906,1.3286337315204315,-2.687108591645291,1.085242824583491
0.13624214111365338,1.3451263817543482,-2.6762561633994557,1.1496050096037917
0.14969340493119687,1.359845657073247,-2.664760113303418,1.213356904352801
0.16329186150192934,1.372770161064723,-2.65262654425989,1.276516830599068
0.17701956311257658,1.3838808347183442,-2.6398613759538994,1.3391047944886862
0.19085837145976003,1.393160597329891,-2.6264703280090127,1.4011420834903618
0.20478997743305893,1.4005939599727564,-2.612458907174109,1.4626508211347267
0.2187959170327865,1.40616661437714,-2.5978323989627614,1.5236534836124058
0.23285758317655791,1.4098650006810702,-2.5825958641266373,1.584172383214499
0.24695623318336862,1.411675858206203,-2.5667541402944924,1.6442291245940535
0.26107299176543064,1.4115857641729603,-2.550311849048552,1.7038440409102165
0.27518884940716026,1.4095806661080577,-2.53327340863945,1.7630356180980955
0.28928465606824083,1.4056454146125132,-2.5156430524584694,1.8218199167925146
0.30334111021436594,1.3997633041430333,-2.497424853290544,1.880210002821519
0.31733874325579625,1.3919156304988871,-2.478622753262329,1.9382153986646649
0.3312578995607851,1.3820812747738638,-2.4592405992756823,1.9958415698180758
0.34507871230852377,1.3702363245893097,-2.4392821835775016,2.053089461583247
0.35878107555441685,1.3563537444149922,-2.418751288961669,2.1099551033408788
0.37234461299856675,1.3404031076380425,-2.3976517379282605,2.1664292988042106
0.3857486440749472,1.3223504036671,-2.3759874449402183,2.2224974219646065
0.3989721481116182,1.3021579336521814,-2.3537624707205724,2.2781393393181104
0.41199372744814,1.2797843082386937,-2.330981077327391,2.3333294793463453
0.42479157053052696,1.255184560023731,-2.3076477825339277,2.388037069952575
0.4373434161307643,1.2283103819083183,-2.283767411834402,2.442226563449742
0.4496265199498475,1.1991105002118627,-2.2593451461999043,2.4958582665915343
0.4616176249519661,1.1675311881268382,-2.234386563533989,2.5488891898804598
0.4732929368332345,1.1335169207722087,-2.2088976716351842,2.601274125870266
0.4846281060409566,1.0970111677385335,-2.1828849303764817,2.652966960360356
0.4955982177183419,1.0579573126655926,-2.156355260772878,2.7039222133030836
0.5061777908449978,1.016299682204923,-2.129316038639847,2.7540967980690203
0.516340787667047,0.971984658947157,-2.1017750706591567,2.8034519787284107
0.5260606342565186,0.9249618448950582,-2.0737405508718725,2.8519554956350497
0.5353102527054692,0.8751852342923422,-2.045220995915522,2.899583820400932
0.5440621050483926,0.8226143476056279,-2.0162251577115127,2.9463244929972165
0.5522882485244489,0.7672152727707606,-1.9867619127815406,2.992178486952647
0.5599604012521565,0.7089615560123176,-1.956840127912014,3.0371625442034285
0.5670500168122797,0.6478348831115954,-1.9264685024699797,3.081311419783035
0.5735283656433957,0.5838254932828909,-1.8956553882721494,3.124679978799605
0.5793666205762246,0.5169322719729742,-1.8644085884841535,3.167345094400957
0.5845359432959543,0.44716247583291785,-1.832735137540144,3.209407305777573
0.5890075680542834,0.3745310524636165,-1.8006410644823683,3.250992209509376
0.5927528785789196,0.2990595286772205,-1.7681311423872745,3.2922515752325183
0.5957434738656918,0.22077445308161914,-1.7352086266349493,3.3333641969385654
0.597951218396508,0.139705390744626,-1.7018749846655636,3.3745365132882825
0.5993482723039543,0.05588247839663868,-1.668129619532681,3.4160030531171532
0.5999070970879207,-0.030666443046844988,-1.6339695890015093,3.458026784870107
0.5996004326574522,-0.11991909696113442,-1.5993893211528083,3.500899470247128
0.5984012416878409,-0.21186241820723264,-1.564380326450337,3.5449421423837073
0.5962826175057686,-0.30649656114324897,-1.5289309050265,3.5905058473338007
0.5932176518943362,-0.4038392603534783,-1.493025846553162,3.6379728048199613
0.5891792592908014,-0.5039305514805564,-1.4566461185049624,3.687758160988697
0.5841399537759958,-0.6068378808184206,-1.4197685368950754,3.740312523538833
0.5780715749678116,-0.712661659412099,-1.382365411659687,3.7961254897656476
0.5709449583736906,-0.8215413503265673,-1.3444041567620306,3.8557304027983434
0.5627295448704249,-0.9336622165167286,-1.3058468527340472,3.919710602813056
0.5533929227052576,-1.0492629013427033,-1.2666497467059166,3.988707480468725
0.5429002936918306,-1.1686440639715234,-1.2267626719012292,4.0634306910255855
0.5312138530521153,-1.292178346677204,-1.1861283649909733,4.1446709502189805
0.5182920695853432,-1.4203220075685596,-1.1446816554887835,4.233315905073612
0.5040888495096576,-1.5536286037845453,-1.1023484964380474,4.330369647219907
0.48855256347181214,-1.6927651419257477,-1.0590447999658483,4.436976494913236
0.47162491205255463,-1.8385310937498327,-1.014675035016716,4.554449673506519
0.4532396011150563,-1.9918805441420655,-0.9691305382816507,4.68430539128251
0.43332079567363563,-2.1539473728033394,-0.9222874843688257,4.828302374940132
0.41178132194560224,-2.326072531443843,-0.8740044606194244,4.988485873045153
0.3885205966311638,-2.5098306978704454,-0.8241196018889728,5.167232820441748
0.3634222896524593,-2.7070499620051827,-0.7724472736845553,5.367290039382797
0.3363517900324075,-2.9198109826432965,-0.7187743732907274,5.5917876248177105
0.30715368020597456,-3.150397936694807,-0.6628564970425502,5.844190421261115
0.2756497008390265,-3.4011464777303564,-0.604414592829939,6.12811323988026
0.24163823606172294,-3.6740834124585042,-0.5431334604311364,6.4468555320686125
0.2048974019371379,-3.970164007687206,-0.4786649051104503,6.802387451931143
0.16519576186026586,-4.287775695676437,-0.4106410305911389,7.1933265037047835
0.12231800490350148,-4.620032174677108,-0.33870776555409104,7.611236811402957
0.0761176831567304,-4.950470872806309,-0.26259539744006144,8.034694434818626
0.026612974428667308,-5.2478456114868495,-0.18224845309187518,8.422043679682
-0.02586548168620119,-5.464074839746636,-0.09802801629505518,8.708438279516828
-0.08050623008366756,-5.544303667118995,-0.010943633499886904,8.819575905867566
-0.13594926675485752,-5.454664681625095,0.07725212555878876,8.709860350767155
-0.19049591357110848,-5.209633470561726,0.1643507290664603,8.399858708062524
