th1 (rad),w1 (rad/s),th2 (rad),w2 (rad/s),a1 (rad/s^2),a2 (rad/s^2)
0.2524014746997665,-2.049519015076587,4.8134001331300755,-2.1535704254136734,-3.733887846666196,13.339412900738221
0.2319062845490006,-2.0868578935432494,4.791864428875939,-2.0201762964062913,-3.2381173633698936,13.581865943397794
0.2110377056135681,-2.1192390671769483,4.771662665911876,-1.8843576369723134,-2.764356546407863,13.804420612280687
0.18984531494179863,-2.146882632641027,4.752819089542153,-1.7463134308495065,-2.3147408346255247,14.005171310374948
0.16837648861538834,-2.170030040987282,4.735355955233658,-1.606261717745757,-1.8912067420580765,14.182718409037966
0.14667618820551553,-2.188942108407863,4.7192933380562,-1.4644345336553772,-1.4954684036716333,14.336162237010605
0.12478676712143691,-2.2038967924445796,4.704648992719647,-1.3210729112852713,-1.1290015148059422,14.465090620113433
0.10274779919699112,-2.215186807592639,4.691438263606794,-1.176422005084137,-0.793034425708681,14.569560346365547
0.08059593112106472,-2.223117151849726,4.679674043555953,-1.0307264016204816,-0.48854602365667527,14.650073126551787
0.05836475960256746,-2.228002612086293,4.669366779539748,-0.8842256703549637,-0.21626991893223046,14.707546785198273
0.03608473348170453,-2.230165311275615,4.660524522836199,-0.7371502025029809,0.02329565086116681,14.743282549568482
0.013783080368948382,-2.229932354767003,4.653153020811169,-0.5897173770072961,0.22987286925558018,14.758929402003512
-0.008516243178721648,-2.2276336260744474,4.647255847041096,-0.442128082987261,0.40338508110887616,14.756446520723799
-0.030792579439466124,-2.2235997752633585,4.642834566211223,-0.294563617780023,0.5439340125697933,14.738064853288746
-0.053028577192099705,-2.2181604351376607,4.639888930033423,-0.14718296924713553,0.6517742891466476,14.70624884308958
-0.0752101815434763,-2.211642692246194,4.638417100340951,-0.00012048081623972084,0.7272860831855772,14.66365926116922
-0.09732660846593824,-2.204369831414338,4.6384158955327885,0.14651611179545249,0.7709467212102544,14.613117982668673
-0.11937030678008162,-2.1966603642022355,4.639881056650743,0.2926472916221392,0.7833020728248459,14.55757538881298
-0.14133691042210397,-2.188827343473987,4.642807529566964,0.438223045510269,0.7649385350851622,14.5000808702632
-0.16322518385684384,-2.1811779581231354,4.647189760022067,0.583223854212901,0.7164564317004087,14.443756652230512
-0.18503696343807519,-2.1740133938061312,4.653021998564196,0.7276614207352061,0.6384456816484293,14.391774847926447
-0.2067770973761365,-2.167628936989647,4.660298612771547,0.8715791692144705,0.5314646786455451,14.347337259527057
-0.22845338674603297,-2.1623142902031915,4.669014404463692,1.0150525418097411,0.39602349046257695,14.313656958956802
-0.25007652964806487,-2.158354055298566,4.6791649298817894,1.1581891113993092,0.23257277432700094,14.293940053084288
-0.27166007020105054,-2.156028327555296,4.690746820995782,1.301128511930152,0.041500264665230165,14.29136520617339
-0.2932203534766035,-2.1556133249086433,4.7037581061150835,1.444042163991886,-0.17686260476750865,14.309057363050426
-0.31477648672569,-2.1573819509563186,4.7181985277550025,1.5871327376223903,-0.42222032967785766,14.350050553949325
-0.33635030623525314,-2.161604154253097,4.734069855131226,1.7306332431618836,-0.6942740609859537,14.417232474094948
-0.35796634777778413,-2.1685468948629567,4.751376187562845,1.874805567902833,-0.9926560562580161,14.51326045044002
-0.3796518167264137,-2.1784734554255367,4.770124243241873,2.019938172407233,-1.3168273334880227,14.640434072658877
-0.4014365512806691,-2.191641728760417,4.7903236249659455,2.166342513133822,-1.665923586027007,14.800503704844408
-0.42335296856827326,-2.2083009646206873,4.811987050097284,2.314347550182266,-2.038528336063425,14.994385736943677
-0.4454359782144801,-2.2286862479813214,4.835130525599107,2.464291407551703,-2.4323441474706913,15.2217441768859
-0.4677228406942933,-2.2530096894560283,4.8597734396746235,2.616508849320562,-2.8437222172993137,15.480383597668139
-0.4902529375888536,-2.2814469116290215,4.885938528167829,2.7713126852972434,-3.266998065126481,15.765380794173737
-0.5130674067051438,-2.3141168922802864,4.913651655020801,2.9289664932389807,-3.693567910207131,16.067863815606565
-0.5362085756279467,-2.3510525713823576,4.94294131995319,3.0896451313950464,-4.11063116519051,16.373333361957343
-0.5597191013417703,-2.392158883034263,4.97383777126714,3.25337846501462,-4.499529654020896,16.65942698239362
-0.583640690172113,-2.437154179574472,5.006371555917287,3.419972734838556,-4.833654791695946,16.89308004308752
-0.6080122319678577,-2.485490727491431,5.040571283265672,3.588903535269431,-5.076008576605313,17.02719217734582
-0.632867139242772,-2.5362508132574844,5.076460318618366,3.7591754570428892,-5.176754355154937,16.99724911345317
-0.6582296473753468,-2.588018356809034,5.1140520731887955,3.929147948177421,-5.071557084560425,16.718986260504252
-0.6841098309434371,-2.638733927654638,5.153343552670569,4.0963378107824635,-4.68224005079392,16.089182730306906
-0.7104971702199835,-2.6855563281625776,5.194306930778394,4.257229638085533,-3.9221669479054277,14.992894320453498
-0.7373527335016092,-2.724777997641632,5.23687922715925,4.4071585812900675,-2.7092784579645803,13.321158170696043
-0.7646005134780256,-2.751870782221278,5.280950812972151,4.540370162997028,-0.988693312454132,11.001799229551432
-0.7921192213002384,-2.7617577153458193,5.326354514602121,4.650388155292542,1.23735755229906,8.040246424057012
-0.8197367984536965,-2.7493841398228285,5.3728583961550465,4.730790619533112,3.8820885003725882,4.556777109784404
-0.8472306398519248,-2.7105632548191028,5.420166302350378,4.776358390630956,6.766176400806003,0.79678802658172
-0.8743362724001158,-2.6429014908110426,5.467929886256687,4.7843262708967735,9.644181793575235,-2.906362981633652
-0.9007652873082262,-2.54645967287529,5.515773148965655,4.755262641080437,12.263278353522507,-6.212666854823006
-0.9262298840369791,-2.423826889340065,5.56332577537646,4.693135972532207,14.429273613759339,-8.865990830666213
-0.9504681529303798,-2.279534153202472,5.610257135101782,4.604476064225545,16.047380931381902,-10.748887293729647
-0.9732634944624045,-2.119060343888653,5.656301895744037,4.496987191288248,17.12239369573534,-11.881020521186594
-0.994454097901291,-1.9478364069312994,5.70127176765692,4.378176986076382,17.72846628038107,-12.376014669965537
-1.013932461970604,-1.7705517441274887,5.745053537517683,4.254416839376727,17.970605350318404,-12.387643104353074
-1.0316379794118788,-1.5908456906243047,5.78759770591145,4.1305404083331965,17.954543506868095,-12.068316956916593
-1.047546436318122,-1.4113002555556238,5.828903109994782,4.00985723876403,17.77022687578446,-11.546781419842459
-1.0616594388736782,-1.233597986797779,5.869001682382422,3.8943894245656057,17.4864381406584,-10.921289443948243
-1.073995418741656,-1.058733605391195,5.9079455766280775,3.7851765301261233,17.151872486451126,-10.261604924341402
-1.084582754795568,-0.8872148805266838,5.945797341929339,3.6825604808827093,16.798861327148366,-9.614517761505596
-1.0934549036008347,-0.7192262672552002,5.982622946738166,3.5864153032676533,16.447529378458565,-9.009818091227926
-1.1006471662733868,-0.5547509734706145,6.018487099770843,3.496317122355374,16.109407053125697,-8.465409825313811
-1.106194676008093,-0.39365690293935757,6.0534502709943965,3.411663024102236,15.79022603870729,-7.991220566325621
-1.1101312450374865,-0.23575464255228465,6.0875669012354185,3.3317508184389797,15.491945724343902,-7.592000014711851
-1.1124887914630093,-0.08083518530884562,6.1208844094198085,3.2558308182918614,15.214163966696603,-7.269237253104929
-1.1132971433160976,0.07130645435812041,6.1534427176027275,3.1831384457608123,14.955074002797362,-7.022432362308659
-1.1125840787725165,0.22085719438609402,6.185274102060336,3.1129141221377257,14.71210260889593,-6.849916482000844
-1.1103755068286556,0.36797822047505335,6.216403243281714,3.0444149573177173,14.482331253889509,-6.749365568097908
-1.106695724623905,0.5128015330139485,6.246847392854891,2.976921301636738,14.262772668827782,-6.7181109756323085
-1.1015677092937657,0.6554292597022263,6.276616605871258,2.909740191880415,14.050552617965927,-6.753317886326233
-1.0950134166967433,0.7959347858818856,6.305714007790062,2.8422070130171524,13.84303029186397,-6.852079625118865
-1.0870540688379244,0.9343650888005253,6.334136077920234,2.773686216765964,13.63787934138797,-7.011460061218419
-1.0777104179499193,1.0707438822144049,6.361872940087894,2.7035716161537797,13.433143802702626,-7.22850559614202
-1.0670029791277753,1.205075320241431,6.3889086562494315,2.6312865601923594,13.2272779451388,-7.500241121395242
-1.054952225925361,1.337348099692819,6.415221521851355,2.556284148978407,13.019175606220914,-7.82365961857194
-1.0415787449284328,1.4675398557550283,6.440784363341139,2.4780475527926877,12.808192299190342,-8.195711958337307
-1.0269033463708825,1.5956217787469318,6.465564838869066,2.3960904332093147,12.594161904669912,-8.613301374264232
-1.0109471285834133,1.7215633977936309,6.48952574320116,2.3099574194666723,12.377408832347683,-9.07328566792068
-0.9937314946054769,1.8453374861171077,6.512625317395827,2.2192245627874656,12.158755988984787,-9.572489193518704
-0.9752781197443059,1.9669250460069556,6.534817563023702,2.1234996708522784,11.939528600249558,-10.10772590897997
-0.9556088692842364,2.086320332009451,6.556052559732224,2.0224224117624785,11.721553826095713,-10.67583415679515
-0.9347456659641419,2.203535870270408,6.576276783849849,1.9156640701945271,11.507156124047071,-11.273723280359441
-0.9127103072614378,2.318607431510879,6.5954334245517945,1.8029268373909326,11.299148403935163,-11.898431639571012
-0.889524232946329,2.431598915550231,6.613462692925704,1.6839425209952226,11.100819136082798,-12.547195024335373
-0.8652082437908267,2.542607106911059,6.630302118135656,1.558470570751869,10.915915672879974,-13.217523837708155
-0.8397821727217162,2.6517662636398587,6.645886823843175,1.4262953323747873,10.748624059514244,-13.907286682240613
-0.8132645100853176,2.7592525042350013,6.6601497771669225,1.2872224655523812,10.603545460535663,-14.614797058416315
-0.7856719850429676,2.865287958840358,6.673022001822447,1.1410744949682181,10.485668898071236,-15.338898651045616
-0.7570191054545641,2.9701446478210705,6.684432746772129,0.9876855084577619,10.40033911416474,-16.079042938893465
-0.7273176589763534,3.074148038962718,6.694309601856706,0.8268950790688273,10.353216778771422,-16.835350291553908
-0.6965761785867262,3.1776802067504324,6.702578552647394,0.6585415761532882,10.350225578744698,-17.60864179789126
-0.6647993765192218,3.2811824625378794,6.7091639684089275,0.4824551581743757,10.397476346642438,-18.400422982260977
-0.631987551893843,3.3851572260043037,6.7139885199906715,0.2984509283517659,10.501151404119945,-19.21279102448926
-0.5981359796337999,3.4901687400455033,6.716973029274189,0.10632301810687331,10.667321293437286,-20.04822212373976
-0.5632342922333449,3.5968419529798763,6.718036259455258,-0.09415920313052428,10.901648911647209,-20.909172225146957
-0.5272658727035461,3.7058584420963485,6.717094667423953,-0.30325092538199383,11.208909575646564,-21.797388023569876
-0.4902072882825826,3.817947537852814,6.714062158170133,-0.5212248056176926,11.592215257775758,-22.712769748400277
-0.45202781290405447,3.9338696904305714,6.7088499101139565,-0.7483525031016953,12.0517713962604,-23.651544811750973
-0.4126891159997488,4.054387404393175,6.70136638508294,-0.9848679512192051,12.582909442586418,-24.603394093230683
-0.372145241955817,4.180216498819039,6.691517705570748,-1.230901892151512,13.173025981332923,-25.54701877453337
-0.3303430769676266,4.311946758632368,6.679208686649233,-1.4863720798968458,13.796934392952961,-26.443466923291542
-0.2872236093813029,4.449916102561898,6.6643449658502645,-1.7508067491297612,14.410057529579458,-27.226441776549894
-0.24272444835568396,4.5940166778576925,6.646836898358967,-2.02307116689526,14.939026863992414,-27.789026110165302
-0.19678428157710703,4.7434069464976165,6.626606186690014,-2.300961427996913,15.269988882712708,-27.967323167036902
-0.14935021211213087,4.896106835324743,6.603596572410045,-2.580634659667282,15.23698199116068,-27.52446280269559
-0.10038914375888344,5.04847665523635,6.577790225813373,-2.855879287694238,14.617143829793225,-26.144664171770355
-0.04990437720651995,5.194648093534282,6.5492314329364305,-3.1173259294119418,13.146574637089195,-23.45702692975367
0.0020421037288228736,5.326113839905173,6.518058173642311,-3.3518961987094786,10.577021245426073,-19.117583375598976
0.05530324212787461,5.431884052359434,6.484539211655217,-3.5430720324654685,6.787129313708216,-12.96880617923491
0.10962208265146894,5.499755345496516,6.449108491330562,-3.672760094257818,1.9240613999101557,-5.24166650494384
0.1646196361064341,5.5189959594956175,6.4123808903879835,-3.725176759307256,-3.515341556916954,3.3293055125659476
0.21980959570139028,5.483842543926448,6.375129122794911,-3.6918837041815964,-8.779992430515861,11.643312700083454
0.2746480211406548,5.396042619621289,6.338210285753095,-3.575450577180762,-13.142155131393695,18.63104344245894
0.32860844733686767,5.264621068307352,6.302455779981288,-3.3891401427561725,-16.17991744401668,23.660704632253776
0.3812546580199412,5.102821893867185,6.268564378553726,-3.152533096433635,-17.865334781196403,26.66787674801756
0.43228287695861306,4.924168546055221,6.2370390475893895,-2.8858543289534593,-18.446685145176613,27.990711838770764
0.4815245624191653,4.739701694603455,6.208180504299855,-2.6059472105657515,-18.26701270015747,28.11160808970493
0.5289215793651999,4.55703156760188,6.182121032194197,-2.324831129668702,-17.63746513103627,27.47470758292456
0.5744918950412187,4.380656916291517,6.15887272089751,-2.0500840538394565,-16.78859407159158,26.413755280469772
0.6182984642041338,4.2127709755756015,6.138371880359116,-1.7859465010347586,-15.870819823611212,25.15044158018542
0.6604261739598898,4.05406277733949,6.120512415348768,-1.5344420852329044,-14.973164620873714,23.81959005973825
0.7009668017332846,3.9043311311307525,6.10516799449644,-1.296246184635522,-14.143353176201003,22.497010559874873
0.7400101130445922,3.7628975993687424,6.092205532650085,-1.0712760790367732,-13.403453250899641,21.221475234929095
0.7776390890382796,3.628863066859746,6.081492771859717,-0.8590613266874823,-12.76048700923053,20.009795091343555
0.813927719706877,3.501258196767441,6.072902158592843,-0.6589633757740467,-12.213113468226961,18.866423025089706
0.8489403016745515,3.379127062085171,6.066312524835102,-0.47029914552314966,-11.755644195867267,17.78929960016842
0.8827315722954032,3.2615706201264985,6.061609533379871,-0.2924061495214655,-11.380373864341966,16.773297490961767
0.9153472784966682,3.147766881483079,6.058685471884656,-0.12467317461184782,-11.07888958793727,15.812190859852619
0.946824947311499,3.036977985603706,6.0574387401385374,0.03344873398667836,-10.842778601019269,14.899740162057334
0.9771947271675361,2.9285501995935133,6.057773227478404,0.1824461356072517,-10.663989606128176,14.030255200197336
1.0064802291634711,2.8219103035322313,6.059597688834477,0.32274868760922504,-10.534999602730558,13.198854797072382
1.0346993321987934,2.716560307504926,6.062825175710569,0.45473723557994883,-10.448874931001782,12.401552936475392
1.0618649352738427,2.612071558194908,6.067372548066368,0.5787527649447027,-10.39927756132442,11.635248011638277
1.087985650855792,2.5080787825816637,6.0731600757158155,0.6951052450610855,-10.38044538864642,10.897660183688107
1.1130664386816085,2.4042743286951995,6.080111128166426,0.8040818468979666,-10.387162254176582,10.187243164447505
1.1371091819685604,2.3004027061534336,6.088151946635406,0.9059542785424416,-10.414725861142594,9.503085744871916
1.1601132090300947,2.1962554475420077,6.097211489420831,1.0009851359911608,-10.458917435612326,8.844811941555653
1.1820757635055148,2.0916662731858846,6.107221340780742,1.0894332554067172,-10.515974578775353,8.212484855451743
1.2029924262373737,1.986506527398131,6.11811567333481,1.1715581039612346,-10.582567476816408,7.606517120582249
1.222857491511355,1.880680852629967,6.129831254374422,1.247623275167057,-10.6557780120497,7.027589512625403
1.2416643000376546,1.7741230725094699,6.142307487126093,1.3178991702933112,-10.733081076686528,6.476578504607762
1.2594055307627492,1.6667922617426045,6.155486478829026,1.3826649553393888,-10.81232736248683,5.954493076417825
1.2760734533801752,1.5586689881177362,6.16931312838242,1.442209886103567,-10.891726985914968,5.462420778149018
1.2916601432613526,1.4497517182585866,6.183735227243456,1.4968340938850573,-10.969833449285439,5.0014828418058626
1.3061576604439384,1.3400533837657322,6.198703568182306,1.5468489223031159,-11.045527597756042,4.572797991612
1.3195581942815957,1.229598107788172,6.214172057405337,1.592576902219236,-11.11800138862308,4.177454498602677
1.3318541753594775,1.118418093901941,6.23009782642753,1.6343514472052627,-11.186741431052681,3.816489949259923
1.3430383562984969,1.0065506795914143,6.246441340899582,1.6725163466978619,-11.25151237474569,3.490878144975424
1.353103863094411,0.8940355558439574,6.263166504366561,1.707425128147616,-11.312340322306428,3.201522515979667
1.3620442186528505,0.7809121526208932,6.2802407556480375,1.7394403533074128,-11.369496511744252,2.949255417835336
1.3698533401790594,0.6672171875034507,6.2976351591811115,1.768932907485766,-11.423481563368764,2.7348426783941258
1.3765255120540938,0.5529823718697631,6.315324488255969,1.7962813342697073,-11.475010610747276,2.5589927753953527
1.3820553357727914,0.4382322657622903,6.333287301598666,1.8218712620236608,-11.524999639826556,2.42237004579805
1.3864376584304143,0.32298226936402474,6.351506014218903,1.8460949624816414,-11.57455334473796,2.3256113523017583
1.3896674811240546,0.20723673591664515,6.369966963843719,1.869351076004659,-11.62495477309973,2.269345653346581
1.391739848483221,0.09098718818564784,6.388660474603766,1.8920445325381248,-11.677656975929713,2.254215930728114
1.3926497203650776,-0.025789381573649295,6.407580919929147,1.914586691845406,-11.734276793025545,2.280902910819936
1.3923918265493411,-0.14313214950390474,6.426726786847602,1.9373957209536052,-11.79659078531622,2.3501499530930716
1.3909605050543021,-0.2610980573570669,6.446100744057138,1.9608972204845359,-11.86653315685795,2.4627883473218595
1.3883495244807316,-0.37976338892564643,6.465709716261983,1.9855251039577544,-11.946195267887077,2.6197620212954957
1.384551890591475,-0.4992253416045172,6.485564967301561,2.0117227241707094,-12.037825991099245,2.8221502596393697
1.37955963717543,-0.6196036015155096,6.505682194543268,2.039944226767103,-12.143831651962348,3.0711863915725246
1.3733636011602748,-0.7410419180351331,6.526081636810939,2.0706560906828284,-12.266773538854471,3.3682694031288927
1.3659531819799235,-0.8637096534236778,6.546788197717767,2.1043387847141175,-12.409359848285838,3.7149638932546947
1.3573160854456867,-0.9878032519065362,6.567831585564908,2.1414884236466643,-12.574427263581434,4.112981466242546
1.3474380529266214,-1.1135475245423505,6.589246469801374,2.1826182383090895,-12.764904886097648,4.564133158326291
1.3363025776811979,-1.241196573403327,6.611072652184465,2.2282595698923524,-12.983749559538753,5.070237287212866
1.3238906119471645,-1.3710340689987146,6.633355247883388,2.278961942764481,-13.233836198304678,5.632959410698696
1.3101802712571773,-1.5033724309817613,6.656144867311033,2.335291536871468,-13.517778785688918,6.2535498062866965
1.2951465469473598,-1.6385502188386505,6.679497782679748,2.397827034934335,-13.837646241236305,6.932427620541452
1.2787610447589732,-1.7769266812510136,6.7034760530290916,2.4671513111397494,-14.194521165976603,7.668537892517933
1.260991777946463,-1.9188718929107798,6.728147566140489,2.5438366900649285,-14.587827410193137,8.458376417678654
1.2418030590173552,-2.0647501670127113,6.753585933041139,2.628420454241715,-15.014324115734084,9.29453740394898
