th1 (rad),w1 (rad/s),th2 (rad),w2 (rad/s)
2.2777162574437044,-2.6713071028803257,2.763843529113679,2.7386108226057257
2.251003186414901,-2.714447201364286,2.7912296373397365,2.707268607435977
2.2238587144012585,-2.7566244157878512,2.8183023234140965,2.6719050575009717
2.19629247024338,-2.798215163681524,2.8450213739891064,2.632669982304919
2.1683103186065646,-2.839605250555317,2.8713480738121557,2.5897050943906734
2.1399142661010115,-2.8811773274974857,2.8972451247560627,2.5431242074130243
2.1111024928260367,-2.923302751936312,2.922676366830193,2.492999279713775
2.0818694653066734,-2.966337262055536,2.9476063596273305,2.439351505743692
2.052206092686118,-3.0106196386413147,2.9719998746847676,2.3821463326759957
2.0220998962997045,-3.0564725033447826,2.9958213380115275,2.3212912501860026
1.9915351712662568,-3.1042044994581834,3.0190342505133874,2.2566353436631474
1.960493126271675,-3.154113248599818,3.0416006039500187,2.187969816505054
1.9289519937856767,-3.2064886274981874,3.063480302115069,2.1150289118673125
1.8968871075106948,-3.2616160385447155,3.084630591233742,2.0374908649985612
1.8642709471252477,-3.319779446413994,3.105005499883728,1.9549786820709307
1.8310731526611077,-3.3812640202432056,3.1245552867044375,1.8670606707131936
1.7972605124586756,-3.446358260306426,3.1432258934115693,1.7732507477400512
1.7627969298556114,-3.5153555048955556,3.16095840088897,1.6730086292077673
1.727643374806656,-3.5885547122150694,3.177688487181048,1.5657400749408799
1.6917578276845053,-3.6662603978464836,3.1933458879304566,1.4507974207132457
1.6550952237060406,-3.748781584408201,3.207853862137589,1.3274806911685793
1.6176074078619584,-3.83642958971292,3.221128669049275,1.1950396481728982
1.5792431119648291,-3.929514446348426,3.2330790655310038,1.0526771932616017
1.5399479675013448,-4.02833971308232,3.24360583746362,0.899554607345997
1.4996645703705216,-4.133195411816,3.2526013835370797,0.7347991710971962
1.4583326162523615,-4.244348809579047,3.2599493752480515,0.5575147571183019
1.415889128156571,-4.362032771820601,3.2655245228192347,0.3667960077256945
1.372268800438365,-4.4864314516524,3.2691924828964916,0.16174669299547684
1.327404485921841,-4.617663162058623,3.2708099498264462,-0.05849723844230198
1.2812278543012547,-4.755760417285401,3.270224977442023,-0.29473957263177275
1.2336702501284007,-4.9006473368368955,3.2672775817157054,-0.5476906446672926
1.1846637767600317,-5.0521148866395,3.2618006752690323,-0.8179294015456526
1.1341426278936366,-5.209794782704328,3.2536213812535757,-1.105861606576462
1.0820446800665933,-5.373133282788774,3.2425627651878113,-1.4116757425187743
1.0283133472387056,-5.541366499638074,3.2284460077626234,-1.7352989024808498
0.9728996822423248,-5.7134992199479155,3.211093018737815,-2.0763556656267914
0.9157646900428457,-5.888289419771271,3.190329462081547,-2.434133505707033
0.8568817958451329,-6.0642406336038,3.1659881270244767,-2.807558511850531
0.7962393895090949,-6.23960397637508,3.1379125419059712,-3.1951849496245415
0.733843349745344,-6.4123908914504035,3.1059606924097256,-3.5952013362210935
0.66971944083084,-6.580396631198821,3.0700086790475147,-4.0054542222248966
0.6039154745188517,-6.741233189320288,3.029954136825266,-4.423488878282594
0.5365031426256489,-6.892369106152946,2.98571924804244,-4.846603847394652
0.46757945156411945,-7.031172529439155,2.9372532095684933,-5.271914238021125
0.3972677262697279,-7.15495340502697,2.884534067188282,-5.6964171464031885
0.3257181922194582,-7.261000897939376,2.82756989572425,-6.117052101255348
0.25310818324006445,-7.3466131800653045,2.7663993747116966,-6.530750156931447
0.17964205143941142,-7.409118487688105,2.7010918731423823,-6.934467238420434
0.10555086656253036,-7.4458886288295085,2.631747200758178,-7.325200352651326
0.03109198027423528,-7.454348584196575,2.5584951972316645,-7.699988935754305
-0.043451505567730475,-7.431988119791774,2.4814953078741215,-8.055907407733622
-0.11777138676564822,-7.3763830153217675,2.4009362337967852,-8.390058410046748
-0.19153521691886588,-7.285234198434975,2.317035649696318,-8.699578643552808
-0.26438755890321564,-7.156432337235342,2.2300398632607896,-8.981670121018501
-0.33595188227556905,-6.988152880414044,2.1402231620506047,-9.233668412377567
-0.4058334110797095,-6.778981871433579,2.047886477926829,-9.453155586814521
-0.4736232297940453,-6.528066156784573,1.9533549220586837,-9.638118824506455
-0.5389038913618911,-6.235273510535196,1.8569737338136192,-9.787146462923305
-0.6012566264672431,-5.901340165840701,1.759102269184386,-9.899642852311263
-0.6602700281256502,-5.527977503619953,1.6601058406612734,-9.976034135799157
-0.7155498031618497,-5.117908720154526,1.560345499303282,-10.017931927516292
-0.766728890363395,-4.674812068885198,1.460166180028119,-10.028223590361018
-0.8134770110522469,-4.203159907584791,1.3598839441245087,-10.01106768380906
-0.8555086101280948,-3.7079600170065357,1.2597732672864181,-9.97178993210579
-0.8925882102981602,-3.1944230968438028,1.1600553679653602,-9.916694934772803
-0.9245324412665982,-2.6675928882006312,1.0608884186176322,-9.85282655807495
-0.9512083701486045,-2.1319792069197443,0.9623601530368826,-9.78772085183405
-0.9725281622178019,-1.5912283208599833,0.8644829445185421,-9.729197230388374
-0.9884404454264017,-1.0478516822423067,0.7671909722146584,-9.685227516202861
-0.9989189622488248,-0.5030171624449625,0.6703386970526297,-9.663911671610272
-1.0039491338732744,0.04360889688503655,0.573699580336527,-9.67357771028964
-1.003513044904424,0.5939916812016308,0.47696380323363063,-9.723014137492399
-0.9975731280924077,1.1518563793503644,0.37973366185870666,-9.821835817144233
-0.986054564298904,1.7228328999871707,0.2815153036872643,-9.980971850021282
-0.9688262352990323,2.31460127253076,0.1817055851870515,-10.213227428963132
-0.9456802225737247,2.9369292057335445,0.07957331089742017,-10.53375961848383
-0.9163109305163893,3.601246723534827,-0.025764285287418115,-10.959987268592045
-0.8802984632810411,4.318765405712755,-0.13536415797333856,-11.509595549294703
-0.8371108092239136,5.09459383713058,-0.2504601134662856,-12.193151480182896
-0.7861648708526078,5.91209146208054,-0.37239162826811456,-12.993353486644232
-0.7270439562318024,6.698488447000488,-0.5023251631345569,-13.818263673055263
-0.6600590717617976,7.276996079150984,-0.6405077998651095,-14.435026490581667
-0.5872891109702877,7.389666258600993,-0.7848580647709262,-14.499462727302845
-0.5133924483842778,6.930295897088844,-0.9298526920439547,-13.872583316689745
-0.4440894894133893,6.129567168618902,-1.0685785252108522,-12.867455782616377
-0.38279381772720034,5.286137825741267,-1.1972530830370158,-11.877640292300997
-0.3299324394697877,4.530746354559213,-1.316029485960026,-11.064755499519402
-0.28462497592419556,3.8794173515286063,-1.4266770409552199,-10.439242892188167
-0.24583080240890948,3.3138830373190915,-1.5310694698771015,-9.970272915443482
-0.21269197203571855,2.8122943895079238,-1.6307721990315363,-9.625685353963744
-0.1845690281406393,2.3564431857490025,-1.7270290525711738,-9.380346513329927
-0.16100459628314928,1.9323226211526658,-1.820832517704473,-9.216017753497592
-0.14168137007162263,1.5293217783977633,-1.912992695239449,-9.11970681930234
-0.126388152287645,1.1393884884855539,-2.004189763432472,-9.082133806416062
-0.11499426740278945,0.7564207025741512,-2.095011101496633,-9.096554147906451
-0.10743006037704794,0.37589088060170256,-2.1859766429756973,-9.157875225037738
-0.10367115157103092,-0.005336496774754396,-2.2775553952260745,-9.261964479637212
-0.10372451653877847,-0.38903075885116434,-2.370175040022447,-9.405065055689322
-0.1076148241272901,-0.7754922571902936,-2.4642256905793403,-9.583260802526752
-0.11536974669919305,-1.1633469912175398,-2.560058298604608,-9.791958138444723
-0.12700321661136843,-1.5492728212843985,-2.657977879989055,-10.025380121895155
-0.1424959448242124,-1.9277113121556866,-2.7582316812080068,-10.276101780154036
-0.16177305794576927,-2.290649952534001,-2.860992699009547,-10.534696420121275
-0.18467955747110928,-2.627594733279663,-2.9663396632107597,-10.789605024618737
-0.2109555048039059,-2.9258773980376787,-3.074235713456947,-11.02736934931755
-0.2402142787842827,-3.171429523245201,-3.1845094069501227,-11.23335748079395
-0.2719285740167347,-3.350078815887481,-3.2968429817580622,-11.393029885858223
-0.3054293621756095,-3.449271401701021,-3.4107732806166444,-11.493636389238162
-0.3399220761926197,-3.4599313543865438,-3.525709644509026,-11.526039882723902
-0.37452138973648513,-3.378020974875536,-3.640970043336265,-11.486222970519592
-0.4083015994852405,-3.2053620409464054,-3.755832273041461,-11.37604859038531
-0.44035521989470455,-2.9494598016972176,-3.869592758945314,-11.203044264112897
-0.46984981791167674,-2.6223711011534903,-3.981623201586443,-10.979280645474253
-0.49607352892321166,-2.238935325643001,-4.091416008041185,-10.719674342023229
-0.5184628821796416,-1.8148212413935951,-4.198612751461417,-10.440154319133951
-0.5366110945935776,-1.36480360882435,-4.3030142946527565,-10.156077250877125
-0.5502591306818211,-0.9015267810071403,-4.404575067161527,-9.881123412519607
-0.5592743984918925,-0.43482728168378054,-4.5033863012867235,-9.626734436800914
-0.5636226713087303,0.028456712284648245,-4.599653645654732,-9.40202664944679
-0.5633381041858838,0.4843356444212293,-4.6936739121492,-9.214050286740667
-0.5584947477416715,0.9313374248277478,-4.785814415016607,-9.068257823431377
-0.549181373493394,1.3701275968945232,-4.876496993250921,-8.96907251288631
-0.5354800975244488,1.803174052583064,-4.966187718379784,-8.920489638554576
-0.5174483569986181,2.2345132729244583,-5.05539261476533,-8.926683371708416
-0.49510322426937353,2.6696493910830537,-5.144659448482414,-8.992624655520867
-0.46840673035854297,3.115602206280523,-5.234585695037622,-9.124737941425115
-0.43725070829573776,3.581109679021195,-5.325833074451873,-9.331633991064477
-0.4014396115055258,4.076969765167588,-5.4191494143625185,-9.624939602267757
-0.36066991385384994,4.616438664557815,-5.5153988103851965,-10.020158914603766
-0.3145055272082718,5.2153862324530875,-5.6156003995312345,-10.537210247313768
-0.2623516648837409,5.891261482077753,-5.720972502004372,-11.199398347963474
-0.20343905006296337,6.658090814842708,-5.832966485484007,-12.02705748143342
-0.1368581419145363,7.510100951925488,-5.953237060298341,-13.015653522561891
-0.06175713239528141,8.37840183335203,-6.08339359552396,-14.076634331553805
0.022026885938238885,9.051967009310582,-6.224159938839498,-14.92825649068108
0.11254655603134471,9.165992799942735,-6.3734425037463085,-15.078294313769034
0.20420648403077207,8.537156063798687,-6.524225446883999,-14.28429108998227
0.2895780446687589,7.505583583093508,-6.667068357783822,-13.016005457476917
0.36463388049969403,6.486185981269285,-6.79722841235859,-11.831120890314892
0.4294957403123869,5.616606036628201,-6.91553962126174,-10.90409441369975
0.48566180067866893,4.889054631924538,-7.024580565398737,-10.216186790435769
0.5345523469979143,4.267621251057086,-7.126742433303095,-9.7155307831382
0.5772285595084852,3.720311075658006,-7.2238977411344765,-9.358760090588692
0.6144316702650652,3.223075247201352,-7.317485342040364,-9.11509505168142
0.6466624227370787,2.7583170759178874,-7.408636292557178,-8.963481215326546
0.6742455934962577,2.3130565309750084,-7.498271104710444,-8.889527674795733
0.6973761588060078,1.877619903558557,-7.587166381458401,-8.883219812885429
0.7161523578415934,1.4448545876451742,-7.675998579587255,-8.937278391391631
0.7306009037180451,1.0097537286840077,-7.765371363501171,-9.045918771885267
0.7406984410048851,0.5693970751022065,-7.855830551220024,-9.203818778070813
0.7463924117559072,0.12314053440332806,-7.947868739000732,-9.405174197391396
0.7476238170999405,-0.32701050225774697,-8.041920480974646,-9.642790467732452
0.744353712077363,-0.7759375047679848,-8.138348385651971,-9.907237779098322
0.7365943370296831,-1.2150081688031322,-8.237420763442955,-10.186192589343438
0.7244442553416518,-1.6319702528182072,-8.33928268933639,-10.46419154671338
0.7081245528134698,-2.0114277628607065,-8.443924604803524,-10.723091143169755
0.6880102751848627,-2.336150600155893,-8.551155516235221,-10.943478855923695
0.6646487691833037,-2.5892637382812147,-8.660590304794459,-11.107039825993382
0.6387561318004916,-2.756986732876919,-8.771660703054392,-11.19945907524166
0.6111862644717224,-2.8312018607082856,-8.88365529380681,-11.21302382602815
0.5828742458646395,-2.810995086859296,-8.99578553206709,-11.147998463687378
0.5547642949960466,-2.7026237141876703,-9.107265516703965,-11.01225543070634
0.5277380578541699,-2.5179887440927926,-9.217388071011028,-10.819363690107888
0.502558170413242,-2.2722419818335213,-9.325581707912107,-10.585905572539486
0.4798357505949068,-1.9813270293594065,-9.431440763637502,-10.328897993671008
0.4600224803013127,-1.6600437269710102,-9.534729743574212,-10.063898197462416
0.4434220430316026,-1.320867340873983,-9.635368725548837,-9.80396442048897
0.4302133696228628,-0.9734643747354714,-9.733408369753727,-9.559348408080258
0.42047872587550805,-0.6247071134180386,-9.82900185383453,-9.337679982693698
0.41423165474132767,-0.278971587612536,-9.922378653661466,-9.144412993491933
0.4114419388652023,0.061451701730395214,-10.013822783596385,-8.983364995404642
0.4120564558825063,0.39594545192350167,-10.103656433550432,-8.857251639244351
0.4160159104017413,0.7252123225914897,-10.192228949942875,-8.768170418394048
0.4232680336276562,1.0510070995138956,-10.279910654126816,-8.718023603756341
0.43377810462279515,1.375960814593652,-10.367090890164379,-8.708890479305104
0.44753771276873167,1.7034941137983663,-10.45417979495743,-8.74336929770669
0.4645726539067153,2.0378139889086326,-10.541613487934496,-8.824913467050186
0.48495079379580164,2.383986674771679,-10.629862622604998,-8.958185741337916
0.5087906605435184,2.748074766382927,-10.719444480018376,-9.1494460681578
0.5362714082073476,3.137308569884029,-10.810938940699954,-9.406962661500101
0.567644493906188,3.5602074457655744,-10.905008567314955,-9.741362169390634
0.6032465683638437,4.026419778504882,-11.002422189008861,-10.165636551573803
0.6435107661488926,4.5456718212894875,-11.1040785545246,-10.694010081302993
0.6889674843617875,5.1242943454025855,-11.21101865533763,-11.337603326988267
0.7402104278158133,5.755803610089338,-11.324394688607514,-12.092058707705581
0.7977684639167066,6.399086827340172,-11.44531527568457,-12.908140269239404
0.8617593321901084,6.940505515336326,-11.574396678376964,-13.639852941684829
0.9311643873434716,7.172762754044638,-11.710795207793812,-14.014728498685788
1.002892014883918,6.90375031993551,-11.85094249278067,-13.781616774737666
1.071929518083273,6.189489906742953,-11.988758660528045,-13.025816336028576
1.1338244171507026,5.299771841071401,-12.119016823888332,-12.11436096454224
1.1868221355614166,4.43464841031943,-12.240160433533754,-11.309569280684906
1.2311686196646108,3.654733125435813,-12.353256126340604,-10.683373129944455
1.2677159509189688,2.955924388359966,-12.460089857640048,-10.22352946399358
1.2972751948025685,2.318602092489018,-12.562325152279984,-9.900100674397029
1.3204612157274587,1.7235742035653763,-12.661326159023954,-9.68574832167259
1.3376969577631124,1.155417884461123,-12.75818364224068,-9.5591823707425
1.3492511366077236,0.6024359280921417,-12.853775465948104,-9.504337105398
1.355275495888645,0.05599811357581996,-12.948818837002085,-9.508898362698654
1.3558354770244032,-0.49004257778239313,-13.043907820629071,-9.563020962889336
1.3509350512465792,-1.0397430852626368,-13.139538030257965,-9.658347177393997
1.3405376203939527,-1.5952994578590567,-13.236121502031905,-9.78728265386217
1.3245846258153622,-2.157167566931932,-13.333994328570526,-9.942477531259966
1.3030129501460428,-2.7241332148105206,-13.433419103883125,-10.116481921039
1.2757716179979375,-3.2933871886916117,-13.534583923093514,-10.301566020626977
1.2428377461110214,-3.860656325909133,-13.637599583299783,-10.489707267401272
1.20423118285193,-4.42043218216568,-13.742496655973795,-10.672746814003384
1.1600268610302733,-4.966321033840996,-13.84922412411383,-10.842704056603967
1.1103636506918633,-5.491511646378087,-13.95765116467987,-10.992212973092977
1.0554485342280824,-5.98932396731156,-14.0675732944108,-11.11501431194618
0.9955552945549668,-6.453771180394872,-14.17872343753026,-11.206414352591997
0.9310175827510181,-6.880050624249923,-14.29078758105618,-11.263616182616119
0.8622170765085189,-7.264884733877338,-14.403423742882342,-11.285850366447804
0.7895682291697455,-7.606662292097493,-14.51628224654682,-11.27427545038882
0.7135016062487705,-7.9053738756955125,-14.629025001050708,-11.231671356678223
0.6344478674918154,-8.162378218548625,-14.74134171461749,-11.161992238239767
0.5528240853063291,-8.380064270131912,-14.852961636999888,-11.069866133056658
0.46902344260500994,-8.56148057664938,-14.963660298330455,-10.96012366711097
0.3834086368385161,-8.709991927050321,-15.073261535001564,-10.837414209885267
0.2963087175680129,-8.829001401755512,-15.181635677100417,-10.705937158105403
0.2080187035504578,-8.9217530996731,-15.28869504868147,-10.569288867452173
0.11880117255372678,-8.991212997071292,-15.394387937355992,-10.430407770747
0.028889042583013863,-9.040014804640622,-15.498692015063462,-10.291592117886506
-0.06151110546339236,-9.070453624478596,-15.601607936242328,-10.154564253884372
-0.1522156417081783,-9.084510631544504,-15.703153578781171,-10.020559232760418
-0.24306074802362335,-9.083894792621987,-15.803359171108776,-9.890421128826015
-0.3338996959498432,-9.070091193971916,-15.902263382397036,-9.764695896267996
-0.42460060788956233,-9.04440892798383,-15.999910341359715,-9.643714184214657
-0.5150446971694006,-9.008024260826993,-16.09634748320186,-9.5276608968278
-0.6051249397776706,-8.962016868367488,-16.191624092170137,-9.416630589076167
-0.6947451084613454,-8.907398355195683,-16.2857903980609,-9.310669231498686
-0.7838190920133022,-8.845133191598634,-16.378897090375887,-9.209803698671063
-0.8722704239292886,-8.776152749663364,-16.4709951273626,-9.114060736587923
-0.9600319514259222,-8.701363405659983,-16.56213573472848,-9.02347729376706
-1.047045585482522,-8.621649787906293,-16.65237050766615,-8.938104063735773
-1.133262083361585,-8.53787424961729,-16.741751548303505,-8.858003951576686
-1.218640825857758,-8.45087357790686,-16.83033158781927,-8.783246988766358
-1.3031495616368265,-8.361453842511777,-16.91816405770693,-8.713903007059827
-1.3867641000619442,-8.270384160878445,-17.00530308777753,-8.650033162142911
-1.4694679416707286,-8.178390023546653,-17.09180341939896,-8.591681183546404
-1.5512518419061951,-8.086146694502494,-17.177720231234424,-8.538865027329187
-1.63211330885122,-7.994273081517753,-17.263108881507716,-8.491569427993452
-1.7120560396663975,-7.903326365333544,-17.34802457578765,-8.449739689558497
-1.791089303319733,-7.813797585983483,-17.432521972683237,-8.413276924429804
-1.8692272791795679,-7.726108310238771,-17.516654741927535,-8.382034842789393
-1.9464883622819555,-7.640608445567368,-17.60047509035543,-8.355818113445142
-2.022894446737629,-7.557575221675034,-17.68403327148988,-8.334382257021655
-2.0984701989543795,-7.477213328496061,-17.767377094060098,-8.317434990829058
-2.17324233223934,-7.399656176848437,-17.85055144396839,-8.304638917970307
-2.2472388940078245,-7.324968232090555,-17.93359783314809,-8.29561543731313
-2.32048857632873,-7.2531483592826325,-18.016553987521224,-8.289949742044767
-2.3930200599215565,-7.18413410808612,-18.099453484941673,-8.28719676921505
-2.464861401002418,-7.117806854889338,-18.182325452633822,-8.286887958132295
-2.5360394695513113,-7.0539977069813,-18.265194332215145,-8.288538669657568
-2.6065794466211245,-6.99249405826707,-18.34807971891172,-8.291656110178213
-2.6765043872037952,-6.93304666805064,-18.430996280013503,-8.29574759308371
-2.745834853884302,-6.875377114592696,-18.51395375594434,-8.300328957556296
-2.814588625030229,-6.819185454962118,-18.5969570455199,-8.304932950846204
-2.88278047957985,-6.764157904173945,-18.680006375028363,-8.309117367946305
