th1 (rad),w1 (rad/s),th2 (rad),w2 (rad/s),a1 (rad/s^2),a2 (rad/s^2)
5.465453691163816,1.066361697025023,2.428101464527233,0.8030134941935418,7.886226346357689,1.5478607766950567
5.476117308134066,1.1452239604885999,2.4361315994691686,0.8184921019604924,7.818893003415623,1.5574268167938936
5.487569547738953,1.2234128905227561,2.4443165204887736,0.8340663701284313,7.741006563889081,1.5576646327904675
5.49980367664418,1.300822956161647,2.4526571841900577,0.849643016456336,7.651804346586267,1.5472661299720591
5.512811906205796,1.3773409996275094,2.461153614354621,0.8651156777560566,7.550473903596901,1.5248247572367641
5.526585316202071,1.4528457386634785,2.4698047711321816,0.8803639253284242,7.436162181401038,1.488850760503025
5.541113773588705,1.527207360477489,2.478608410385466,0.8952524329334545,7.3079860121763955,1.437788768014906
5.55638584719348,1.6002872205992529,2.4875609347148004,0.9096303206136035,7.1650440417803125,1.3700378956387267
5.572388719399473,1.671937661017056,2.4966572379209366,0.9233306995699908,7.006430185076178,1.2839745271804595
5.589108096009643,1.7420019628678178,2.5058905449166367,0.9361704448417955,6.831248677302839,1.1779778786445936
5.606528115638321,1.8103144496408463,2.5152522493650546,0.9479502236282414,6.638630761995885,1.0504583957353832
5.62463126013473,1.8767007572608052,2.5247317516013372,0.9584548075855953,6.427753021487434,0.8998889604269225
5.6433982677073375,1.9409782874756796,2.5343162996771933,0.9674536971898645,6.197857315100816,0.7248387948930971
5.662808050582094,2.002956860626688,2.5439908366490918,0.9747020851387955,5.948272242569835,0.5240098494226789
5.682837619188361,2.0624395830523863,2.55373785750048,0.9799421836330223,5.678435995549722,0.29627534523424415
5.703462015018885,2.1192239430078836,2.5635372793368103,0.9829049370853647,5.387920397768195,0.04072001362586254
5.724654254448963,2.1731031469855657,2.573366328707664,0.9833121372216234,5.076455863653261,-0.2433185697949898
5.746385285918819,2.2238677056220983,2.58319945007988,0.9808789515236734,4.7439569253551435,-0.5562083119461884
5.76862396297504,2.27130727487565,2.593008239595117,0.9753168684042115,4.390547888242067,-0.8979815116679516
5.791337035723797,2.3152127537580705,2.602761408279159,0.9663370532875319,4.016588074879153,-1.2682954461223759
5.814489163261378,2.355378634506862,2.6124247788120343,0.9536540988263081,3.6226960077055232,-1.6663959046179189
5.8380429496064465,2.3916055945839174,2.6219613198002976,0.9369901397801289,3.209771762989976,-2.0910851124212506
5.861959005552285,2.423703312213817,2.631331221198099,0.9160792886559164,2.7790166070842495,-2.540695645489517
5.886196038674424,2.4514934782846596,2.640492014084658,0.8906723322010212,2.331948907120364,-3.0130720680470393
5.91071097345727,2.4748129673558634,2.6493987374066683,0.8605416115205508,1.8704152020366835,-3.5055621108255726
5.935459103130829,2.4935171193762304,2.658004153521874,0.825485990412295,1.3965952397423136,-4.015019226814981
5.9603942743245915,2.5074830717736534,2.666259013425997,0.7853357981441451,0.9129997494938924,-4.537818288463232
5.985469105042328,2.516613069268592,2.674112371407438,0.7399576152595128,0.4224597451526763,-5.06988599879849
6.0106352357350135,2.520837666720119,2.6815119475600335,0.6892587552715279,-0.07189373383135905,-5.606747253642334
6.035843612402215,2.5201187293818053,2.688404535112749,0.6331912827351046,-0.566660321109291,-6.14358819312012
6.061044799696033,2.5144521261707125,2.6947364479401,0.5717554008039034,-1.0582120035929512,-6.6753360087905405
6.08618932095774,2.503870006134783,2.700454001948139,0.505002040715998,-1.5427458629615804,-7.1967547347971506
6.1112280210190875,2.488442547505167,2.7055040223552993,0.43303449336802646,-2.016347376756066,-7.70255527568219
6.136112446494139,2.4682790737376066,2.7098343672889795,0.3560089406112046,-2.4750630992077522,-8.18751686294707
6.160795237231516,2.4435284427455293,2.7133944566950916,0.2741337719817339,-2.9149808092948466,-8.646616065558575
6.185230521658971,2.414378634652581,2.716135794414909,0.18766761132614812,-3.3323144862119043,-9.07515850661154
6.209374308005497,2.381055489790462,2.7180124705281705,0.09691602626003272,-3.7234908243921088,-9.46890767265775
6.233184862903402,2.3438205815465407,2.718981630790771,0.0022269495334552164,-4.085233511753873,-9.82420475696406
6.256623068718867,2.302968246429002,2.7190039002861055,-0.09601509803618538,-4.414641241995627,-10.13807344929159
6.279652751183157,2.2588218340090456,2.7180437493057434,-0.19739583252910126,-4.709255473970701,-10.408304034041391
6.302240969523248,2.2117292792693384,2.7160697909804523,-0.3014788728695152,-4.967114319447782,-10.633512097175476
6.324358262315942,2.1620581360748607,2.713055002251757,-0.40781399384126993,-5.186789628708694,-10.813168522571457
6.34597884367669,2.110190239787774,2.7089768623133446,-0.5159456790669845,-5.36740530464327,-10.947599173785127
6.367080746074568,2.0565161867413413,2.703817405522675,-0.6254216708048358,-5.508636026186436,-11.037954552272465
6.387645907941981,2.0014298264794768,2.6975631888146268,-0.7358012163275605,-5.610686789896021,-11.086151613630312
6.407660206206776,1.9453229585805165,2.690205176651351,-0.8466627324638636,-5.67425486123386,-11.094791621755222
6.427113435792581,1.888580409968178,2.6817385493267123,-0.9576106486814158,-5.700476747764031,-11.067059263185687
6.445999239892263,1.8315756424905376,2.6721624428398982,-1.0682812413132727,-5.690863570832326,-11.006609113315713
6.464314996317168,1.7746670067822143,2.6614796304267654,-1.17834733244643,-5.647228661285051,-10.917445887167196
6.482061666384991,1.718194720169364,2.649696157102301,-1.2875217913181018,-5.57161132042489,-10.80380472979888
6.4992436135866845,1.662478606965115,2.63682093918912,-1.3955598386160906,-5.466200491541729,-10.670037173319416
6.515868399656336,1.6078166020496976,2.622865340802959,-1.5022602103492848,-5.333261634314378,-10.520507419788572
6.531946565676833,1.5544839857065538,2.6078427386994663,-1.6074652845471706,-5.175069459445804,-10.359502435633544
6.547491405533899,1.5027332911120956,2.5917680858539947,-1.7110603089035061,-4.993848447399612,-10.191158099269948
6.56251873844502,1.4527948066380996,2.5746574827649598,-1.8129718898962057,-4.791722322510115,-10.01940244978965
6.577046686511401,1.4048775834129985,2.5565277638659976,-1.9131659143941022,-4.570672948572138,-9.847916034061729
6.591095462345531,1.359170853927277,2.5373961047220566,-2.0116450747347194,-4.332508502548239,-9.68010850281924
6.604687170884803,1.3158457689017946,2.5172796539747093,-2.108446159762912,-4.078840297667032,-9.519109991114055
6.617845628573821,1.2750573659251243,2.49619519237708,-2.2036372596740526,-3.811067275928646,-9.367775434658276
6.630596202233073,1.236946693165838,2.4741588197803397,-2.2973150140206355,-3.5303669679741576,-9.228699799679191
6.642965669164731,1.2016430234860964,2.4511856696401333,-2.3896020120174275,-3.2376916100551165,-9.104242205313735
6.654982099399592,1.1692661073855453,2.427289649519959,-2.4806444340705647,-2.933768092161329,-8.996557053445416
6.666674760473447,1.139928426463932,2.4024832051792537,-2.570610004605019,-2.6191004649512855,-8.907630510072986
6.678074044738087,1.1137374218144191,2.3767771051332036,-2.659686309705749,-2.293973833784852,-8.83932096725021
6.689211418956231,1.0907976834765707,2.350180242036146,-2.748079519378251,-1.9584585968913013,-8.793402423611024
6.700119395790996,1.0712130975076577,2.3226994468423636,-2.836013543614361,-1.612414127035457,-8.771610029168238
6.710831526766073,1.0550889562373031,2.29433931140622,-2.9237296439060434,-1.255491142734047,-8.77568732686594
6.721382416328447,1.0425340448099627,2.2651020149671592,-3.0114865171747027,-0.8871321626021922,-8.807434973759683
6.731807756776546,1.0336627231839408,2.2349871497954124,-3.0995608669122996,-0.5065695875421277,-8.868760924707642
6.742144384008386,1.0285970273085194,2.2039915411262894,-3.188248476159376,-0.11282112031369021,-8.961732195164956
6.752430354281471,1.0274688161053824,2.1721090563646954,-3.2778657981110255,0.2953175700177842,-9.088628364565226
6.7627050424425255,1.0304219918055604,2.139330398383585,-3.3687520817566776,0.719282767786218,-9.251996902131056
6.773009262360581,1.0376148194834225,2.105642877566018,-3.461272050777988,1.160754663082592,-9.454710134144534
6.783385410555415,1.0492223661142484,2.0710301570582383,-3.5558191521194336,1.621670206769113,-9.700023129298039
6.793877634216558,1.0654390681819395,2.035471965537044,-3.652819383412414,2.1042348347855357,-9.991630799202683
6.804532024898377,1.086481416529795,1.9989437717029197,-3.7527356914044407,2.6109296005506226,-10.333720838834713
6.815396839063674,1.1125907125353012,1.9614164147888753,-3.856072899792788,3.144507987023865,-10.731016353958422
6.826522746189028,1.1440357924055398,1.9228556857909473,-3.963383063332372,3.7079730654005307,-11.18879747567871
6.837963104113083,1.1811155230595451,1.8832218551576236,-4.075271038089159,4.30451993821444,-11.712883883015285
6.849774259343678,1.2241607224416895,1.842469144776732,-4.192399876919312,4.937419310138894,-12.30954824876171
6.862015866568095,1.2735349155430784,1.800545146007539,-4.315495359406929,5.609803630134364,-12.985311517288178
6.874751215723526,1.329632951844422,1.7573901924134696,-4.445348474579811,6.324294557185486,-13.746540458189209
6.88804754524197,1.392875897416277,1.7129367076676716,-4.582813879161703,7.082375049225964,-14.598719830819743
6.901976304216133,1.4636996479085367,1.6671085688760545,-4.7288010774699005,7.883354816574118,-15.545196701853223
6.916613300695218,1.5425331960742779,1.6198205581013556,-4.884253044488433,8.722696128814158,-16.585081214529072
6.932038632655961,1.6297601573624194,1.5709780276564713,-5.050103856633723,9.589350215627487,-17.709824460333767
6.948336234229585,1.7256536595186942,1.5204769890901342,-5.227202101237061,10.461602688085916,-18.89777777070782
6.965592770824772,1.8302696863995533,1.4682049680777636,-5.416179878944138,11.300768173773573,-20.10580452226888
6.983895467688767,1.943277368137289,1.4140431692883222,-5.617237924166827,12.042018122588813,-21.25690928391127
7.0033282413701405,2.063697549363177,1.357870790046654,-5.8298070170059395,12.581967352996406,-22.22327072669882
7.023965216863773,2.189517222893141,1.2995727198765945,-6.052039724272928,12.764049406601355,-22.8059262005774
7.045860389092704,2.3171577169591546,1.2390523226338652,-6.280098986278702,12.366375759291737,-22.71731536607805
7.069031966262296,2.440821474552072,1.1762513327710782,-6.507272139939483,11.104064463026852,-21.58286564255186
7.093440181007817,2.5518621191823403,1.1111786113716833,-6.723100796365001,8.668147402774913,-18.99177830919493
7.11895880219964,2.6385435932100894,1.0439476034080333,-6.91301857945695,4.827103846722587,-14.632810351639298
7.145344238131741,2.6868146316773154,0.9748174176134637,-7.059346682973343,-0.40825645150483963,-8.51636516151095
7.172212384448514,2.682732067162267,0.9042239507837303,-7.144510334588452,-6.630652648028495,-1.1817479893359126
7.1990397051201365,2.616425540681982,0.8327788474378458,-7.156327814481812,-13.045286932102483,6.318273216587089
7.225203960526956,2.485972671360957,0.7612155692930277,-7.0931450823159405,-18.736132635845095,12.781962428859323
7.250063687240566,2.298611345002506,0.6902841184698683,-6.965325458027348,-23.048042426942985,17.374653510391518
7.273049800690591,2.068130920733076,0.6206308638895948,-6.791578922923432,-25.796007334874233,19.90192217771258
7.293731109897921,1.8101708473843336,0.5527150746603604,-6.592559701146307,-27.186546454665,20.69001800876908
7.311832818371765,1.5383053828376836,0.48678947764889735,-6.385659521058616,-27.596908339365925,20.279767143158978
7.327215872200142,1.2623362994440244,0.4229328824383112,-6.1828618496270265,-27.39483748286055,19.18360142386113
7.3398392351945825,0.9883879246154188,0.3611042639420409,-5.991025835388415,-26.859274824378403,17.783506215497226
7.349723114440737,0.7197951763716348,0.3011940055881568,-5.813190773233442,-26.17258121192641,16.325866478044365
7.356921066204453,0.4580693642523707,0.24306209785582236,-5.649932108452998,-25.441530144365956,14.953531175420991
7.361501759846977,0.20365406280871118,0.18656277677129238,-5.500396796698788,-24.722048203672735,13.741188089584057
7.363538300475064,-0.043566419228016184,0.13155880880430448,-5.362984915802947,-24.038754087138123,12.72248656679106
7.363102636282783,-0.28395396009939744,0.07792895964627501,-5.2357600501350365,-23.398175691143766,11.90791764955723
7.3602630966817895,-0.5179357170108351,0.025571359144924644,-5.1166808736394644,-22.7970165455893,11.295654906925591
7.355083739511681,-0.7459058824667281,-0.025595449591470004,-5.003724324570208,-22.227104927336427,10.877760474536188
7.347624680687013,-0.9681769317400923,-0.07563269283717208,-4.894946719824846,-21.678283761132658,10.643557410632217
7.337942911369613,-1.184959769351419,-0.12458216003542055,-4.788511145718524,-21.14007602988296,10.581345818124467
7.326093313676099,-1.3963605296502486,-0.1724672714926058,-4.68269768753728,-20.602640924213844,10.679184240059719
7.312129708379596,-1.602386938892387,-0.2192942483679786,-4.575905845136682,-20.057325685455638,10.925164049895749
7.296105838990672,-1.8029601957469434,-0.2650533068193454,-4.466654204637725,-19.4969881911813,11.30742632204125
7.278076237033203,-1.9979300776587565,-0.3097198488657227,-4.353579941417312,-18.91618770519481,11.814065820761027
7.2580969362566155,-2.187091954710705,-0.3532556482798958,-4.235439283209701,-18.311295781390655,12.433005925092242
7.236226016709509,-2.370204912524611,-0.3956100411119928,-4.111109223958779,-17.68055324607008,13.151893034232923
7.2125239675842625,-2.547010444985312,-0.43672113335158064,-3.9795902936164502,-17.02408470670557,13.9580382053202
7.187053863134409,-2.7172512920523677,-0.4765170362877451,-3.8400099115632482,-16.343874535538088,14.838421026600619
7.159881350213885,-2.8806900374077484,-0.5149171354033776,-3.691625701297242,-15.643705029493788,15.779762366290848
7.131074449839807,-3.0371270877026864,-0.55183339241635,-3.533828077634334,-14.929056818646448,16.768666643470688
7.10070317896278,-3.1864176558891506,-0.5871716731926934,-3.366141411199627,-14.206972564261404,17.791829585245267
7.068839002403888,-3.328487381531765,-0.6208330873046897,-3.1882231153471743,-13.485886877604113,18.83630356638561
7.03555412858857,-3.463346250307806,-0.6527153184581614,-2.999860079683318,-12.775427715203358,19.889809395574492
7.000920666085492,-3.5911005274598398,-0.6827139192549946,-2.8009619857275734,-12.086196883764213,20.941080810193412
6.965009660810894,-3.711962496297482,-0.7107235391122704,-2.5915511776256395,-11.429539396847348,21.980226037674868
6.92789003584792,-3.8262578902659556,-0.7366390508885268,-2.371748917248891,-10.81731297786426,22.999089644896998
6.88962745694526,-3.9344310200445984,-0.7603565400610157,-2.1417580207999207,-10.261669727263182,23.99159753051731
6.850283146744815,-4.03704771731723,-0.7817741202690149,-1.9018420454947476,-9.774861588134307,24.954068181073
6.809912669571642,-4.134796333198573,-0.8007925407239624,-1.6523013636840176,-9.369079436631788,25.885473840614544
6.768564706239657,-4.228487127564891,-0.8173155543608026,-1.393446625277872,-9.056331970597789,26.787635308210966
6.726279834964008,-4.319050447270869,-0.8312500206135813,-1.1255702721957626,-8.84836442569189,27.665332407100262
6.683089330491299,-4.407534091527788,-0.842505723335539,-0.8489169481247599,-8.756607422972044,28.52630665685015
6.639013989576021,-4.495100165757509,-0.8509948928167865,-0.5636538815562584,-8.792131027403958,29.381119898518428
6.594062987918447,-4.583021476031549,-0.8566314316323491,-0.26984268257107413,-8.965554978347278,30.24280700506426
6.548232773158131,-4.672677025815021,-0.8593298584580599,0.03258538747956846,-9.286827100820108,31.126213270821086
6.501506002899981,-4.765545296823222,-0.8590040045832642,0.3438475201877793,-9.764717948152853,32.046822787699774
6.453850549931748,-4.863192476304751,-0.8555655293813864,0.664315748064777,-10.405773885521297,33.01873919966419
6.4052186251687,-4.967250215159964,-0.8489223719007386,0.9945031400614188,-11.212296490574406,34.0512376822753
6.355546123017101,-5.079373180065708,-0.8389773405001244,1.3350155168841717,-12.178635235066416,35.142914528446575
6.304752391216444,-5.201159532416372,-0.8256271853312827,1.6864446621686375,-13.284649883195879,36.27186038895798
6.25274079589228,-5.334006031248331,-0.8087627387095963,2.0491632660582173,-14.484607224847048,37.37946329027574
6.199400735579797,-5.478852103496801,-0.7882711060490141,2.422957898960975,-15.689166983873402,38.34461772392636
6.1446122145448285,-5.635743773335535,-0.7640415270594043,2.8064040762002382,-16.738123676848232,38.945189233359244
6.088254776811473,-5.803125010104017,-0.7359774862974019,3.195855968533831,-17.36411108971453,38.80725969412116
6.030223526710433,-5.9767661210011624,-0.7040189266120636,3.5839285654750426,-17.15691453835212,37.35611993447336
5.970455865500421,-6.1483352663846835,-0.6681796409573131,3.957489764819776,-15.56110357593857,33.815623337371754
5.908972512836574,-6.30394630214407,-0.6286047433091153,4.295645998193494,-11.976666779003965,27.354562531574615
5.845933049815134,-6.423712969934109,-0.5856482833271803,4.56919162350924,-6.046194350411652,17.497570255211087
5.7816959201157925,-6.484174913438226,-0.5399563670920879,4.74416732606135,1.9037954490579299,4.752705908044382
5.71685417098141,-6.465136958947647,-0.49251469383147445,4.791694385141795,10.604748042085738,-9.02458406628663
5.652202801391933,-6.35908947852679,-0.4445977499800565,4.701448544478929,18.253702869365114,-21.21609824053422
5.5886119066066655,-6.176552449833139,-0.3975832645352672,4.489287562073587,23.47937827416085,-29.82130402972309
5.526846382108334,-5.9417586670915306,-0.35269038891453136,4.191074521776356,25.98099331943578,-34.37462089690545
5.467428795437419,-5.681948733897173,-0.3107796436967678,3.8473283128073015,26.32078463989069,-35.65757113938205
5.410609308098447,-5.418740887498266,-0.2723063605686948,3.490752601413481,25.326846112987297,-34.849537996020445
5.356421899223465,-5.165472426368392,-0.23739883455455996,3.1422572214532765,23.68808053985719,-32.94527075629178
5.304767174959781,-4.92859162096982,-0.2059762623400272,2.8128045138903586,21.847324540330966,-30.595283314610693
5.255481258750082,-4.710118375566511,-0.1778482172011236,2.506851680744252,20.045435995110534,-28.163288241870923
5.208380074994417,-4.509664015615406,-0.15277970039368108,2.2252187983255425,18.3945398166199,-25.82782190858734
5.163283434838263,-4.325718617449207,-0.13052751241042565,1.966940579239669,16.935020018693084,-23.662548561462405
5.120026248663771,-4.156368417262276,-0.11085810661802896,1.730315093625045,15.670915625376763,-21.686730673826094
5.078462564491148,-3.9996592610085084,-0.0935549556817785,1.5134477868867842,14.589633646699346,-19.8937165664221
5.038465971881063,-3.853762924541515,-0.07842047781291066,1.3145106212225632,13.67221033632743,-18.266036400094624
4.9999283426356484,-3.717040821178241,-0.06527537160068503,1.131850257221617,12.898350363859006,-16.783013922800905
4.962757934423866,-3.5880573175396506,-0.05395686902846886,0.9640201179936079,12.248721138109847,-15.424386471089148
4.9268773612484695,-3.465570106158552,-0.044316667848532776,0.8097762532827164,11.705857754808912,-14.17186233306274
4.892221660186884,-3.348511528610463,-0.03621890531570561,0.6680576299520891,11.254393396538642,-13.009644332333327
4.858736544900779,-3.2359675946450768,-0.02953832901618472,0.5379611866287558,10.880982846259196,-11.924456802297739
4.826376868954329,-3.127157766182485,-0.02415871714989716,0.4187166186057784,10.574103655388862,-10.905351514019548
4.795105291292504,-3.0214167296285965,-0.019971550963839374,0.3096631034655829,10.323824478105243,-9.943430934234344
4.764891123996218,-2.918178484847544,-0.016874919929183545,0.21022879412323947,10.12158144443529,-9.03155600593491
