th1 (rad),w1 (rad/s),th2 (rad),w2 (rad/s),a1 (rad/s^2),a2 (rad/s^2)
4.175982870981473,0.22769030325011583,2.164031262692496,-0.5361337331882058,7.227776729913943,-4.992510649059335
4.178259774013974,0.29996807054925523,2.1586699253606136,-0.5860588396787991,7.207118281909141,-4.946707767216494
4.181259454719467,0.37203925336834665,2.1528093369638257,-0.6355259173509641,7.189371892132642,-4.885752033670636
4.1849798472531505,0.4439329722896731,2.1464540777903163,-0.6843834376876704,7.175019720728528,-4.809733038561713
4.189419176976047,0.5156831694969584,2.1396102434134394,-0.7324807680732875,7.164626764741102,-4.71869834428422
4.194576008671016,0.5873294371443694,2.1322854357327063,-0.7796677515161298,7.158839262604783,-4.612646473069365
4.20044930304246,0.6589178297704172,2.124488758217545,-0.8257942162468235,7.15838295934522,-4.491519476177411
4.207038481340165,0.7305016593638695,2.1162308160550767,-0.8707094110085976,7.164061171289875,-4.355195379233849
4.214343497933804,0.8021422710767682,2.1075237219449905,-0.914261364800936,7.176752538406615,-4.20348087166907
4.222364920644572,0.8739097964608343,2.098381108296981,-0.9562961735176267,7.197408284229048,-4.036104702204538
4.23110401860918,0.9458838793031248,2.0888181465618048,-0.9966572205396721,7.227048713774006,-3.8527123634277793
4.240562857402211,1.0181543664408648,2.078851574356408,-1.0351843441739499,7.266758564323151,-3.652862804586159
4.25074440106662,1.0908219520840963,2.0684997309146684,-1.0717129722198115,7.3176806771812135,-3.4360281119684943
4.261652620587461,1.1639987588559084,2.0577826011924705,-1.1060732533394966,7.381007274776139,-3.201597350873416
4.27329260817602,1.2378088316036697,2.0467218686590756,-1.1380892268482308,7.457967900825078,-2.9488860829500423
4.285670696492057,1.3123885106119204,2.0353409763905934,-1.1675780876777313,7.549812806442116,-2.677153467838866
4.298794581598176,1.3878866386763415,2.023665195513816,-1.1943496223561199,7.657790238600802,-2.385629336226203
4.312673447984939,1.4644645410623496,2.0117216992902547,-1.218205915718382,7.783115709936722,-2.0735541846122145
4.327318093395562,1.5422956981617169,1.999539640133071,-1.2389414575645041,7.9269309085520305,-1.7402356814535311
4.34274105037718,1.6215650072472372,1.9871502255574258,-1.2563438143790395,8.090249463747016,-1.3851259626873516
4.358956700449652,1.7024675018847073,1.9745867874136354,-1.2701950740059131,8.273886358425715,-1.0079246755723765
4.375981375468499,1.7852063654689645,1.9618848366735762,-1.280274320761637,8.478367440269059,-0.6087133029344037
4.393833439123189,1.8699900398716551,1.9490820934659598,-1.2863614537909809,8.70381534152289,-0.18812660217981433
4.4125333395219055,1.957028193286884,1.93621847892805,-1.288242719812779,8.949808335740729,0.2524332228164855
4.432103621454774,2.0465262766442915,1.9233360517299223,-1.285718387584614,9.215209470683233,0.7105350874570064
4.452568884221217,2.1386783713511237,1.910478867854076,-1.2786130367100441,9.497965026146554,1.1824082357254893
4.473955667934729,2.233658021612589,1.8976927374869756,-1.2667889543527893,9.794874328429477,1.6625843709431345
4.496292248150855,2.331606764896884,1.8850248479434477,-1.250163110643358,10.101337619374618,2.1435019545638196
4.5196083157998235,2.4326201410906303,1.872523216837014,-1.2287280910977199,10.411095395679762,2.6150921038567043
4.5439345172107295,2.5367310950474278,1.8602359359260368,-1.2025771700591528,10.715981590498787,3.0643792871577573
4.569301828161204,2.6438909109524156,1.8482101642254452,-1.1719333771875753,11.005723955190078,3.4751471528371423
4.595740737270728,2.7539481505043164,1.8364908304535694,-1.1371819056592039,11.267837126711298,3.8277390916088727
4.623280218775771,2.8666265217714293,1.8251190113969773,-1.0989045147431151,11.487665267473638,4.099081749833421
4.651946483993485,2.9815031744461655,1.8141299662495463,-1.057913697244781,11.648638781077569,4.263032999946091
4.681761515737946,3.097989562256941,1.8035508292770985,-1.01528336724532,11.732809253633809,4.291157244668254
4.712741411360516,3.2153176547932794,1.7933979956046453,-0.9723717947986376,11.721713689161742,4.154012651215197
4.7448945879084485,3.3325347916848966,1.783674277656659,-0.9308316682864856,11.597589184029419,3.8229899174521655
4.778219935825297,3.448510683525191,1.774365960973794,-0.8926017691119639,11.344910775613684,3.2726669511164217
4.812705042660549,3.561959791281328,1.7654399432826744,-0.8598750996007997,10.952161163135171,2.4835418254730413
4.848324640573362,3.6714814029126797,1.7568411922866665,-0.8350396813460692,10.413670114517338,1.4448906048426176
4.885039454602489,3.775618104057853,1.7484907954732058,-0.820590775297643,9.731298153345438,0.1573900797138381
4.922795635643068,3.8729310855913077,1.7402848877202295,-0.8190168745005046,8.915701333677747,-1.3649223717060273
4.961524946498981,3.9620880989280853,1.7320947189752245,-0.8326660982175649,7.9869180459916524,-3.093779741014165
5.001145827488262,4.041957279388002,1.7237680579930488,-0.8636038956277066,6.974074748883179,-4.987248461038097
5.041565400282142,4.111698026876834,1.7151320190367718,-0.9134763802380875,5.914114370397373,-6.991890308536423
5.08268238055091,4.170839170580807,1.705997255234391,-0.9833952833234517,4.849595513305205,-9.046448626752614
5.124390772256718,4.219335125713859,1.6961633024011564,-1.073859769590978,3.825768133271984,-11.086718846455353
5.166584123513856,4.257592807046579,1.6854247047052466,-1.1847269580555315,2.8872706036369267,-13.051029797799297
5.209160051584322,4.286465513082948,1.6735774351246913,-1.3152372560335244,2.074881671736628,-14.885618820898754
5.252024706715152,4.307214329800314,1.660425062564356,-1.464093444242512,1.4227733331575527,-16.549174137020184
5.295096850013155,4.32144206313189,1.6457841281219308,-1.6295851856127137,0.9566371953483284,-18.015956553172476
5.338311270644474,4.331008435085374,1.6294882762658036,-1.8097447511444384,0.6929093917002843,-19.277174199301122
5.381621354995327,4.337937529002376,1.6113908287543592,-2.0025164931374495,0.6391312352618319,-20.340607062966953
5.425000730285351,4.3443288413549945,1.5913656638229847,-2.205922563767119,0.7953011911321933,-21.22878242027362
5.468444018698901,4.352281853266317,1.5693064381853135,-2.418210387969855,1.1559425969930677,-21.97621620920151
5.511966837231564,4.363841279236247,1.545124334305615,-2.6379725500618703,1.7125575889578841,-22.626320095790565
5.555605250023927,4.380966855125826,1.5187446088049963,-2.864235751019776,2.4561627066918743,-23.22853335767282
5.599414918575185,4.405528482192745,1.4901022512947986,-3.096521084596504,3.3796858136050627,-23.83611157326546
5.643470203397112,4.4393253403287956,1.4591370404488335,-3.3348822003291585,4.4801167494995,-24.504844582137327
5.6878634568004,4.484126507823791,1.425788218445542,-3.579930646150532,5.760416618515634,-25.29283312365654
5.732704721878638,4.541730674008948,1.3899889119840365,-3.8328589773870974,7.231283447824903,-26.26135738827445
5.778122028618728,4.614043508487197,1.3516603222101655,-4.095472551269842,8.91293657589948,-27.47682966241684
5.824262463703599,4.703172874246191,1.310705596697467,-4.370240847894011,10.83711574664009,-29.013824933907987
5.871294192446061,4.811544031712592,1.2670031882185269,-4.660379097233091,13.049485645942402,-30.959193776932405
5.919409632763187,4.942038888172016,1.220399397246196,-4.969971035002414,15.612559752785941,-33.4172103882138
5.968830021644907,5.098164485699876,1.1706996868961719,-5.304143138884553,18.609009293711683,-36.51543743734612
6.019811666501906,5.284254578636992,1.1176582555073264,-5.669297513258014,22.144537759522592,-40.41011775985153
6.072654212288276,5.505699956232219,1.0609652803747462,-6.073398690856529,26.347698784671977,-45.28748189821222
6.127711211850598,5.769176944078938,1.000231293466181,-6.526273509838652,31.35940591461618,-51.35101091028263
6.1854029812913875,6.0827710032251,0.9349685583677945,-7.039783618941478,37.29322546233498,-58.76855166145046
6.246230691323639,6.45570325784845,0.8645707221783797,-7.627469135555983,44.11915891793322,-67.5136579760069
6.3107877239021235,6.896894847027782,0.7882960308228198,-8.302605715316052,51.360164129547094,-76.94678623080695
6.379756672372402,7.410496488323252,0.7052699736696594,-9.07207357762412,57.38201392577475,-84.82921523047523
6.453861637255634,7.984316627581,0.6145492378934182,-9.920365729928873,58.05409792902399,-85.45548790862848
6.533704803531444,8.56485760687124,0.5153455805941295,-10.774920609015158,45.59763758150824,-68.03831228965407
6.619353379600157,9.020833982686321,0.4075963745039779,-11.455303731911698,12.503571275811666,-22.164013701922993
6.70956171942702,9.145869695444437,0.2930433371848609,-11.676943868930929,-33.8495471200031,41.83809736485924
6.801020416381465,8.807374224244406,0.17627389849555164,-11.258562895282337,-67.45405397423319,87.8215545372064
6.889094158623909,8.132833684502074,0.06368826954272827,-10.380347349910274,-75.39212675734169,98.08690665311359
6.970422495468929,7.3789124169286575,-0.04011520395637447,-9.399478283379137,-68.31246835082568,87.6205612804156
7.044211619638216,6.695787733420401,-0.13410998679016584,-8.52327267057498,-57.74363568681977,72.4073146715866
7.11116949697242,6.118351376552203,-0.21934271349591566,-7.799199523859115,-48.22084616695756,58.6587941741799
7.172353010737942,5.636142914882628,-0.29733470873450685,-7.212611582117316,-40.638355810099036,47.55583728282371
7.228714439886769,5.229759356781638,-0.36946082455568,-6.737053209289079,-34.811008307626295,38.80737129155472
7.281012033454585,4.881649273705374,-0.4368313566485708,-6.3489794963735315,-30.366344592138866,31.877361547998913
7.329828526191639,4.577985827783985,-0.5003211516123062,-6.030205880893543,-26.97417185885526,26.29592132903327
7.375608384469478,4.308244109195432,-0.5606232104212416,-5.76724666760321,-24.38260100421667,21.705810444781676
7.418690825561432,4.064418099153266,-0.6182956770972737,-5.550188563155394,-22.407335482737825,17.84638209670548
7.459335006552965,3.8403447443258876,-0.6737975627288276,-5.371724742188339,-20.914193269450152,14.529441285376285
7.497738453996224,3.631202811631386,-0.727514810150711,-5.226430329334576,-19.804160033963498,11.619444006040112
7.534050482112538,3.4331612112917513,-0.7797791134440567,-5.1102358892741755,-19.00212027785521,9.01943688392338
7.568382094225456,3.2431400085131994,-0.8308814723367984,-5.020041520434941,-18.44856831347321,6.661690103489427
7.600813494310588,3.0586543253784675,-0.8810818875411478,-4.953424619400047,-18.093427288147552,4.501743869438609
7.631400037564372,2.877720052496992,-0.9306161337351483,-4.908407180705661,-17.89131670713771,2.5148083242801476
7.660177238089342,2.698806885425615,-0.9797002055422049,-4.883259097462859,-17.79787504297377,0.693667927119053
7.687165306943598,2.520828134995877,-1.0285327965168336,-4.876322418191668,-17.766995591420137,-0.9526537411242542
7.7123735882935565,2.3431581790816756,-1.0772960206987503,-4.885848955602911,-17.74906312600424,-2.4002073610236474
7.735805170084373,2.165667547821633,-1.1261545102547794,-4.909851029213147,-17.690474477820672,-3.612193273200935
7.75746184556259,1.9887628030434263,-1.175253020546911,-4.945972961945157,-17.534847259512294,-4.54259278152911
7.777349473593024,1.8134143304483035,-1.2247127501663626,-4.991398889760448,-17.226291316163117,-5.1420013871814385
7.795483616897507,1.6411514172866724,-1.2746267390639672,-5.042818903632262,-16.714843481455873,-5.365869751752487
7.811895131070374,1.4740029824721137,-1.3250549281002897,-5.096477601149787,-15.963593063026286,-5.1845532479298315
7.826635160895095,1.3143670518418509,-1.3760197041117876,-5.148323133629085,-14.95622818110474,-4.59350793997994
7.839778831413514,1.1648047700308035,-1.4275029354480786,-5.194258213028885,-13.702993055919652,-3.6210281783939084
7.851426879113822,1.027774839471607,-1.4794455175783674,-5.230468494812824,-12.24281563760136,-2.3306883774837464
7.861704627508538,0.9053466830955935,-1.5317502025264957,-5.253775378587661,-10.640039921374218,-0.8166203736935912
7.870758094339494,0.7989462838818513,-1.5842879563123724,-5.261941582324597,-8.975774458112117,0.8081273032879366
7.878747557178312,0.7091885393007301,-1.6369073721356184,-5.253860309291717,-7.3357575542986,2.4274612098792483
7.885839442571319,0.6358309637577442,-1.6894459752285356,-5.229585697192925,-5.797907250414239,3.9381195331618395
7.892197752208896,0.5778518912536018,-1.7417418322004647,-5.190204501861307,-4.42269678697236,5.261519542164493
7.897976271121433,0.5336249233838782,-1.793643877219078,-5.137589306439662,-3.2482421171280973,6.34929850955887
7.903312520355271,0.5011425022125973,-1.8450197702834745,-5.074096321344074,-2.2902426299930525,7.182577323424194
7.908323945377397,0.47824007591266676,-1.8957607334969153,-5.002270548109832,-1.5455347458553648,7.766720665229886
7.913106346136524,0.4627847284541131,-1.9457834389780135,-4.924603341457534,-0.9974539067397359,8.124006110556232
7.917734193421065,0.45281018938671574,-1.9950294723925888,-4.843363280351971,-0.6213856426813534,8.286287552492839
7.922262295314932,0.4465963329599022,-2.0434631051961083,-4.7605004048270425,-0.38946162072545504,8.288941921236079
7.926728258644531,0.44270171675264763,-2.091068109244379,-4.677610985614682,-0.27396505000825855,8.16658726533443
7.931155275812058,0.43996206625256506,-2.1378442191005256,-4.595945112961338,-0.2494512794964111,7.95050084377768
7.935554896474584,0.43746755345760097,-2.183803670230139,-4.516440104523561,-0.2938212466064277,7.667387419284827
7.93992957200916,0.4345293409915367,-2.2289680712753746,-4.439766230330712,-0.3886536920204218,7.339080082433413
7.944274865419076,0.43064280407133243,-2.273365733578682,-4.366375429506379,-0.51907576378828,6.982804746984228
7.94858129345979,0.42545204643344964,-2.3170294878737456,-4.296547382036536,-0.6733871571228627,6.611731548882902
7.952835813924124,0.418718174862221,-2.359994961694111,-4.230430066547707,-0.8425844401233368,6.23562895922979
7.957022995672746,0.4102923304609877,-2.402299262359588,-4.168073776955409,-1.019875302713281,5.8615110554542005
7.961125918977356,0.4000935774338549,-2.4439800001291423,-4.109458666400867,-1.2002312368022896,5.494221202318303
7.965126854751695,0.38809126506583197,-2.485074586793151,-4.054516454377684,-1.3800001323421551,5.136929218134184
7.969007767402354,0.3742912637424104,-2.5256197513369276,-4.003147162196343,-1.556584094569569,4.791538808262099
7.972750680039778,0.3587254227967147,-2.5656512229588913,-3.955231774113722,-1.7281790538978714,4.459012272369627
7.976337934267745,0.341443632257736,-2.6052035407000287,-3.9106416513900255,-1.893568718445388,4.139623847095315
7.979752370590322,0.3225079450732821,-2.644309957213929,-3.8692454129190725,-2.0519641616150595,3.833154049086629
7.982977450041055,0.3019883034571315,-2.6830024113431197,-3.8309138724282064,-2.202880563454143,3.5390366550242165
7.985997333075626,0.2799594978225901,-2.721311550067402,-3.795523505877964,-2.346043547890381,3.2564684698573885
7.988796928053852,0.2564990623436863,-2.7592667851261816,-3.76295882117939,-2.481318724995871,2.984490339089576
7.991361918677289,0.2316858750937276,-2.7968963733379755,-3.7331139177884944,-2.6086592163414375,2.7220462365546068
7.993678777428227,0.2055992829303132,-2.8342275125158602,-3.7058934554229483,-2.728066997462868,2.468025830288674
7.995734770257529,0.17831861295568452,-2.87128644707009,-3.6812131971200617,-2.8395647917907167,2.2212947338761078
7.997517956387086,0.14992296503777736,-2.9080985790412903,-3.659000249781301,-2.943175990677863,1.980715682897807
7.999017186037464,0.12049120513099873,-2.9446885815391033,-3.639193092952323,-3.038910668262202,1.7451631099832101
8.000222098088773,0.09010209844837672,-2.9810805124686266,-3.6217414618524906,-3.1267562287803634,1.513532995257754
8.001123119073258,0.05883453616057308,-3.0172979270871516,-3.606606131899913,-3.206671589737386,1.284749409939689
8.001711464434864,0.026767820263199224,-3.0533639884061508,-3.593758637800516,-3.27858408752639,1.0577688212437886
8.001979142637497,-0.006018020612064676,-3.089301574784156,-3.5831809495880784,-3.3423885104123747,0.8315829629199545
8.001918962431375,-0.03944190571618842,-3.125133384280037,-3.574865119958879,-3.3979478320041485,0.605220878585915
8.001524543374213,-0.07342138403622991,-3.160882035479626,-3.5688129111730196,-3.445095348445752,0.37775059952544876
8.000790329533851,-0.10787233752068744,-3.196570164591356,-3.565035405177765,-3.4836380242172766,0.1482808133622838
7.999711606158645,-0.1427087177628602,-3.2322205186431336,-3.563552597044142,-3.513360932381291,-0.08403719354444578
7.998284518981016,-0.1778423270866731,-3.267856044613575,-3.5643929689795866,-3.534032741577595,-0.3200070851486667
7.996506095710149,-0.21318265450244905,-3.303499974303371,-3.567593039831073,-3.545412259142693,-0.5603843080384416
7.9943742691651245,-0.248636777093876,-3.3391759047016816,-3.5731968829114575,-3.547256091651583,-0.8058720068032971
7.991887901394186,-0.28410933801039184,-3.374907873530796,-3.5812556029794904,-3.539327534577624,-1.0571158127868931
7.989046808014082,-0.3195026133561681,-3.410720429560591,-3.5918267611073595,-3.521406854837083,-1.314697270028309
7.985851781880521,-0.3547166819045389,-3.4466386971716645,-3.604973733807643,-3.4933031866084447,-1.5791256179664936
7.982304615061476,-0.38964971377062335,-3.482688434509741,-3.620764989987308,-3.454868324608404,-1.850827587285397
7.978408117923769,-0.42419839701670736,-3.518896084409614,-3.639273265860162,-3.40601277229479,-2.1301347813587563
7.974166133953602,-0.4582585247396553,-3.5552888170682158,-3.6605746136737496,-3.3467244871619615,-2.4172681091662174
7.969583548706206,-0.4917257696112749,-3.5918945632049533,-3.684747294765412,-3.2770908626158075,-2.7123186045711978
7.964666291010093,-0.524496678237433,-3.6287420361526075,-3.711870480811124,-3.1973245959052967,-3.0152238106260927
7.959421324227718,-0.5564699241964859,-3.665860740960719,-3.742022718917385,-3.1077942123119797,-3.3257387271524377
7.953856624985754,-0.5875478663196056,-3.7032809681498926,-3.7752801061889096,-3.009060142101919,-3.643400119769599
7.947981146322558,-0.6176384677406248,-3.7410337692117817,-3.8117141073866057,-2.901917368350946,-3.96748277926765
7.941804761645152,-0.6466576414241343,-3.7791509102856478,-3.851388935179282,-2.7874457624885944,-4.296946121702619
7.93533818523091,-0.6745320990490202,-3.8176647996374404,-3.894358396396308,-2.6670692702109244,-4.630369366535556
7.92859286424042,-0.7012027917511294,-3.8566083836014036,-3.9406620900616636,-2.5426250558934824,-4.965873479239335
7.921580836322908,-0.7266290423100643,-3.8960150045020203,-3.9903208248540567,-2.416443486920266,-5.301028204434133
7.914314545899808,-0.7507934771792669,-3.9359182127505608,-4.043331106898398,-2.291439335422419,-5.632742977839684
7.906806611128015,-0.7737078705334911,-3.976351523819545,-4.099658536676794,-2.1712136464052487,-5.957141479162893
7.89906953242268,-0.7954200069975436,-4.017348109186313,-4.159229951468423,-2.0601641710384655,-6.269421330951334
7.891115332352705,-0.8160216487079283,-4.058940408700996,-4.221924164777937,-1.9635998450465488,-6.563703289401809
7.8829551158656255,-0.8356576471583937,-4.101159650348776,-4.2875611976719545,-1.8878512245828776,-6.832878594550675
7.874598539394041,-0.8545361594042226,-4.144035262325495,-4.355889983617462,-1.8403638120288905,-7.068469324955914
7.866053177799999,-0.8729397975245115,-4.18759416216167,-4.426574676867021,-1.8297546700295166,-7.2605248718226125
7.857323779824753,-0.8912373442248066,-4.23185990893034,-4.4991799255852465,-1.8658048029866712,-7.397587861477265
7.848411406382505,-0.9098953922546733,-4.276851708186192,-4.573155804200019,-1.9593512559184296,-7.4667740952715524
7.839312452459958,-0.9294889048138576,-4.322583266228192,-4.647823545152735,-2.1220355107589675,-7.454021137318365
7.830017563411819,-0.9507092599214473,-4.369061501679719,-4.722363756525919,-2.3658617094037493,-7.344565036494083
