th1 (rad),w1 (rad/s),th2 (rad),w2 (rad/s),a1 (rad/s^2),a2 (rad/s^2)
4.632356489046377,2.4406011036406468,2.0453539330533914,-2.547987234438317,8.905111752999446,1.990010807248387
4.656762500082784,2.5296522211706414,2.019874060709008,-2.5280871263658335,9.28834070630223,2.396233449018751
4.6820590222944904,2.622535628233664,1.99459318944535,-2.504124791875646,9.664119261038149,2.76866342251138
4.708284378576827,2.719176820844045,1.9695519415265934,-2.476438157650532,10.01476482745625,3.080673250740988
4.735476146785267,2.819324469118608,1.9447875599500881,-2.445631425143122,10.318638774170315,3.299557452368779
4.763669391476453,2.922510856860311,1.920331245698657,-2.4126358506194343,10.550813939571507,3.3874024854021525
4.7928945000450565,3.028018996256026,1.8962048871924626,-2.378761825765413,10.68457600728736,3.3031713342221205
4.823174690007617,3.1348647563288994,1.8724172689348084,-2.3457301124231917,10.693890478678199,3.006211675642085
4.854523337570906,3.2418036611156813,1.8489599678105766,-2.3156679956667707,10.556776971352784,2.461122181746303
4.886941374182062,3.347371430829209,1.8258032878539088,-2.2910567738493075,10.259247480872288,1.643491354782009
4.920415088490355,3.449963905637932,1.8028927201154157,-2.2746218603014876,9.799148521112276,0.5455468737161662
4.9549147275467345,3.547955390849055,1.7801465015124007,-2.269166391564326,9.189018843762936,-0.8196030565753054
4.990394281455225,3.639845579286684,1.7574548375967574,-2.277362422130079,8.457073878755496,-2.4164811611595876
5.026792737248091,3.724416318074239,1.7346812133754566,-2.301527233741675,7.645739595871289,-4.189410529928993
5.0640369004288335,3.800873714032952,1.7116659410380397,-2.343421339040965,6.807739893556978,-6.068391650257141
5.102045637569163,3.8689511129685217,1.68823172764763,-2.404105255543536,6.000409366920973,-7.977730779155747
5.140735148698848,3.9289552066377316,1.6641906750921946,-2.4838825633350936,5.279404757344986,-9.84568791699469
5.180024700765226,3.9817492542111816,1.6393518494588437,-2.5823394425050403,4.6931274784275185,-11.613175338927418
5.219842193307338,4.028680528995457,1.6135284550337934,-2.6984711958943146,4.278907274961665,-13.239914380473614
5.260128998597293,4.071469601745074,1.5865437430748501,-2.8308703396990507,4.061462344559339,-14.707265276134597
5.300843694614744,4.112084225190667,1.5582350396778597,-2.9779429924603966,4.053563023274552,-16.017851488920538
5.341964536866651,4.152619855423413,1.5284556097532558,-3.138121507349602,4.258382712112502,-17.192797901291712
5.383490735420885,4.195203682544538,1.4970743946797598,-3.310049486362519,4.672821898493894,-18.26772984944021
5.42544277224633,4.241931901529476,1.4639738998161347,-3.492726784856921,5.291129253449684,-19.28864806914473
5.467862091261625,4.294843194063973,1.4290466319675654,-3.685613265548368,6.108335983162481,-20.30852985395319
5.510810523202265,4.355926553895598,1.3921904993120817,-3.8886985640879,7.123266411726866,-21.38516645150744
5.554369788741221,4.427159218012867,1.3533035136712028,-4.102550228602975,8.341113028920818,-22.58045359958337
5.59864138092135,4.510570348302075,1.312278011385173,-4.328354764598808,9.775730482431957,-23.961168202371823
5.643747084404371,4.608327653126394,1.268994463739185,-4.567966446622527,11.451905490219634,-25.601197096729496
5.689830360935635,4.72284670802859,1.2233147992729598,-4.823978417589822,13.407909536548168,-27.58520539860785
5.737058828015921,4.856925803394072,1.1750750150970617,-5.0998304715759,15.698644633602285,-30.013789550162514
5.7856280860498615,5.013912249730095,1.1240767103813027,-5.399968367077525,18.399622891433665,-33.0101646127341
5.835767208547162,5.197908478644432,1.0700770267105275,-5.730070013204866,21.61176588403105,-36.72819703062054
5.887746293333607,5.4140261374847425,1.0127763265784788,-6.097351983511071,25.46624106658651,-41.36064167820643
5.9418865547084545,5.668688548150608,0.9518028067433681,-6.510958400293136,30.126380786279512,-47.143539146693044
5.99857344018996,5.969952356013403,0.8866932227404368,-6.9823937917600665,35.77780014584906,-54.34460451386647
6.0582729637500945,6.327730357471894,0.8168692848228362,-7.525839836898731,42.58202080861676,-63.20155398552598
6.121550267324813,6.753550565558061,0.7416108864538489,-8.157855376753991,50.52814164060724,-73.7195572208435
6.189085772980394,7.258831981964134,0.6600323326863089,-8.895050948962426,59.0203537375159,-85.10170902522236
6.261674092800035,7.849035519339293,0.5710818231966847,-9.74606803921465,65.86313437465361,-94.33903257658952
6.340164447993429,8.507666863085829,0.47362114280453815,-10.689458364980545,65.30400342458515,-93.47910834716443
6.425241116624287,9.16070689733168,0.3667265591547327,-11.62424944845219,46.66398783870822,-67.70093704676708
6.5168481855976035,9.627346775718763,0.2504840646702108,-12.30125881891986,1.9940851281216196,-5.981969576431082
6.613121653354791,9.64728762699998,0.12747147648101217,-12.361078514684172,-52.0814042015779,68.48670716695328
6.709594529624791,9.1264735849842,0.0038606913341704546,-11.676211443014639,-81.43816035827692,108.3946876120026
6.800859265474633,8.312091981401432,-0.11290142309597594,-10.592264566894613,-81.36108300702014,107.55512812880305
6.883980185288648,7.49848115133123,-0.21882406876492205,-9.516713285606583,-69.59636613247972,90.72258302329115
6.95896499680196,6.802517490006433,-0.31399120162098787,-8.60948745537367,-57.16745232846001,73.08560277529772
7.026990171702025,6.230842966721832,-0.4000860761747246,-7.878631427620694,-47.02380186265238,58.62661973032095
7.089298601369243,5.760604948095309,-0.47887239045093155,-7.292365230317484,-39.267744420480795,47.4249794424466
7.146904650850196,5.367927503890501,-0.5517960427541064,-6.818115435893018,-33.41252899205447,38.7727871106839
7.200583925889101,5.033802213969956,-0.6199771971130366,-6.430387564786179,-28.979238398775767,31.987298372135733
7.250921948028801,4.744009829982199,-0.6842810727608983,-6.110514581064822,-25.601979447080573,26.549031244064647
7.298362046328624,4.487990035511393,-0.7453862185715465,-5.845024268624176,-23.018338972035778,22.08543274672445
7.3432419466837375,4.257806645791035,-0.8038364612577883,-5.624169941156931,-21.042218116968943,18.33253715430724
7.385820013141648,4.047384464621346,-0.8600781606693576,-5.4408445696138585,-19.540271100541357,15.103016436773716
7.426293857787861,3.851981753615932,-0.9144866063654962,-5.289814405246122,-18.414570326963336,12.263860007093424
7.464813675324021,3.667836050346299,-0.9673847504179574,-5.167175805175187,-17.590247245290577,9.721818984768879
7.501492035827484,3.491933577893393,-1.0190565084697092,-5.069957615327499,-17.006539302925024,7.414365824189078
7.536411371606418,3.321868184864143,-1.069756084622984,-4.995813957085608,-16.61008181053699,5.304389179705941
7.569630053455059,3.155767366758773,-1.1197142241938403,-4.942770065288549,-16.349762710416027,3.377255106583953
7.601187727122647,2.992269739654613,-1.1691419248467259,-4.90899751422271,-16.172896109970612,1.6390543216306053
7.631110424519193,2.830540778554907,-1.218231899988953,-4.892606971006404,-16.022863632392724,0.11485013240919689
7.659415832304742,2.6703121422309795,-1.267157969699017,-4.891458469682312,-15.838696432018464,-1.1543468149733729
7.686118953727052,2.5119251779107947,-1.31607255439584,-4.9030019378320455,-15.557231338185296,-2.1171313149589976
7.7112382055061595,2.356352864528942,-1.3651025737741604,-4.924173250981635,-15.118307203938906,-2.720646523523313
7.734801734151449,2.205169792489553,-1.414344306283977,-4.951379716216868,-14.4728059673653,-2.92277239629366
7.756853432076345,2.0604417328159,-1.4638581034461455,-4.980607440179805,-13.592184776018364,-2.7057897810534404
7.777457849404504,1.9245198850557164,-1.5136641778479436,-5.007665337990339,-12.476852978128816,-2.088006560050424
7.796703048255061,1.7997513552744282,-1.563740831227847,-5.028545403590844,-11.160083621763347,-1.1289992934563056
7.814700561807806,1.6881505190567947,-1.6140262852637552,-5.039835396525406,-9.704913766487703,0.07475235062593044
7.831582066998374,1.5911013813919177,-1.6644246392290094,-5.039087873019147,-8.193819446652924,1.4038637616077174
7.847493080812293,1.5091631869253885,-1.7148155179592008,-5.02504923540307,-6.7138673408262655,2.735820403827056
7.862584712681547,1.442024513517126,-1.7650660103132316,-4.997691031364799,-5.341895820554391,3.9643353944141153
7.877004957816718,1.388605555311582,-1.8150429206268797,-4.958047677420658,-4.13396283249431,5.012702490738425
7.890891013369834,1.3472659269866387,-1.8646233974010862,-4.9079206525132735,-3.1211457814161365,5.838562861123375
7.9043636726397,1.3160544691724774,-1.9137026039262188,-4.84953502390204,-2.3112021639764686,6.430957433287637
7.917524217331425,1.2929424475327127,-1.9621979541652392,-4.785225449569164,-1.6939359079055076,6.8026740475446195
7.930453641806753,1.2760030884536577,-2.010050208660931,-4.717198709093718,-1.2477992322742177,6.981208424357054
7.943213672691289,1.2635250961309155,-2.057222195751868,-4.647386624850148,-0.9458960804728447,7.000729874839146
7.955848923652598,1.254066135326187,-2.1036960620003695,-4.577379326101756,-0.7604804405614386,6.896176936307022
7.96838958500586,1.2464613309205728,-2.149469855261387,-4.508417556738686,-0.665795705042923,6.699613053261947
7.980854198315066,1.2398033738701435,-2.194554030828774,-4.441421426206066,-0.6395236971061468,6.438434133775644
7.993252232053767,1.2334081368990821,-2.2389682450908346,-4.377037084868309,-0.663252844199124,6.134857004308788
8.005586313422759,1.2267756084570909,-2.2827386159395178,-4.315688514825221,-0.7223494710289747,5.806169610262654
8.01785406950733,1.219552113746801,-2.32589550108777,-4.257626818722595,-0.8055239319544806,5.465356706716275
8.030049590644797,1.2114968744272563,-2.368471769274996,-4.202973251655432,-0.9042840475124517,5.121851141794247
8.04216455938907,1.2024540339521317,-2.4105015017915505,-4.1517547402374895,-1.012387911610361,4.78226860715405
8.05418909972859,1.192330154836028,-2.4520190491939253,-4.1039320541659485,-1.1253522654130057,4.451057202544434
8.066112401276952,1.181076632181898,-2.493058369735585,-4.059421482140504,-1.2400379354634339,4.131037922032728
8.07792316759877,1.1686762528272636,-2.53365258455699,-4.018111102920177,-1.3543144495649933,3.823836580297175
8.089609930127043,1.1551331083316136,-2.573833695586192,-3.979872737117205,-1.4667964633521016,3.530219181926455
8.10116126121036,1.1404651436980926,-2.6136324229573638,-3.9445705452979403,-1.5766410021058956,3.25034672900457
8.11256591264734,1.1246987336770335,-2.653078128410343,-3.9120670780078948,-1.6833940496207973,2.9839655161552168
8.123812899984111,1.1078647931808256,-2.692198799190422,-3.8822274228463427,-1.7868760490128985,2.7305472151932166
8.13489154791592,1.0899960326906966,-2.731021073418886,-3.8549219506944103,-1.8870974822696749,2.4893906942033084
8.145791508242826,1.0711250578679998,-2.7695702929258297,-3.8300280437523773,-1.9841973757362306,2.259695154945003
8.156502758821507,1.0512830841106375,-2.8078705733633536,-3.8074310922029273,-2.0783991093092435,2.040612077807221
8.167015589662613,1.030499093017545,-2.845944884285383,-3.787024971424855,-2.1699792037939925,1.8312817232003633
8.177320580592788,1.008799300979605,-2.8838151339996316,-3.768712154192851,-2.259245813181193,1.630858550217585
8.187408573602584,0.9862068428477931,-2.92150225554156,-3.752403568690675,-2.3465244794503444,1.4385288365607662
8.19727064203106,0.9627415980532897,-2.959026291228467,-3.7380182803250674,-2.432149351668408,1.2535229648978754
8.206898058011594,0.9384201045366056,-2.9964064740317173,-3.7254830506760888,-2.516458564405469,1.0751242275770374
8.21628225905696,0.913255518892551,-3.0336613045384784,-3.7147318084003182,-2.5997928447657386,0.9026755476911743
8.225414814245886,0.8872575904448936,-3.0708086226224816,-3.7057050529234066,-2.6824966989811707,0.7355851811596467
8.234287390150335,0.8604326234550819,-3.1078656731517156,-3.69834920111181,-2.764921739072751,0.5733322201849818
8.242891716384886,0.8327834060643543,-3.144849165162834,-3.6926158789099603,-2.8474318626852044,0.41547253745375373
8.25121955044553,0.8043090874375023,-3.1817753239519333,-3.688461153535423,-2.9304101051764917,0.2616456714960164
8.259262641319905,0.7750049863857373,-3.2186599354872873,-3.6858446968204626,-3.0142670485061105,0.11158303839462021
8.267012691183762,0.7448623159006762,-3.255518382455492,-3.6847288664365165,-3.099450698810823,-0.03488225303838097
8.27446131434277,0.713867808912568,-3.2923656711198572,-3.6850776889669,-3.1864577328981336,-0.17780382230392544
8.281599992431895,0.6820032315835867,-3.329216448009526,-3.6868557271899394,-3.2758459595315066,-0.31710865551828815
8.288420024747731,0.6492447719882716,-3.3660850052814255,-3.6900268137451224,-3.3682477384489227,-0.4525821238664974
8.294912472467614,0.6155622946037823,-3.4029852734188766,-3.6945526349837876,-3.464383941505997,-0.583851782929751
8.301068095413651,0.5809184551887223,-3.4399307997687143,-3.700391152813085,-3.565077819609371,-0.7103706608736097
8.306877279965539,0.5452676769926286,-3.476934711296845,-3.7074948594218213,-3.671267852757748,-0.831401128573782
8.312329956735464,0.508554998465051,-3.5140096598910633,-3.715808870707559,-3.7840183120733415,-0.9460009062098059
8.317415506720115,0.47071481534431764,-3.551167748598139,-3.725268879769657,-3.9045258680350954,-1.0530132805239092
8.322122654873558,0.43166955666396667,-3.5884204373958357,-3.735799012574896,-4.034120172975079,-1.1510641413751947
8.326439350440198,0.39132835493421586,-3.6257784275215847,-3.7473096539886477,-4.174255989000369,-1.2385689173566683
8.330352633989541,0.34958579504421217,-3.6632515240614714,-3.7596953431622144,-4.326494217183189,-1.3137527779439833
8.333848491939984,0.30632085287238026,-3.7008484774930936,-3.772832870941654,-4.492469234983714,-1.3746874104445659
8.336911700468708,0.2613961605225431,-3.73857680620251,-3.7865797450460996,-4.673840415294698,-1.4193470785247395
8.339525662073934,0.2146577563695961,-3.776442603652971,-3.800773215831347,-4.872226731653819,-1.4456853293439889
8.34167223963763,0.1659354890530579,-3.8144503358112845,-3.815230069124787,-5.0891250575073625,-1.4517314987123244
8.343331594528161,0.11504423847798428,-3.8526026365025325,-3.82974738411191,-5.325815147397307,-1.4357030665127983
8.344482036912941,0.06178608700401121,-3.890900110343652,-3.8441044147770382,-5.583257176735056,-1.3961261664931068
8.345099897782982,0.005953515236660656,-3.9293411544914223,-3.8580656764419694,-5.861990719773304,-1.3319526860879467
8.345159432935349,-0.05266639196107238,-3.967921811255842,-3.871385203302849,-6.162046536511444,-1.2426592396916296
8.344632769015737,-0.11428685732618682,-4.00663566328887,-3.8838117956997653,-6.48288374354914,-1.128311891491358
8.343489900442476,-0.1791156947616782,-4.045473781245867,-3.895094914614679,-6.8233641244986085,-0.9895818081792715
8.34169874349486,-0.2473493360066643,-4.084424730392014,-3.9049907326964717,-7.181772060483609,-0.8277015830621193
8.339225250134794,-0.3191670566115004,-4.123474637718979,-3.913267748527093,-7.555882966590609,-0.6443595658993895
8.336033579568678,-0.3947258862774065,-4.16260731520425,-3.919711344186087,-7.943076045997394,-0.441538988551369
8.332086320705903,-0.47415664673738045,-4.201804428646111,-3.9241267340716006,-8.340480061432508,-0.22131803625400734
8.32734475423853,-0.5575614473517055,-4.241045695986827,-3.926339914434141,-8.745135349505682,0.014345962762580206
8.321769139765012,-0.6450128008467624,-4.280309095131169,-3.926196454806515,-9.154152850178727,0.2638221772304343
8.315319011756545,-0.7365543293485497,-4.319571059679234,-3.923558233034211,-9.56485210236816,0.5259776906382286
8.30795346846306,-0.8322028503722313,-4.358806642009576,-3.9182984561278285,-9.974864590985439,0.8002969226032554
8.299631439959338,-0.9319514962820856,-4.397989626570854,-3.910295486901796,-10.38219530442488,1.0869401209905871
8.290311924996518,-1.0357734493263344,-4.437092581439872,-3.89942608569189,-10.785242258027338,1.386741189471014
8.279954190503254,-1.143625871906608,-4.476086842296791,-3.88555867379718,-11.182779570323284,1.7011526875504976
8.268517931784189,-1.2554536676098407,-4.514942429034763,-3.868547146921675,-11.573913485696863,2.03215056267225
8.25596339510809,-1.3711928024668092,-4.5536279005039795,-3.8482256412949525,-11.958022235925611,2.382112754573841
8.242251467083422,-1.4907730248260653,-4.592110156916929,-3.824404513749214,-12.334690116325707,2.75368473185191
8.227343736835161,-1.6141199259893224,-4.630354202054422,-3.7968676664306953,-12.703644245455289,3.1496421879450804
8.211202537575268,-1.7411563684438753,-4.668322878718729,-3.7653712445512446,-13.064699877517524,3.5727575134311382
8.19379097389083,-1.8718033672190506,-4.705976591164241,-3.7296436694169333,-13.417717420998796,4.0256730591043555
8.175072940218639,-2.0059805414290386,-4.74327302785841,-3.6893869388258898,-13.762571852776775,4.510781091586285
8.15501313480435,-2.1436062599568064,-4.780166897246669,-3.644279127910027,-14.09913315647679,5.030107901575406
8.133577072204782,-2.284597591521574,-4.816609688525769,-3.593978048894273,-14.427254741151877,5.5851977044265695
8.110731096289566,-2.428870138933093,-4.852549469014712,-3.5381260718500074,-14.746765388379997,6.1769905801508305
8.086442394900235,-2.5763377928168927,-4.887930729733212,-3.476356166048499,-15.05745895746008,6.80568747381325
8.060679016972067,-2.7269123823914936,-4.9226942913936975,-3.4082992913103665,-15.359074661025561,7.470593941056392
8.033409893148152,-2.8805031290017493,-4.956777284306801,-3.3335933518998027,-15.651259028833229,8.169932617598489
8.004604861858134,-3.0370157192900815,-4.990113217825799,-3.251894025723818,-15.933498553439657,8.900612097207103
7.974234704665233,-3.196350704824478,-5.022632158083037,-3.162887904751747,-16.205009350334144,9.657936872719304
7.942271197616988,-3.3584007983278195,-5.054261037130555,-3.066308536024554,-16.464566940406538,10.435239214054109
7.90868718963371,-3.5230464677318847,-5.084924122490801,-2.961956143884013,-16.71025560416018,11.223409562201159
7.873456724956391,-3.6901490237734866,-5.11454368392964,-2.8497220482620014,-16.93911309464652,12.010297918311633
7.836555234718656,-3.859540154719952,-5.143040904412261,-2.729619069078885,-17.146643815330638,12.7799563686606
7.797959833171456,-4.031006592873259,-5.17033709510305,-2.601819505392279,-17.326173833776636,13.511695352575192
7.757649767242723,-4.204268331211025,-5.196355290156973,-2.4667025518665273,-17.46802789199786,14.178938987443031
7.715607083930613,-4.378948610131003,-5.221022315675638,-2.324913161992097,-17.558527925386866,14.747896715016283
7.671817597829303,-4.554533889384872,-5.244271447295559,-2.1774341948419345,-17.578853829888548,15.176133379325469
7.626272258935455,-4.730322427683757,-5.266045789243979,-2.0256728610486796,-17.503883007938978,15.411235806990401
7.578969034658617,-4.905361257763147,-5.286302517854465,-1.8715605029787756,-17.301249293332052,15.38996005907023
7.529915422080986,-5.078373750696468,-5.305018122884253,-1.7176609023880733,-16.931040971939527,15.038507504051404
7.479131684574021,-5.247684160415863,-5.322194731908133,-1.5672758273475593,-16.346773538028565,14.274889429424812
7.426654842969863,-5.411151895796149,-5.337867490181608,-1.4245269330533112,-15.498451621756185,13.014585937422114
7.372543324011901,-5.5661364120137105,-5.352112759512141,-1.2943810736790902,-14.338512195028544,11.180640132680036
7.316881959891764,-5.709521533963996,-5.365056570248932,-1.1825746723522899,-12.830962753514278,8.718576735891542
7.259786744552124,-5.837831161499139,-5.376882316972455,-1.0953889049933745,-10.962854998954024,5.614747706484065
7.201408432937133,-5.947459711488679,-5.3878362060223886,-1.0392414279285338,-8.75542684373924,1.913983662603688
7.141933835822246,-6.035013979926071,-5.398228620301674,-1.020101591302497,-6.270529571612304,-2.2701502525412933
