th1 (rad),w1 (rad/s),th2 (rad),w2 (rad/s)
3.390851231712958,2.1089136386194287,4.539845464414031,0.14962553168648496
3.4119403680991525,2.122906919492598,4.541341719730896,0.19986439632332975
3.4331694372940786,2.138785335622558,4.54334036369413,0.24890307797754319
3.454557290650304,2.15663426749377,4.545829394473905,0.29659577375911783
3.476123633325242,2.176540644095798,4.548795352211497,0.3427906216210347
3.4978890397662,2.198592852353439,4.5522232584277065,0.38732958789893523
3.5198749682897343,2.222880685221117,4.556096554306696,0.430048330112992
3.5421037751419453,2.249495333714334,4.560397037607825,0.47077603328112355
3.5645987284790888,2.2785294281108524,4.565104797940637,0.5093352193077598
3.5873840227601974,2.3100771334025683,4.570198150133715,0.5455415306237087
3.6104847940942233,2.344234303771678,4.575653565439952,0.5792034912366747
3.63392713713194,2.381098700332724,4.5814456003523185,0.6101222508208455
3.657738124135267,2.420770275521592,4.587546822860527,0.6380913205899935
3.681945826890483,2.4633515261718353,4.593927736066427,0.6628963136932107
3.7065793421522013,2.508947915280462,4.600556699203359,0.6843147080721208
3.7316688213050058,2.557668359422517,4.60739984628408,0.7021156565794133
3.757245504899231,2.609625774296724,4.614421002849874,0.7160598783139358
3.7833417626421983,2.664937664376331,4.621581601633014,0.7258996774508508
3.8099911392859616,2.723726733276005,4.628840598407522,0.731379152535048
3.8372284066187214,2.7861214780956702,4.636154389932872,0.732234681897326
3.865089621399678,2.8522567121219966,4.643476736751845,0.7281958017617046
3.893612188520898,2.922273933768847,4.650758694769462,0.7189866357147938
3.9228349278585863,2.996321422723853,4.65794856112661,0.7043280914531256
3.952798142085825,3.074553893256855,4.664991842041141,0.683941118259372
3.9835436810183933,3.1571314647992508,4.671831253223735,0.6575514230203283
4.015114995666385,3.244217615342572,4.6784067674539385,0.6248961817561018
4.047557171819811,3.3359756570595502,4.684655729271499,0.5857334666416812
4.0809169283904065,3.4325631086382478,4.6905130639379164,0.5398553443646994
4.115242559476789,3.5341231293933135,4.695911617381563,0.4871058965309043
4.150583790770722,3.640771925734178,4.700782676346872,0.42740576424510635
4.186991510028064,3.7525807530005704,4.7050567339893234,0.3607852049224193
4.22451731755807,3.8695508526403213,4.708664586038547,0.2874280088071086
4.263212826084473,3.991579471236306,4.711538866126618,0.2077288238407019
4.303128620796836,4.11841516904574,4.713616154365026,0.12236623091801532
4.344312772487293,4.249601228051565,4.714839816674206,0.032392871044172405
4.386808784767809,4.3844075570221355,4.715163745384648,-0.060658600474134544
4.43065286033803,4.52175465345958,4.714557159379907,-0.1546598252424111
4.475870406872626,4.66013850637885,4.713010561127483,-0.24677545458782807
4.522471791936415,4.797572966300618,4.710542806581604,-0.33338180571926657
4.570447521599421,4.931574964399855,4.707208988524412,-0.41005409298657947
4.61976327124342,5.059224551638482,4.703108447594547,-0.47167048686173446
4.6703555167598045,5.177329610774732,4.69839174272593,-0.5126779363909268
4.722128812867552,5.282706571148376,4.6932649633620205,-0.5275371383461651
4.774955878579036,5.372550303615358,4.687989591978559,-0.5113074553511475
4.828681381615189,5.4448181163451785,4.682876517425047,-0.4602607472807902
4.883129562778641,5.498519627282084,4.678273909952239,-0.3723627399283247
4.938114759051461,5.533814778489372,4.674550282552955,-0.2474737118111865
4.993452906836355,5.551883246887561,4.6720755454348435,-0.08720796489682867
5.04897173930523,5.554611037966075,4.671203465785875,0.10548731947552478
5.104517849684891,5.544197424592907,4.6722583389806305,0.3268865334059393
5.15995982393082,5.522790121747223,4.67552720431469,0.5730151685641194
5.215187725148293,5.492218375137055,4.681257356000332,0.840048807444602
5.270109908899664,5.453843572274623,4.689657844074778,1.1245480269515282
5.3246483446224095,5.408510584821306,4.700903324344293,1.4235497680952482
5.378733450470623,5.356568023396265,4.715138822025246,1.7345596453894907
5.432299130704585,5.29792656747398,4.732484418479141,2.0554902096686285
5.485278396379325,5.232132748907733,4.753039320575827,2.384579571027934
5.537599723868403,5.158444631765314,4.776885116286106,2.7203122258731547
5.589184170186056,5.075902834110174,4.804088238544837,3.0613537716954395
5.639943198527158,4.983394730168164,4.834701776261792,3.40650440993887
5.68977714582884,4.879711949151333,4.868766820361181,3.754672157869494
5.738574265320353,4.763602176533227,4.906313541939876,4.1048645633938525
5.7862102870856855,4.63381638617469,4.947362187573814,4.456196619752214
5.832548450947432,4.489152434063315,4.991924153771336,4.807911937647517
5.877439975288065,4.328495735180082,5.0400032731478115,5.159413689063685
5.920724932639866,4.150857756017018,5.091597410038449,5.510301153997041
5.9622335102000354,3.955413499209921,5.146700421578419,5.860406680382651
6.001787645192135,3.7415402780368403,5.205304488382246,6.2098262621292735
6.039203047972503,3.5088622036822863,5.267402751003538,6.558934364810402
6.074291670009326,3.2573083999660315,5.332992094651642,6.908369457324164
6.106864754008987,2.987198665030089,5.402075789224884,7.258969976157498
6.136736740659288,2.6993789300923514,5.474665488986458,7.611629831911653
6.163730529960211,2.3954411366015824,5.550781787305575,7.967026676414238
6.187684941326227,2.078077683119665,5.630452054069718,8.325154797109377
6.208465718157424,1.7516350504708158,5.713703602040812,8.684572483586972
6.225982068662132,1.4229295244033973,5.8005493268766815,9.041269987087615
6.240211363906166,1.1023313999591053,5.890962026747558,9.387129758325402
6.2512346779057575,0.8049359893197046,5.984833324330812,9.708189355937453
6.259284037798954,0.5512239970797441,6.081915217890186,9.98346391477713
6.264796277769752,0.3660051373768446,6.181749857037958,10.185904616255323
6.26845632914352,0.2741770090029548,6.283608903200511,10.2874510276723
6.271198099233549,0.29314793075727763,6.386483413477234,10.268429381120558
6.274129578541122,0.4251752198979996,6.4891677072884395,10.127074415790153
6.2783813307401015,0.6552743398053855,6.590438451446341,9.881845303974874
6.284934074138155,0.9570389852314704,6.68925690448609,9.563697122993286
6.29450446399047,1.302024914882286,6.784893875716023,9.204214205729778
6.307524713139292,1.6665611141207166,6.87693601777332,8.827523996206825
6.3241903242805,2.033922742619999,6.965211257735389,8.448322696544134
6.3445295517067,2.3934731878484277,7.04969448470083,8.073633311832824
6.368464283585185,2.738880407658079,7.130430817819159,7.705497664379043
6.395853087661766,3.066529925461337,7.207485794462949,7.3432167704075075
6.426518386916379,3.374428837580164,7.280917962167024,6.984846901914466
6.460262675292181,3.661541066407303,7.350766431186169,6.628088233359542
6.496878085956253,3.927417290738722,7.417047313519764,6.270771459333134
6.53615225886364,4.172003472873776,7.479755028113096,5.911101707291092
6.577872293592378,4.395549092653338,7.538866045186007,5.547761574152636
6.621827784518912,4.598566287871869,7.5943436609275325,5.179933120963087
6.667813447397631,4.781811214545737,7.646142992137164,4.807272902039332
6.715631559543088,4.946271474802545,7.6942157211575575,4.42985967478032
6.765094274291114,5.093151083817248,7.738514317905361,4.04812684395431
6.816025785129286,5.223849035895921,7.778995586344904,3.662787912499032
6.868264275488245,5.339930216367611,7.815623465469894,3.2747614245281063
6.921663577651921,5.443088827505847,7.848371079715175,2.8851010888050643
6.9760944659269795,5.535104999854337,7.877222090603226,2.4949364612476232
7.0314455159255225,5.617795032648201,7.9021714552157025,2.1054295523729185
7.087623466252005,5.692954852958999,7.923225750739432,1.717753004783602
7.144553014781595,5.762294870599175,7.940403280787268,1.333096143778281
7.202175963487586,5.827362511659414,7.9537342422250505,0.9527063224155294
7.26044958860418,5.889446505470598,7.963261305449206,0.5779744892575402
7.319344053658886,5.949454907831979,7.969041050341781,0.21057530953160952
7.378838602737206,6.007757899291394,7.971146803437097,-0.1473279394067843
7.43891618173012,6.0639888180936055,7.96967352404303,-0.49280824389195216
7.499556069911056,6.116806850488295,7.96474544160411,-0.8218394151956314
7.560724138415939,6.163648838397207,7.956527047452154,-1.128945448676971
7.622360626799911,6.2005427683685275,7.945237592965384,-1.406944505188771
7.684366054483596,6.222120921656036,7.931168147913496,-1.6469898728694572
7.746587263700157,6.222029395749688,7.914698249184801,-1.8391911931937293
7.808807557657653,6.193908709995281,7.896306337252864,-1.9740621339319941
7.870746644757606,6.132914920192555,7.876565715913544,-2.044739572583716
7.932075793959531,6.037350999011482,7.856118320187707,-2.0493409726846905
7.9924493039496465,5.909634197431023,7.83562491046086,-1.9923326180931105
8.051545645923957,5.755964781755986,7.815701584279928,-1.8839877068834563
8.109105293741516,5.584775403603473,7.796861707211094,-1.738050044454696
8.164953047777551,5.404756859960136,7.779481206766547,-1.5687630585667702
8.219000616377153,5.2233351560786305,7.763793576180879,-1.3885482365617519
8.27123396793794,5.045979842857076,7.749908093815261,-1.20690446832348
8.321693766366511,4.87620906034568,7.737839049132026,-1.0303478021312802
8.370455856969969,4.715958388568102,7.727535571110713,-0.8629117819897619
8.41761544085565,4.566037971817064,7.718906453290815,-0.7068026066552345
8.463275820573822,4.42653318370679,7.711838427224262,-0.5629898072846322
8.507541152410889,4.297103803201764,7.706208529151416,-0.4316587429198411
8.550512190442907,4.177186921738651,7.701891941722217,-0.31252664715443385
8.592284059660294,4.066125483598019,7.698766675250673,-0.2050505869186094
8.632945314496274,3.963245070011512,7.696716169381487,-0.10855846026697098
8.672577765196388,3.8678968796001274,7.695630584778817,-0.022328459980377094
8.71125673399239,3.779479595811393,7.6954073001790135,0.05436463804608066
8.749051529950503,3.69744855516208,7.695950946559474,0.12222394490862765
8.786026015502124,3.621317575304002,7.697173186008561,0.18191760846458277
8.822239191255164,3.550656760744143,7.698992362093207,0.2340735162685277
8.857745758862606,3.485088292224692,7.701333097255892,0.2792783570234433
8.892596641784854,3.4242813834263357,7.704125880826127,0.3180790804366843
8.926839455619117,3.3679470822483433,7.707306671630494,0.35098557237565553
8.9605189264416,3.315833286684168,7.710816527354251,0.3784738459423556
8.993677259308441,3.267720161747259,7.714601265813675,0.40098934742450665
9.026354460925914,3.223416036292985,7.71861115928792,0.4189501582567749
9.058588621288843,3.182753797194106,7.7228006608704876,0.43274998395693365
9.090416159260784,3.145587764795553,7.727128160710057,0.44276088601411145
9.121872036908739,3.1117910166313605,7.731555769570198,0.44933575011447946
9.152989947075053,3.081253119156512,7.736049127071343,0.4528105046308311
9.183802478266617,3.0538782255584955,7.740577232117651,0.45350611365741667
9.214341260522202,3.029583499056834,7.745112293254225,0.4517303731847085
9.24463709551277,3.008297823978626,7.749629596986072,0.44777953983930563
9.274720073752556,2.9899607704375724,7.754107392384465,0.4419398205289824
9.304619681456932,2.9745217821410312,7.758526790589754,0.4344887492786168
9.334364899278343,2.961939560426812,7.762871678082541,0.4256964750780819
9.363984294882611,2.952181620943927,7.767128642833321,0.4158269820043539
9.39350611109205,2.945224002370672,7.771286912653365,0.405139260391878
9.422958351115756,2.9410511091824296,7.775338305257284,0.3938884454777995
9.45236886220758,2.9396556727341805,7.779277189712062,0.3823269377527079
9.481765418934922,2.9410388168105217,7.783100459089589,0.3707055171756416
9.511175807103028,2.9452102153202597,7.786807514261345,0.3592744614113228
9.54062790925623,2.9521883309694856,7.790400258875458,0.34828467624629195
9.570149792565925,2.962000724523974,7.793883105637921,0.3379888442515868
9.599769799811165,2.974684424645344,7.7972629940804365,0.3286425954807082
9.629516644057619,2.99028634821969,7.800549420035243,0.32050570140473605
9.659419507539816,3.0088637605420794,7.80375447704929,0.31384329025552565
9.689508145145236,3.030484763610079,7.806892909951846,0.3089270783162473
9.719812992781337,3.0552287990328075,7.809982180735008,0.30603660728622417
9.750365280771666,3.0831871495814718,7.81304254680787,0.30546047244876107
9.781197152267481,3.1144634200802734,7.816097151532358,0.3074975197548961
9.812341786468284,3.1491739740378843,7.8191721267299075,0.3124579818463918
9.843833526208662,3.1874482970170765,7.8222967065483715,0.32066451320188405
9.875708009178833,3.229429251102886,7.82550335168039,0.33245307271628605
9.908002301689862,3.2752731768431,7.828827882407553,0.34817358784106245
9.940755033458293,3.325149789621104,7.832309618285963,0.36819031768848015
9.974006531354505,3.3792418065698406,7.835991521462848,0.39288181308961917
10.007798949420202,3.437744227945456,7.8399203395937445,0.4226403494987503
10.042176391699657,3.500863183612884,7.844146743088732,0.45787068410119436
10.077185023535787,3.5688142414487896,7.848725449929744,0.49898796210984825
10.112873165950274,3.6418200608511446,7.853715329550843,0.5464145701287212
10.149291366558787,3.720107262376201,7.85917947525213,0.6005757083878696
10.18649243918255,3.803902375514956,7.8651852323360085,0.6618934312244241
10.2245314629377,3.8934267230484556,7.8718041666482526,0.7307788900166883
10.263465730168184,3.988890105144896,7.879111955548419,0.8076225096025674
10.303354631219634,4.090483162757329,7.887188180644444,0.892781843857893
10.344259462847207,4.198368331630397,7.896115999083023,0.9865668952814617
10.38624314616351,4.312669348908946,7.905981668035838,1.0892227541935782
10.4293698396526,4.433459346789854,7.9168738955777735,1.2009095219932495
10.473704433120497,4.560747663036119,7.928882990797706,1.3216796343612736
10.519311909750858,4.694465614854158,7.942099787141319,1.4514528950692096
10.5662565658994,4.834451615015806,7.956614316092011,1.5899897639840066
10.614601082049557,4.980436146626366,7.972514213731851,1.7368637008851813
10.66440544351582,5.132027239747896,7.989882850740703,1.8914336276440293
10.7157257159133,5.288697188833947,8.008797187017144,2.0528178041323226
10.768612687801639,5.449771292152164,8.029325365058467,2.219870580765389
10.823110400723161,5.614419362641162,8.05152407086612,2.3911635551309027
10.879254594349574,5.781650641227054,8.07543570641743,2.5649725918334525
10.937071100761845,5.950312539599792,8.101085432335765,2.7392719514359105
10.996574226157843,6.1190933697628935,8.128478151850125,2.911736431242449
11.057765159855473,6.286528923090238,8.15759551616255,3.079751995285974
11.120630449086375,6.451012501017847,8.188393036115409,3.2404349421954968
11.185140574096554,6.610807841817518,8.220797385537363,3.3906593279618593
11.251248652514729,6.764064399798221,8.254703978816982,3.5270922295896736
11.318889296512712,6.9088346647170615,8.28997490111288,3.646236588480646
11.387977643159882,7.0430936798787585,8.326437266997686,3.7444818473191726
11.45840857995867,7.16476160635135,8.363882085470879,3.8181633626380176
11.530056196022183,7.271731019063608,8.402063719097258,3.863632525654668
11.60277350621282,7.361901486293705,8.440700044353806,3.877340451885247
11.676392521075757,7.433224696732256,8.479473448872659,3.8559387037681554
11.75072476804308,7.483763714015305,8.51803283591034,3.796400396318429
11.825562405183232,7.511769552384664,8.555996839873524,3.6961637436507284
11.90068010070708,7.5157768382130525,8.592958477310031,3.5532971761971
11.97583786908921,7.494717546306822,8.628491449072001,3.36668027931894
12.050785044552278,7.44804755143901,8.66215825186519,3.1361880336762233
12.125265520066668,7.375875279517285,8.693520132201952,2.862857914863964
12.199024272861841,7.279075963811134,8.722148711350592,2.549012020607499
12.271815032499953,7.159370525037324,8.747638831556667,2.1983021906759928
12.343408737750327,7.019347041473859,8.769621853463427,1.8156481824517976
12.413602208165065,6.862407149630587,8.787778335287944,1.4070497625099136
12.48222627966137,6.692630291324222,8.801848832913043,0.9792731439717064
12.549152582574612,6.514564046865161,8.81164156435276,0.5394370430775438
12.614298223043264,6.332964980909499,8.817035934783535,0.09454688996457261
12.677627872852359,6.152526291617595,8.81798140368318,-0.3489605494494836
12.739153135768534,5.97763182602124,8.814491798188685,-0.7856011809296407
12.798929454028746,5.812169482755582,8.806635786379388,-1.211111667261215
12.857051148856302,5.659423165579116,8.794524669706776,-1.6225829823593947
12.913645380512094,5.522046224362279,8.778298839883183,-2.0184677345669715
12.968865842755717,5.402105737349566,8.758114162537513,-2.398489829326967
13.022886900129212,5.3011791119937595,8.734129264244244,-2.763494880334968
13.075898691249149,5.220482765214561,8.706494315440894,-3.1152796797854085
13.128103518901295,5.161015579617101,8.67534151864304,-3.456432277862748
13.179713674697465,5.123705146434037,8.64077719586441,-3.7902047421359417
13.230950726161806,5.109550439616759,8.60287514844305,-4.120431504991257
13.282046230557974,5.119759082084561,8.561670833393139,-4.4514988260614015
13.333243821378819,5.155879807254611,8.517155845132525,-4.788365147991597
13.384802619451365,5.219930046454802,8.469272193652609,-5.136626262970643
13.437001919915913,5.314512664416224,8.417905931022903,-5.502609335528974
13.490147046560075,5.442899701493743,8.362879837667613,-5.893457940048322
13.544576043575013,5.609023018834015,8.30394525826713,-6.317119488823113
13.600666273763354,5.817226628458148,8.240774063378899,-6.782030866767344
13.658838540047935,6.071451208750176,8.172953754711225,-7.2960447173766925
13.719553052135437,6.373146769651725,8.099993307537458,-7.863619489047351
13.783284519831954,6.71655827629167,8.021357112646985,-8.479387493493935
13.85045010259487,7.079382137310939,7.936563237712046,-9.115302082959674
13.92124392396798,7.408243419078829,7.845410216882449,-9.700563134033974
13.995326358158769,7.608494498314762,7.74840458554211,-10.107506293973456
14.071411303141916,7.5699173822268095,7.647329522602375,-10.187396933554203
14.147110476964185,7.2501927562901205,7.545455553266833,-9.886283554444834
14.219612404527087,6.73139712724096,7.4465927177223845,-9.322358811435102
14.286926375799498,6.147677485525476,7.3533691296080335,-8.684075426108933
14.348403150654752,5.588543807338165,7.266528375346944,-8.096222680653797
14.404288588728134,5.086023146681972,7.185566148540406,-7.603453795966081
14.455148820194953,4.641634403010986,7.109531610580746,-7.208457317630086
14.501565164225063,4.2465249785755255,7.037447037404445,-6.900010714783815
14.544030414010818,3.8900840715709455,6.968446930256607,-6.66484862110362
14.582931254726528,3.5627014176545364,6.90179844404557,-6.491399535118869
14.618558268903074,3.256329381192848,6.836884448694382,-6.370500534376225
14.651121562715003,2.964360001788526,6.773179443350619,-6.2951795811122935
14.68076516273289,2.68134999230576,6.710227647539496,-6.260231740614637
14.707578662655948,2.402761604052519,6.64762533013335,-6.2618105156912565
14.731606278696473,2.124762704027278,6.5850072249764375,-6.297083850863186
14.752853905736746,1.8440907323385292,6.522036386467805,-6.363950717753204
14.77129481306013,1.5579757381510202,6.458396879290273,-6.460800271331814
14.786874570441642,1.264117432767149,6.393788876576955,-6.586294252477247
14.799515744769312,0.9607131214673676,6.327925934052183,-6.739155698336161
14.809122875983986,0.6465348522931491,6.260534377068821,-6.9179506635300605
14.815588224506918,0.32105386220183774,6.19135487043352,-7.12085448160076
14.818798763128937,-0.015392598115268219,6.120146325617513,-7.345400961497203
14.818644837147785,-0.3614036918173169,6.046692316002541,-7.588222946233218
14.815030800229612,-0.714309419188366,5.970810086540209,-7.84480665459911
14.807887706037729,-1.0699949700655926,5.892362019994218,-8.109299723884565
