th1 (rad),w1 (rad/s),th2 (rad),w2 (rad/s)
5.530839105242198,1.2781651283719477,5.036349821551985,-2.0111589880204646
5.543620756525918,1.299502764783158,5.016238231671781,-1.929285098013116
5.55661578417375,1.3196223501251596,4.99694538069165,-1.84466136457856
5.569812007675002,1.3388099897280479,4.978498767045864,-1.7576172635786282
5.583200107572282,1.357308641569214,4.960922594410078,-1.668432661603725
5.596773193987975,1.3753191737772914,4.944238267794041,-1.5773398505861547
5.6105263857257475,1.393002566397014,4.928464869288179,-1.4845270604848335
5.624456411389717,1.4104827976812706,4.913619598683331,-1.390142854987114
5.63856123936653,1.4278500559012122,4.89971817013346,-1.2943009473527396
5.652839739925542,1.4451640139627975,4.886775160659933,-1.1970850992467512
5.66729138006517,1.4624569874474949,4.874804309667465,-1.0985538734437186
5.681915949939645,1.4797368638412796,4.863818770933028,-0.9987450975145103
5.696713318578058,1.49698974180299,4.853831319957883,-0.8976799603350102
5.711683215996088,1.5141822562448755,4.844854520354533,-0.7953667091137104
5.7268250385585375,1.53126359034629,4.836900853263395,-0.6918039451441993
5.7421376744620005,1.5481671920364881,4.829982813811953,-0.586983535206695
5.7576193463823655,1.564812222317953,4.824112978459886,-0.4808931656250466
5.773267468605545,1.5811047679914534,4.819304046803635,-0.37351857001768674
5.78907851628546,1.5969388533871947,4.815568861103459,-0.26484546176788104
5.8050479048193315,1.612197285711579,4.81292040648578,-0.15486119967027157
5.821169877676447,1.626752367371581,4.8113717944890775,-0.04355621115638922
5.837437401350163,1.6404665066704986,4.8109362323775136,0.06907480729407649
5.853842066416869,1.653192755921106,4.811626980450455,0.18303189798238023
5.87037399397608,1.6647753034976023,4.8134572994302784,0.29830904842236605
5.887021747011056,1.6750499437511372,4.8164403899145025,0.4148935913592163
5.903772246448567,1.6838445460836116,4.820589325828094,0.532765797529527
5.9206106919094035,1.6909795418065747,4.825916983803389,0.6518986639444843
5.937520487327469,1.6962684446765264,4.832435970442834,0.7722579035047525
5.954483171774235,1.699518418152686,4.840158549477882,0.8938021441418128
5.971478355955761,1.700530899423976,4.8490965709193,1.016483347397413
5.988483664950001,1.699102287060139,4.859261404393274,1.1402474573799348
6.005474687820603,1.6950246957319344,4.870663878967073,1.2650352913599054
6.022424934777922,1.6880867778106396,4.8833142318806715,1.390783682879461
6.0393058025560284,1.678074607816111,4.897222068709466,1.5174268871523453
6.056086548634189,1.6647726216852035,4.912396337580989,1.6448982567293016
6.072734274851041,1.647964598766243,4.928845320148282,1.7731321929112058
6.089213920838704,1.6274346704439913,4.946576642077394,1.902066375222633
6.105488267543143,1.6029683355519195,4.96559730582962,2.03164426741706
6.121517950898663,1.5743534594907427,4.9859137485037905,2.1618178939526067
6.13726148549357,1.5413812315843962,5.007531927443317,2.292550875584967
6.152675297809414,1.503847054115429,5.030457436199167,2.423821706512755
6.167713768350568,1.461551337283034,5.054695653264294,2.5556272480703357
6.182329281723399,1.414300177806927,5.080251925744998,2.6879864047454687
6.196472283501468,1.3619059061234668,5.107131789792453,2.8209439363847753
6.210091342562702,1.3041874995480167,5.1353412291563005,2.954574344359259
6.223133217558182,1.2409708784486093,5.164886972599893,3.0889857468762463
6.235542926342668,1.1720891322775495,5.195776830068656,3.2243236259818198
6.247263817665443,1.0973827663733347,5.228020066328474,3.3607742807103134
6.258237645329176,1.0167001247356546,5.261627809135577,3.4985677492465657
6.268404646576533,0.9298982371063816,5.2966134866280425,3.637979855948352
6.277703628947597,0.8368444730769147,5.332993285187526,3.7793328791764234
6.286072073678366,0.7374195793255219,5.37078661397929,3.9229940978859066
6.293446269471621,0.6315229533745849,5.410016554958149,4.06937112310047
6.299761499005367,0.5190814023925394,5.450710266189154,4.218902405471378
6.304952313029292,0.40006319247080524,5.492899290243868,4.372040567409105
6.308952944954,0.27449996397958176,5.536619695917959,4.529225159818437
6.311697944593796,0.14252011992670752,5.581911947516143,4.690840011809185
6.313123145793063,0.004398599548859572,5.6288203476342344,4.857148490739624
6.313167131788552,-0.13937056734306594,5.67739183254163,5.028197823191624
6.311773426115121,-0.2879712280354493,5.727673810773546,5.203681598305844
6.308893713834766,-0.44012369368045345,5.7797106267566045,5.3827488867279625
6.304492476897961,-0.5938998760259284,5.833538115623885,5.56375167488987
6.298553478137702,-0.7464993343445214,5.889175632372783,5.743934388868773
6.2910884847942565,-0.8940119829750249,5.946614976261471,5.9190975877110095
6.282148364964506,-1.031232049181696,6.005805952138581,6.083320216884407
6.271836044472689,-1.1516432720709155,6.066639154307425,6.228900427925032
6.26031961175198,-1.2477461336960798,6.1289281585866755,6.346745625528543
6.247842150415019,-1.3118874302055006,6.192395614841961,6.427431092456422
6.234723276112963,-1.3376007342079237,6.256669925766525,6.462943825806998
6.221347268770884,-1.3211525526094918,6.321299364024595,6.448705175522806
6.20813574324479,-1.2626769252186205,6.385786415779823,6.385045425336934
6.195508973992603,-1.166292842577612,6.449636870033193,6.277323495456383
6.183846045566827,-1.039080851723054,6.512410104987757,6.134540490753208
6.1734552370495965,-0.8894174046672773,6.573755509895289,5.967131231596596
6.164561063002924,-0.7254068722568091,6.633426822211255,5.784927119027498
6.157306994280356,-0.5538925109596142,6.691276093401529,5.595918297124306
6.1517680691707595,-0.3801048962096092,6.7472352763727725,5.405869499507375
6.147967020208664,-0.20774846446913608,6.801293971367846,5.218505352782672
6.145889535563972,-0.03928882402876324,6.853479024895672,5.035941632791145
6.145496647323685,0.12372309295131706,6.903838441223583,4.859145630592687
6.146733878253198,0.28036956680724034,6.952429897529511,4.688325033279989
6.149537573921271,0.43015085816242987,6.999313147862311,4.5232195236220045
6.153839082502896,0.5728325808178033,7.044545343098531,4.363304193259752
6.159567408311074,0.7083428276902397,7.088178385031129,4.207924638415806
6.166650836587976,0.8367054974683072,7.130257631415287,4.056383331687969
6.17501789156266,0.9579986234593261,7.170821464732167,3.9079929151831787
6.184597877797253,1.0723293857290366,7.209901393883999,3.762107734191215
6.195321171654543,1.179819966515358,7.247522471225911,3.618141360237677
6.207119371319696,1.2806002804186425,7.283703884828287,3.4755752301673244
6.219925374123883,1.3748049349861597,7.31845963712996,3.333961717146777
6.2336734234737445,1.4625726816925746,7.351799254301428,3.1929237442769436
6.24829915029067,1.5440472233737363,7.383728491744197,3.0521522687056213
6.263739622524407,1.6193786466693871,7.4142500144312535,2.9114024649380954
6.279933408991101,1.6887250147627686,7.443364039080635,2.770489122829048
6.296820659138729,1.7522538329482704,7.471068930308925,2.6292815824965583
6.314343197468212,1.8101432180466104,7.49736174613389,2.4876984114870537
6.332444629648678,1.862582682488961,7.522238730248761,2.3457019604544995
6.351070456473567,1.9097734979730112,7.545695749853306,2.2032928939565135
6.370168191453297,1.9519286402838123,7.5677286787928715,2.0605047708543833
6.3896874778561354,1.9892723415148468,7.588333726501415,1.9173987366708627
6.409580201271284,2.0220392919681403,7.607507713868124,1.7740583833569679
6.429800594190966,2.0504735437141113,7.6252482977016935,1.6305848273397965
6.450305329628107,2.074827172671808,7.641554145975092,1.4870920527778748
6.471053601354825,2.0953587571949894,7.65642506650287,1.343702562753921
6.492007188926775,2.112331729309195,7.669862092130409,1.2005433763330995
6.513130506219866,2.126012650557858,7.6818675258937406,1.0577424039987446
6.534390632725445,2.1366694583877117,7.692444949933728,0.9154252281553161
6.555757327309322,2.144569721559669,7.701599202215282,0.7737123094965769
6.577203024524918,2.1499789345669043,7.709336325310248,0.6327166344785446
6.598702813870587,2.1531588717673364,7.715663491655033,0.49254181433843286
6.6202344025882605,2.1543660121158656,7.720588909798417,0.353280642485169
6.641778062709419,2.153850035164249,7.724121716223269,0.215014115055621
6.663316563061062,2.151852378461364,7.726271857373826,0.07781091935466761
6.684835086845675,2.148604835638353,7.727049966567373,-0.05827260288620836
6.706321135202058,2.144328163238119,7.72646724053851,-0.1931920056879045
6.7277644168344395,2.139230652627609,7.724535320481631,-0.32691378303743623
6.7491567233607155,2.1335066109635132,7.721266182651257,-0.4594138770273315
6.77049178947035,2.1273346820258303,7.716672043880983,-0.5906756059556781
6.791765136290609,2.1208759237236903,7.710765287821427,-0.7206869514785669
6.812973895527846,2.114271544329865,7.703558418306641,-0.8494371242249662
6.834116610971145,2.107640184475194,7.695064047064391,-0.97691230570094
6.855193012815897,2.101074617682892,7.685294924007382,-1.103090442467531
6.876203758992726,2.094637730746573,7.674264019582706,-1.227934949396937
6.8971501363001915,2.088357640012319,7.661984670088737,-1.3513871671779547
6.918033712700315,2.0822218062039406,7.648470798416957,-1.4733574229156992
6.9388559307623545,2.07617003738589,7.6337372241878,-1.5937145734305393
6.959617631136213,2.0700863293965885,7.617800078453494,-1.71227398572276
6.980318494430179,2.063789602531008,7.600677338596267,-1.8287840512089644
7.000956390455489,2.057023573700141,7.5823894980841775,-1.9429115689015692
7.0215266261924905,2.0494462783711476,7.562960382395162,-2.054226700024725
7.042021088976202,2.0406201466108675,7.542418115394915,-2.1621887204111543
7.062427290442311,2.030004048050538,7.520796228190803,-2.2661344848370084
7.0827273309228165,2.016949322969155,7.498134883342433,-2.3652723296879126
7.102896824152508,2.000702421170944,7.474482160045554,-2.4586849532424
7.122903848364218,1.9804171971960305,7.44989531051313,-2.545345378961748
7.142708020336178,1.9551798765198631,7.424441856723512,-2.6241500371797395
7.162259819101377,1.924048858321346,7.398200356351715,-2.6939718084978908
7.1815003076845905,1.8861095442768991,7.371260638266737,-2.7537331338473887
7.200361403127359,1.840541220427381,7.343723306928263,-2.8024949403582102
7.218766815331633,1.7866891153546105,7.315698357524681,-2.839551787377858
7.236633706485179,1.7241311964334005,7.287302839650903,-2.8645188130763106
7.253875018449513,1.652727570497715,7.2586576515201395,-2.8773938662460323
7.27040229415449,1.572641853817861,7.22988371285768,-2.878580455332035
7.286128712692668,1.4843288528155392,7.20109790830436,-2.8688641843913283
7.300972001220823,1.3884900909094242,7.172409266460447,-2.849345372352835
7.314856902129917,1.2860056873448484,7.1439158127369184,-2.821340148676031
7.327716959003365,1.1778553910698644,7.115702411250158,-2.7862680956923795
7.3394955129140635,1.0650419808656626,7.0878397302932346,-2.7455448306283783
7.35014593272272,0.9485272517166867,7.060384281986951,-2.700493539592444
7.359631205239887,0.8291860857043322,7.033379346591027,-2.652282765915174
7.36792306609693,0.7077794869442061,7.006856518931875,-2.601891284245654
7.375000860966372,0.5849441489355373,6.980837606089419,-2.5500963202805096
7.380850302455728,0.4611944700109655,6.955336642886614,-2.4974791593778187
7.3854622471558375,0.3369326632434036,6.930361851292836,-2.4444419096929693
7.388831573788272,0.21246319176943734,6.905917432195906,-2.391230086872208
7.390956205705966,0.08800869968036591,6.882005131327184,-2.3379570615463745
7.39183629270277,-0.03627443893216008,6.858625560711721,-2.2846277808367774
7.391473548313448,-0.1602820387978799,6.835779282903353,-2.2311603014762365
7.389870727925469,-0.2839499986304909,6.81346767988859,-2.177404486552374
7.387031227939165,-0.4072443022190972,6.7916936350230666,-2.123157746323435
7.3829587849169735,-0.5301530321144848,6.770462057559832,-2.068178009326634
7.377657254595829,-0.6526801891340278,6.749780277466566,-2.012194260456376
7.371130452704489,-0.7748410675002875,6.729658334862002,-1.9549150343951514
7.363382042029486,-0.8966589326910133,6.710109184518051,-1.8960352475333533
7.354415452702576,-1.0181627670118698,6.6911488320427175,-1.8352417176225604
7.3442338250324575,-1.1393858738094886,6.672796414866492,-1.7722176757512553
7.332839966294363,-1.2603651575493944,6.65507423810898,-1.7066465304337437
7.320236314718868,-1.3811409194340394,6.6380077728046425,-1.63821510463079
7.306424905524528,-1.5017570245436898,6.6216256217583345,-1.566616536610912
7.291407335279091,-1.6222613053947676,6.605959456392226,-1.49155301654491
7.275184722225143,-1.7427060674793524,6.591043926226777,-1.4127385239087575
7.257757661550349,-1.8631485539141865,6.576916540987689,-1.3299017375101851
7.239126176011207,-1.9836512076259918,6.563617523612587,-1.2427893120440552
7.219289663934947,-2.1042815388734497,6.551189630492146,-1.151169754992863
7.198246848546212,-2.2251113610756312,6.539677932942218,-1.0548381987060091
7.175995734935456,-2.346215095955283,6.529129550955158,-0.9536224486952811
7.152533583975903,-2.4676667664854417,6.519593326468205,-0.8473908051710373
7.127856916311049,-2.589535189601818,6.511119418416494,-0.7360623049518308
7.1019615644150305,-2.7118767477563965,6.503758795366976,-0.6196202174927251
7.0748427969374665,-2.8347249601279345,6.497562593192049,-0.4981298489840621
7.046495547336187,-2.9580758992047844,6.492581294702208,-0.37176194793888706
7.016914788344139,-3.081868329940014,6.488863675222819,-0.24082322805184278
6.986096105044739,-3.2059573370999144,6.486455442942301,-0.10579565377792322
6.95403653167374,-3.330080247198857,6.485397486404522,0.03261396950289033
6.920735729201751,-3.4538140090934806,6.485723626099551,0.17341313498969974
6.886197589110816,-3.5765241303633064,6.487457757449448,0.3152519586114606
6.850432347807184,-3.6973071355352425,6.490610277035563,0.45634392209996044
6.813459276451831,-3.8149317308902013,6.495173716256562,0.5943869895512475
6.7753099591429296,-3.9277887181886992,6.501117586152074,0.7265001045137045
6.736032071961042,-4.033865958967244,6.508382587197211,0.8491990800612096
6.695693412371369,-4.130770923278292,6.516874577997823,0.9584447503115409
6.654385703138587,-4.215826222760335,6.526459025500939,1.049800112008473
6.612227440910983,-4.2862577501835135,6.536957026621024,1.1187244378354195
6.569364863409148,-4.339475377362799,6.548144270999378,1.1610034583002937
6.52597010963552,-4.373412214668703,6.5597543055823815,1.1732651874192248
6.482235987488833,-4.386850445477392,6.571486957456574,1.1534756143940406
6.438367483034059,-4.379640939723894,6.583021713600514,1.1012779444255607
6.39457107363682,-4.352741003531987,6.59403449304477,1.0180634601096488
6.351043663601501,-4.308051090147927,6.604215127645866,0.90674366912159
6.3079631527000215,-4.2481006906514365,6.613282564337082,0.7712944827812822
6.2654821457935075,-4.175678216613253,6.620995509164895,0.6162092782190286
6.223725363627375,-4.0934992067693265,6.6271576019470855,0.44599896959339475
6.182790371559682,-4.003971452284022,6.631617591643019,0.2648269688176658
6.142750657036842,-3.9090710726784548,6.634265861331196,0.07630282113454337
6.103659946310057,-3.81031157055545,6.635028889542541,-0.11658862986281374
6.0655568306045025,-3.708774876595056,6.6338630032439125,-0.3114656443953884
6.028469081838552,-3.6051746818138444,6.630748346799959,-0.5064778749175777
5.992417335020414,-3.499930203683737,6.625683568050783,-0.7002162588930285
5.957418032983576,-3.3932371966856514,6.618681405461852,-0.8916240821589964
5.92348566101672,-3.2851298047562807,6.609765164640262,-1.0799190583241014
5.890634362969157,-3.175531217417827,6.598965974057021,-1.2645298880685094
5.858879050794979,-3.064293468684178,6.586320675176336,-1.4450471860773884
5.828236116108137,-2.9512277720007165,6.571870203315562,-1.6211869925811309
5.798723838388129,-2.836127078827907,6.555658333389751,-1.792764536658292
5.77036256759985,-2.718782466447478,6.537730688023168,-1.9596759461599935
5.743174742935375,-2.598994729669145,6.518133928561568,-2.1218858760688466
5.717184795638683,-2.47658229163322,6.496915069800879,-2.279419375436425
5.6924189727223515,-2.351386316526649,6.474120876046515,-2.4323566466943327
5.668905109557085,-2.2232737223240764,6.449797309579572,-2.580829634667989
5.646672372333844,-2.092138658085369,6.423989013232892,-2.7250196057459917
5.62575098575299,-1.9579029243337482,6.396738817175432,-2.865155040768361
5.606171956509653,-1.8205157713380844,6.368087266767748,-3.001509271738395
5.587966798796272,-1.679953504334922,6.338072174050365,-3.134397345162306
5.571167263752923,-1.5362193544594487,6.306728200598742,-3.264171594021081
5.555805070208328,-1.3893441393478685,6.274086484658531,-3.391215343525417
5.54191162881485,-1.2393883400309713,6.240174331223277,-3.51593405773929
5.52951774541454,-1.086446363947684,6.205014990645884,-3.638743048373454
5.518653281775063,-0.9306539496179637,6.168627560162149,-3.760050608593353
5.5093467422788835,-0.7721998930557055,6.131027054076216,-3.8802351061235303
5.5016247433483265,-0.6113435215981138,6.09222470301498,-3.9996141928167805
5.495511308132345,-0.44843956047750955,6.052228561086812,-4.118403923432756
5.49102691252757,-0.28397212982539044,6.011044521852485,-4.236665360357047
5.488187191229316,-0.11859938133559828,5.968677868248914,-4.354236436669252
5.48700119741596,0.04679059966946708,5.925135503882221,-4.470647917231828
5.487469103412655,0.21101405591148376,5.880429024709903,-4.585024954580772
5.48957924397177,0.37252131929711235,5.834578775164095,-4.695980942208513
5.493304457164741,0.5293338158027847,5.78761896574201,-4.80151906426101
5.498597795322769,0.6790090311343242,5.7396037750994,-4.898969292135717
5.505387885634112,0.8186640723746121,5.690614082178042,-4.9850024632128465
5.513574526357858,0.9450945781190991,5.640764057545914,-5.0557720662739625
5.523025472139049,1.0550195455338527,5.590206336883174,-5.107226790202115
5.533575667594388,1.1454546518708453,5.539134068981153,-5.135599575901478
5.545030214113096,1.214164814045853,5.487778073222138,-5.1380087461439965
5.557171862253554,1.2600877415465128,5.436397985760698,-5.113026307967906
5.56977273966902,1.2835908855658362,5.385267722681019,-5.061027924037683
5.582608648524678,1.2864591880231966,5.334657443440642,-4.9841858319102155
5.59547324040491,1.271606951410479,5.284815585121541,-4.886095485542497
5.608189309919015,1.2426116779393008,5.235954630266115,-4.771167535702764
5.620615426698408,1.2032183624897177,5.188242954909088,-4.643984081466859
5.632647610323305,1.156939082758594,5.141803114094419,-4.5087849245226295
5.644217001150891,1.1068058715395535,5.096715264849192,-4.3691587862959
5.655285059866287,1.0552710878538765,5.053023676986233,-4.227929031916508
5.665837770744826,1.004214733164467,5.010744386667068,-4.08717789844571
5.675879918076471,0.9550120414611348,4.9698726076826105,-3.948346330161085
5.6854300384910825,0.9086244848044551,4.9303891443809995,-3.8123606407416144
5.694516283339127,0.8656911863682281,4.892265537973583,-3.679756237644147
5.70317319520281,0.8266092966963287,4.855467975597142,-3.550784188976525
5.711439288169773,0.7915994473340042,4.819960133707377,-3.4254963709654325
5.719355282643113,0.7607564971140726,4.785705169997723,-3.3038101882798916
5.726962847614254,0.7340875800880006,4.752667068114924,-3.1855560354074277
5.734303723415134,0.7115399554932009,4.72081150776085,-3.070511145320869
5.741419122970066,0.6930210240383062,4.690106396307641,-2.958423160505846
5.748349333210449,0.6784124990696349,4.6605221647025825,-2.8490261728231485
5.755133458201145,0.6675803018777896,4.632031902974351,-2.7420513641760036
5.761809261219923,0.6603813724486362,4.60461138933259,-2.6372338432039344
5.76841307494441,0.6566682776884496,4.578239050900551,-2.534316842996618
5.774979757721294,0.6562922592686679,4.552895882470585,-2.4330541164965265
5.78154268031398,0.6591051831302659,4.52856534130562,-2.333211123237284
