th1 (rad),w1 (rad/s),th2 (rad),w2 (rad/s),a1 (rad/s^2),a2 (rad/s^2)
5.027068959653931,0.9446267334162601,1.2418859920635472,-0.689566985807027,8.143098797965886,-3.2960821348053932
5.036515226988094,1.026057721395919,1.234990322205477,-0.7225278071550809,8.052982271129078,-3.5359228768277084
5.046775804202053,1.1065875441072097,1.2277650441339263,-0.757887035923358,7.958568101610884,-3.7952999234318012
5.057841679643125,1.1861732251233186,1.2201861737746926,-0.7958400351576761,7.86112324022051,-4.073564490469207
5.069703411894358,1.2647844575255236,1.212227773423116,-0.8365756800623682,7.762079290073419,-4.3699674264359105
5.082351256469614,1.3424052504262578,1.2038620166224923,-0.8802753543267272,7.663033671302025,-4.68367758964756
5.095775308973876,1.4190355871392781,1.195059263079225,-0.9271121302232028,7.565747849519859,-5.013808033614431
5.109965664845269,1.4946930656344768,1.1857881417769929,-0.9772502105593471,7.472142898142447,-5.359450113109553
5.124912595501614,1.5694144946159012,1.1760156396713994,-1.0308447116904427,7.3842929111662485,-5.7197153563338965
5.140606740447773,1.6432574237275637,1.165707192554495,-1.0880418652537815,7.304417039176238,-6.093784699719366
5.157039314685049,1.716301594119326,1.1548267739019573,-1.1489797122509753,7.234871175415709,-6.480964478357399
5.174202330626242,1.788650305873483,1.1433369767794475,-1.2137893570345493,7.178140559352932,-6.88074843490535
5.192088833684977,1.8604317114670124,1.131199083209102,-1.2825968413836029,7.136834783050382,-7.292884980027228
5.2106931507996475,1.9318000592975162,1.1183731147952658,-1.3555256911838751,7.113686875334778,-7.717449031555602
5.230011151392622,2.0029369280508638,1.1048178578834271,-1.4327001814994311,7.111558300225672,-8.154917996135778
5.250040520673131,2.0740525110531203,1.0904908560684328,-1.5142493614607888,7.133451845847951,-8.606251848581444
5.270781045783662,2.1453870295115998,1.075348362453825,-1.6003118799466032,7.182534511891491,-9.072977816846135
5.292234916078778,2.2172123746305146,1.059345243654359,-1.6910416581150645,7.262172648447148,-9.557280895451802
5.314407039825083,2.289834101114986,1.0424348270732082,-1.7866144670695825,7.375981783659387,-10.06210228472252
5.3373053808362325,2.36359391895158,1.0245686824025124,-1.8872354899168078,7.5278938328620155,-10.591248882268665
5.3609413200257485,2.4388728572802,1.0056963275033444,-1.9931479787394943,7.722244738451284,-11.149518129657462
5.385330048598551,2.516095304664713,0.9857648477159494,-2.104643160036069,7.963886071724942,-11.742843828059646
5.410491001645198,2.5957341653819626,0.9647184161155887,-2.2220715983166657,8.258324740658496,-12.37846995164974
5.436448343299018,2.6783174127885476,0.9424977001324221,-2.345856297833163,8.611895655756978,-13.0651609327172
5.4632315174269035,2.7644363693461176,0.9190391371540905,-2.476507907160335,9.03197289164804,-13.813458194654896
5.490875881120365,2.854756098262598,0.8942740580824872,-2.6146424891068842,9.52722526313149,-14.63599348475052
5.519423442102991,2.950028350893913,0.8681276331914183,-2.7610024239543893,10.107921707851927,-15.547868995830632
5.548923725611931,3.051107567972432,0.8405176089518744,-2.916481113912696,10.786289201871183,-16.567110696093643
5.579434801291655,3.158970459991144,0.8113527978127475,-3.082152220873632,11.576918667008801,-17.71519134850471
5.611024505891566,3.274739646661232,0.7805312756040111,-3.259304134358679,12.49719758465118,-19.01759669416181
5.6437719023581785,3.399711622507744,0.7479382342604244,-3.4494801013002974,13.567712190810001,-20.504358910354348
5.677769018583256,3.535388744415844,0.7134434332474214,-3.654523690403841,14.812488233700549,-22.21037944645065
5.713122906027415,3.683513626752849,0.676898196343383,-3.8766274848683473,16.2587900198218,-24.175156804536986
5.749958042294944,3.846101526951067,0.6381319214946995,-4.118379052913717,17.935899823933386,-26.441121944591632
5.788419057564455,4.025460525190401,0.5969481309655624,-4.3827902723596335,19.871712789543306,-29.04896785531696
5.8286736628163585,4.224177653085834,0.553120228241966,-4.673279950912803,22.084843567637478,-32.02677255581737
5.8709154393472165,4.4450260887622095,0.506387428732838,-4.9935476764709765,24.56779827599941,-35.3667215840408
5.9153657002348385,4.6907040715222035,0.45645195196812827,-5.347214892311385,27.252990656692102,-38.97794968211808
5.962272740950061,4.963233978089124,0.4029798030450144,-5.736994389132565,29.94770354706931,-42.59604264536085
6.011905080730952,5.262711013559818,0.34560985915368875,-6.162954815586174,32.219223375700004,-45.62281988305256
6.064532190866551,5.584903247316817,0.283980310997827,-6.619183014416699,33.221882271984136,-46.884515051132865
6.120381223339719,5.917122070036659,0.21778848085366,-7.088028164928028,31.53014400871734,-44.3975449873548
6.179552444040086,6.232423510123833,0.14690819920437972,-7.532003614801576,25.25950679334938,-35.53569158907183
6.241876679141324,6.485018578057327,0.07158816305636397,-7.887360530692295,13.056351971699845,-18.412046797043804
6.306726864921897,6.615582097774325,-0.007285442250558979,-8.071480998662732,-3.8853853484933767,5.303894587211017
6.37288268589964,6.5767282442893915,-0.0880002522371863,-8.018442052790622,-20.84255281634561,29.021273626114723
6.438649968342534,6.368302716125935,-0.16818467276509252,-7.728229316529474,-32.52318580570543,45.3728057964828
6.502332995503793,6.043070858068881,-0.24546696593038728,-7.274501258564646,-37.251179090765575,52.04707380916409
6.562763704084482,5.670559067161225,-0.3182119785160337,-6.754030520473005,-36.89052981102993,51.65666354286351
6.619469294756094,5.301653769050926,-0.38575228372076376,-6.23746388504437,-34.02640350455723,47.79948356221325
6.672485832446603,4.961389734005354,-0.44812692257120745,-5.759469049422238,-30.39189779444999,42.87709266169595
6.722099729786657,4.657470756060854,-0.5057216130654298,-5.330698122805279,-26.825042766108556,38.04469189632091
6.768674437347266,4.389220328399769,-0.5590285942934826,-4.95025120384207,-23.639295250042068,33.73035042295935
6.812566640631264,4.1528273758993475,-0.6085311063319033,-4.6129476996124765,-20.905266126286037,30.027057333800258
6.854094914390258,3.943774714636487,-0.6546605833280281,-4.312677126274474,-18.597817389673324,26.89649453639126
6.893532661536622,3.7577965407397538,-0.6977873545907729,-4.043712180910561,-16.661823960292804,24.25972158584688
6.93111062694402,3.591178301136826,-0.7382244763998785,-3.8011149650520926,-15.038736317333715,22.03359552165645
6.967022409955388,3.440790937963489,-0.7762356260503994,-3.580779009835528,-13.676003733034946,20.143572246912644
7.0014303193350225,3.3040309006331396,-0.8120434161487547,-3.3793432873664018,-12.529465848664676,18.526875486072992
7.034470628341354,3.178736242146493,-0.8458368490224187,-3.194074532505672,-11.563077548301383,17.132047948367134
7.066257990762819,3.063105466663479,-0.8777775943474755,-3.022754053022001,-10.747779178777527,15.917368825032362
7.096889045429453,2.955627674875704,-0.9080051348776955,-2.8635803647716775,-10.060227927897508,14.849111529580519
7.12644532217821,2.855025395596729,-0.9366409385254123,-2.7150892494758723,-9.481646406052414,13.899984967230278
7.154995576134177,2.760208931536205,-0.9637918310201711,-2.5760893998035694,-8.996857673491972,13.047846789100367
7.182597665449539,2.6702403548012854,-0.9895527250182068,-2.4456109319125656,-8.593504742726218,12.274680665175818
7.209300068997552,2.584305307374023,-1.0140088343373324,-2.3228641252608075,-8.26142938074787,11.565798592991978
7.2351431220712925,2.5016910135665444,-1.0372374755899405,-2.207206139330888,-7.992180967037716,10.909224102110377
7.260160032206958,2.4217692038961673,-1.0593095369832495,-2.098113898309784,-7.778629025863513,10.2952163190595
7.284377724245919,2.3439829136375323,-1.0802906759663473,-1.995161735119189,-7.614657814502159,9.715901465263638
7.307817553382295,2.2678363354925106,-1.1002422933175393,-1.8980027204665526,-7.494926054328739,9.1649849061834
7.3304959167372195,2.192887074949223,-1.119222320522205,-1.8063528714047186,-7.41467887601953,8.637522538765241
7.3524247874867115,2.118740286189028,-1.137285849236252,-1.7199776460170662,-7.369602177143996,8.129734977050461
7.373612190348601,2.045044264417588,-1.1544856256964227,-1.6386802962465616,-7.35571192291167,7.638851796636551
7.394062632992777,1.9714871451884715,-1.1708724286588883,-1.5622917782801962,-7.369272584731536,7.162976206822476
7.413777504444662,1.897794419341156,-1.1864953464416903,-1.4906620162119715,-7.406740042771366,6.700963095359267
7.432755448638074,1.8237270189134422,-1.20140196660381,-1.423652385258379,-7.464725006064909,6.252305553367857
7.450992718827208,1.749079768852793,-1.215638490456394,-1.3611293297247002,-7.539973441931867,5.81702681190794
7.468483516515736,1.6736800344334744,-1.229249783753641,-1.3029590616056208,-7.6293607563865455,5.395576045252413
7.485220316860071,1.597386426869609,-1.2422793743696972,-1.2490033011530968,-7.7298966149576485,4.988727732297931
7.501194181128767,1.5200874607200325,-1.254769407381228,-1.1991160238301175,-7.838737409413584,4.597485216631271
7.516395055735967,1.4417000866258967,-1.2667605676195293,-1.1531411716638047,-7.953203513875464,4.222989765236676
7.530812056602226,1.362168051487142,-1.2782919793361673,-1.110911274011438,-8.070798669465848,3.8664367998830476
7.544433737117098,1.2814600647924834,-1.2894010920762817,-1.0722469060126074,-8.189229107903275,3.529001080402406
7.557248337765023,1.1995677737134507,-1.3001235611364077,-1.0369568952085833,-8.30642037268134,3.211772486560543
7.569244015502157,1.1165035699866372,-1.3104931300884934,-1.0048391703429778,-8.420530209150584,2.9157037199768627
7.5804090512020235,1.0322982678951313,-1.3205415217919232,-0.9756821331432092,-8.529956349335176,2.6415707846808867
7.5907320338809745,0.9469987044017796,-1.3302983431233553,-0.9492664252964003,-8.633338485357163,2.3899465643612343
7.600202020924992,0.8606653195482079,-1.3397910073763193,-0.9253669596527879,-8.729554177357242,2.161187255077937
7.608808674120474,0.7733697777746354,-1.3490446769728472,-0.9037550871020086,-8.817708850911433,1.9554308865358918
7.616542371898221,0.6851926892655211,-1.3580822278438673,-0.8842007782366497,-8.897120383891128,1.7726067145484539
7.623394298790876,0.5962214854266098,-1.3669242356262339,-0.8664747110911651,-8.967299049637015,1.6124539203480053
7.629356513645142,0.5065484949302397,-1.3755889827371455,-0.8503501718876851,-9.027923766309641,1.4745478232285667
7.634421998594444,0.41626925726714326,-1.3840924844560223,-0.8356046936553995,-9.078815702908347,1.3583317028983013
7.638584691167115,0.32548110023805976,-1.3924485313925763,-0.8220213766264165,-9.119910318496654,1.2631523272884264
7.641839502169496,0.23428199705309322,-1.4006687451588404,-0.8093898533535322,-9.151228874909492,1.1882973728949477
7.644182322140027,0.1427697083039983,-1.4087626436923757,-0.7975068796245827,-9.172850379541266,1.1330330857560516
7.645610019223067,0.051041204508585625,-1.4167377124886216,-0.7861765487670221,-9.184884799467028,1.0966407378798455
7.646120431268153,-0.04080764348608466,-1.4245994779762918,-0.7752101413882236,-9.187448256222039,1.07845066312671
7.645712354833293,-0.13268212604830504,-1.432351579390174,-0.7644256347569566,-9.180640775362575,1.0778728877353132
7.64438553357281,-0.2244885338019308,-1.4399958357377436,-0.7536469058796035,-9.164527037232476,1.094423587366326
7.642140648234791,-0.3161338041742556,-1.4475323047965396,-0.7427026700059403,-9.139120463043927,1.1277467928558722
7.638979310193048,-0.40752500880469483,-1.454959331496599,-0.7314252020773815,-9.104370878348574,1.1776309237197893
7.6349040601050016,-0.49856871758818055,-1.4622735835173728,-0.7196488928401836,-9.06015592629623,1.2440198492461991
7.62991837292912,-0.5891702768511429,-1.4694700724457745,-0.7072086943477216,-9.006276355276665,1.3270182632207688
7.6240266701606085,-0.6792330404039095,-1.4765421593892518,-0.6939385117155139,-8.942455276950685,1.4268912148454553
7.617234339756569,-0.7686575931734164,-1.483481544506407,-0.6796695995670593,-8.868341476816248,1.5440576729542097
7.609547763824835,-0.8573410079415789,-1.4902782405020776,-0.6642290228375172,-8.783516854380307,1.6790780231137177
7.6009743537454195,-0.9451761764853819,-1.4969205307304527,-0.6474382426063799,-8.687508066636617,1.832635419183038
7.591522591980565,-1.032051257151748,-1.5033949131565165,-0.6291118884145496,-8.57980243897717,2.0055109450468334
7.581202079409048,-1.1178492815415197,-1.509686032040662,-0.6090567789640813,-8.459868183466,2.1985526017286814
7.570023586593632,-1.2024479633761798,-1.5157765998303028,-0.5870712529467945,-8.327178917002142,2.4126382330261853
7.557999106959871,-1.2857197525462012,-1.5216473123597707,-0.5629448706165326,-8.181242393025268,2.648632651367931
7.545141909434409,-1.3675321764764539,-1.527276761065936,-0.5364585441028533,-8.021633242728637,2.9073394349997916
7.5314665876696445,-1.4477485089037403,-1.5326413465069644,-0.5073851497528554,-7.848029359639853,3.1894481447829115
7.516989102580607,-1.526228802500139,-1.537715198004493,-0.4754906683050263,-7.660251352105786,3.4954780557726117
7.501726814555606,-1.6028313160211969,-1.5424701046875433,-0.4405358877473002,-7.458304232937116,3.8257199103672717
7.485698501395394,-1.677414358350568,-1.5468754635650164,-0.4022786886436275,-7.242420220990161,4.180177662181246
7.468924357811888,-1.7498385605604696,-1.5508982504514526,-0.36047691202181503,-7.0131012094829055,4.558512667957506
7.451425972206283,-1.8199695726552987,-1.5545030195716707,-0.31489178534224,-6.771159132184959,4.959993261474103
7.43322627647973,-1.8876811639771482,-1.557651937425093,-0.26529185272749894,-6.517752161866494,5.383453058509131
7.414349464839959,-1.9528586855958132,-1.560304855952368,-0.21145732214240764,-6.2544144444652465,5.827261634264316
7.394820877984001,-2.0154028300404656,-1.562419429173792,-0.15318470579976448,-5.983076952734937,6.289311315550767
7.374666849683597,-2.075233599567815,-1.5639512762317898,-0.0902915926442568,-5.706077082792932,6.767023670172202
7.3539145136879185,-2.132294370395744,-1.5648541921582324,-0.022621355942534782,-5.426154861032821,7.257378794974805
7.332591569983961,-2.1865559190060724,-1.5650804057176577,0.04995243200721328,-5.146434111617645,7.756969662793341
7.310726010793901,-2.2380202601222488,-1.5645808813975857,0.12752212863514667,-4.870387671036073,8.262082582177442
7.288345808192679,-2.2867241368326097,-1.5633056601112343,0.2101429544569211,-4.601786712788919,8.76880329380778
7.265478566824353,-2.3327420039604987,-1.5612042305666651,0.2978309873949989,-4.344635414598928,9.273146469462585
7.242151146784748,-2.376188358106488,-1.5582259206927151,0.39056245208962476,-4.103093478590544,9.771204543263725
7.218389263203683,-2.4172192928923932,-1.554320296171819,0.488274497522262,-3.881390285403596,10.259310085568703
7.194217070274759,-2.456033195746429,-1.5494375511965963,0.590867598377949,-3.683735589127691,10.73420454646862
7.169656738317295,-2.492870551637706,-1.543528875212817,0.6982096438426352,-3.5142325016806533,11.193205362004928
7.144728032800918,-2.5280128766545125,-1.5365467787743905,0.8101416974626845,-3.376798953407934,11.634363304908925
7.119447904034373,-2.5617808661885917,-1.5284453617997638,0.9264853305117737,-3.2751037751991037,12.056602671865425
7.093830095372486,-2.5945319039405828,-1.519180508494646,1.047051357230428,-3.2125230121382518,12.459838431961009
7.067884776333081,-2.6266571340619653,-1.5087099949223417,1.1716497415500382,-3.192121106554616,12.84506671125076
7.041618204992461,-2.6585783451275113,-1.4969934975068413,1.3001004086625458,-3.2166603041508175,13.214427757692253
7.015032421541186,-2.6907449481690193,-1.4839924934202158,1.4322446862394684,-3.28864021756779,13.57124355780226
6.988124972059495,-2.7236313503446974,-1.4696700465578212,1.567957121817491,-3.410368130663678,13.9200352816388
6.9608886585560485,-2.7577350316513343,-1.4539904753396462,1.7071574746338791,-3.5840595436368763,14.266528466232115
6.933311308239535,-2.7935756270877032,-1.4369189005933074,1.8498227592962002,-3.8119678115326603,14.617656130896265
6.905375551968658,-2.83169530520303,-1.4184206730003455,1.995999320605163,-4.096541630693808,14.981571769648921
6.877058598916627,-2.872660721509968,-1.3984606797942938,2.1458150383016523,-4.440609627673422,15.367685406192583
6.848331991701528,-2.917066817786702,-1.3770025294112773,2.2994918923635783,-4.847592381097478,15.786736726309611
6.819161323523661,-2.9655427415976767,-1.3540076104876415,2.4573592596266742,-5.321743763234005,16.250919856244607
6.789505896107684,-3.018760179230017,-1.3294340178913748,2.6198684581891203,-5.868425339788547,16.774074725984974
6.759318294315384,-3.0774444326279022,-1.3032353333094837,2.78760920544897,-6.494419391033939,17.3719600685392
6.728543849989105,-3.1423886265382417,-1.2753592412549941,2.961328806134362,-7.208287334279379,18.062622506631474
6.697119963723723,-3.2144714998810353,-1.2457459531936506,3.1419550312006765,-8.020779837477315,18.86687364476875
6.664975248724913,-3.2946792982558084,-1.2143264028816438,3.330623767648364,-8.94530056015856,19.808879874343194
6.632028455742355,-3.384132303857394,-1.1810201652051602,3.528712566391796,-9.99841294087203,20.916851951668544
6.598187132703781,-3.4841164332661143,-1.1457330395412422,3.7378810859084814,-11.200350140297987,22.22378153437471
6.563345968371119,-3.596119934669094,-1.1083542286821573,3.9601189012522284,-12.575424787799358,23.768085855117082
6.527384769024429,-3.7218741825470874,-1.068753039669635,4.1977997598034,-14.152102633958174,25.593841255017384
6.490166027198958,-3.863395208886669,-1.026775042071601,4.453738172353574,-15.962232444314681,27.74991404931425
6.451532075110092,-4.023017533329816,-0.9822376603480654,4.731237312846716,-18.038373870075148,30.286538769711125
6.411301899776793,-4.203401272030567,-0.9349252872195982,5.034102700543827,-20.407063965287904,33.24636975337312
6.369267887056488,-4.407471911683446,-0.8845842602141599,5.366566398077558,-23.07371086224039,36.6440402905954
6.325193167939653,-4.63820902030585,-0.8309185962333844,5.733006800983512,-25.99079386865319,40.42266751530549
6.278811077736594,-4.898116958992382,-0.7735885282235493,6.137233476136567,-28.994367726966747,44.36637195421531
6.22982990814667,-5.188060636262049,-0.7122161934621836,6.58089719567872,-31.685824187955184,47.93649870780216
6.17794930178405,-5.504918878141601,-0.6464072215053964,7.060262182756741,-33.23850909084972,50.00255884566163
6.122900113002634,-5.837303969050098,-0.575804599677829,7.560287771213358,-32.168968470573546,48.52233886225287
6.064527073312133,-6.158993653755834,-0.5002017219656955,8.045511159835886,-26.339112228968173,40.54149858616339
6.002937136774575,-6.422384776045516,-0.4197466103673366,8.45092614569752,-13.87545609919192,23.469705235508968
5.93871328901412,-6.561139337037435,-0.3352373489103614,8.68562319805261,4.4887060125956175,-1.6619135922446235
5.873101895643746,-6.516252276911479,-0.24838111692983528,8.669004062130163,23.669332183162457,-27.787619578091125
5.807939372874631,-6.279558955079855,-0.16169107630853363,8.391127866349253,37.214380878238885,-45.98500136630276
5.745143783323832,-5.907415146297466,-0.0777797976450411,7.931277852686225,42.75549647686875,-53.045613077851044
5.686069631860858,-5.479860181528778,0.0015329808818211471,7.400821721907715,42.409801898126354,-51.97173799862211
5.6312710300455695,-5.055762162547515,0.0755411981008983,6.8811043419214935,39.26304932380343,-47.06110269999988
5.5807134084200944,-4.663131669309481,0.14435224152011322,6.410493314921495,35.33981666083393,-41.10840930836215
5.534082091727,-4.309733502701142,0.20845717466932817,5.999409221837873,31.574498449772765,-35.38924054253415
5.490984756699988,-3.993988518203414,0.26845126688770693,5.645516816412532,28.289616011688405,-30.334098098089914
5.451044871517954,-3.7110923580865296,0.32490643505183225,5.342175835431632,25.539092984021597,-26.006332578301137
