th1 (rad),w1 (rad/s),th2 (rad),w2 (rad/s)
0.6813285494956015,-0.5318929236641325,0.7868752698113759,2.761174264489008
0.6760096202589602,-0.5774916545662512,0.814487012456266,2.73682244826216
0.6702347037132976,-0.6179595909437646,0.8418552369388875,2.7051600363157884
0.66405510780386,-0.653509618724485,0.8689068373020454,2.666439394059128
0.6575200116166151,-0.6844432755204186,0.8955712312426367,2.6210223889107684
0.6506755788614109,-0.7111343063066339,0.9217814551317444,2.5693605429736217
0.6435642357983445,-0.7340090595682469,0.9474750605614806,2.5119709208939205
0.636224145202662,-0.7535257588296826,0.9725947697704198,2.4494104166692563
0.6286888876143651,-0.770154535472235,0.9970888739371124,2.382250917690905
0.6209873422596428,-0.7843597030822039,1.0209113831140215,2.311057293870415
0.6131437452288208,-0.7965852187644814,1.0440219560527257,2.236369455262853
0.605177893041176,-0.8072437377866865,1.0663856506053542,2.1586890107065546
0.5971054556633091,-0.8167092158805986,1.0879725407124197,2.0784704649215855
0.5889383635045031,-0.8253126946354786,1.1087572453616354,1.996116473661489
0.5806852365581483,-0.8333407254264881,1.1287184100982504,1.9119764430969663
0.5723518293038834,-0.8410358251529844,1.14783817452922,1.8263476819719628
0.5639414710523536,-0.8485983795566103,1.1661016513489397,1.739478348617875
0.5554554872567875,-0.8561894831850214,1.1834964348351185,1.6515715343812822
0.5468935924249373,-0.8639343011531205,1.2000121501789314,1.5627899532139364
0.538254249413406,-0.8719256369397482,1.2156400497110706,1.4732608380208014
0.5295349930440085,-0.8802274806165424,1.2303726580912786,1.3830807623472703
0.5207327182378431,-0.8888783874084335,1.2442034657147514,1.292320203850609
0.5118439343637587,-0.8978945958338299,1.2571266677532575,1.2010277420655782
0.5028649884054205,-0.9072728388714791,1.2691369451739134,1.1092338388203444
0.4937922600167057,-0.9169928328719293,1.2802292835621167,1.0169541884101616
0.4846223316879864,-0.9270194498718527,1.2903988254462184,0.9241926498502896
0.4753521371892679,-0.9373045920684986,1.2996407519447213,0.8309437885680554
0.4659790912685829,-0.9477887946175004,1.3079501898304018,0.7371950626286975
0.4565012033224079,-0.9584025863618407,1.3153221404566888,0.642928691315539
0.4469171774587895,-0.9690676389101287,1.3217514273698443,0.548123243346689
0.43722650106968824,-0.979697733634349,1.3272326598033113,0.4527549794807455
0.42742952373334475,-0.9901995743421995,1.3317602095981187,0.3567989806378592
0.41752752798992276,-1.0004734710687844,1.3353281994044972,0.2602300885467498
0.4075227932792349,-1.0104139179353824,1.3379305002899646,0.16302368171806858
0.3974186540998811,-1.0199100855306282,1.3395607371071454,0.06515630548523789
0.3872195532445748,-1.0288462458912346,1.3402123001619979,-0.03339382891185286
0.37693109078566245,-1.0371021459496212,1.3398783618728793,-0.13264646462247637
0.36656006932616625,-1.0445533432928287,1.3385518972266546,-0.23261903027984124
0.35611453589323794,-1.0510715162372284,1.3362257069238561,-0.33332647590626113
0.34560382073086565,-1.0565247585508504,1.3328924421647934,-0.43478120983244284
0.3350385731453571,-1.060777867628471,1.328544630066469,-0.5369931346409251
0.3244307944690724,-1.0636926335224068,1.3231746987200597,-0.6399697815769354
0.31379386813384835,-1.0651281349361446,1.3167750009042902,-0.7437165439400133
0.3031425867844869,-1.0649410470867844,1.3093378354648901,-0.8482370106810072
0.29249317631361904,-1.0629859652331735,1.3008554653580802,-0.9535334017782824
0.28186331666128733,-1.059115746658749,1.2913201313402973,-1.0596071069415098
0.2712721591946998,-1.053181873015624,1.2807240602708823,-1.1664593287666294
0.2607403404645436,-1.0450348342220905,1.269059466983216,-1.2740918306015707
0.25028999212232267,-1.0345245346256937,1.2563185486772004,-1.3825077880188612
0.23994474677606573,-1.0215007219941408,1.2424934707970117,-1.4917127408406679
0.22972973955612433,-1.005813440210285,1.2275763433886049,-1.6017156399985901
0.21967160515402148,-0.9873135075078139,1.211559186988619,-1.712529979956567
0.20979847007894334,-0.965853023937469,1.1944338871890534,-1.8241750027292607
0.20013993983956865,-0.9412859148297734,1.1761921371617607,-1.9366769533369217
0.19072708069127092,-0.9134685217604657,1.1568253676283915,-2.050070358356109
0.18159239547366626,-0.882260259517657,1.1363246640448303,-2.1643992883632976
0.1727697928784897,-0.8475243675998845,1.1146806711611974,-2.2797185505666357
0.16429454920249087,-0.8091287988870287,1.091883485655531,-2.39609473845629
0.15620326121362058,-0.7669473077106269,1.067922538270968,-2.5136070390615086
0.1485337881365143,-0.720860826443636,1.042786467880353,-2.632347662917925
0.14132517987207793,-0.6707592563411674,1.0164629912511736,-2.7524217138136424
0.13461758730866627,-0.6165438478070467,0.9889387741130371,-2.873946250430191
0.1284521488305958,-0.5581304114690884,0.9601993116087352,-2.9970482044949134
0.12287084471590493,-0.4954536892005202,0.930228829563786,-3.121860703013793
0.11791630782389972,-0.42847332896900353,0.8990102225336482,-3.248517187347727
0.11363157453420969,-0.3571820545672281,0.8665250506601709,-3.377142520688918
0.1100597539885374,-0.28161680469534117,0.8327536254532818,-3.5078400208550464
0.107243585941584,-0.20187383430343703,0.7976752252447313,-3.6406730462750256
0.10522484759854962,-0.11812901170582968,0.7612684947819811,-3.775639413460201
0.10404355748149133,-0.030664771350284906,0.7235121006473791,-3.912636578935154
0.10373690976798848,0.06009468573510571,0.6843857348580276,-4.0514152806964265
0.10433785662533954,0.1535384684831715,0.6438715820510633,-4.191519408162509
0.10587324131017126,0.2488135105407685,0.6019563879694383,-4.332210619624372
0.10836137641557894,0.34475927098753206,0.5586342817731945,-4.472378238245311
0.11180896912545427,0.439836502997161,0.5139104993907414,-4.610439056514092
0.11620733415542588,0.5320593114406701,0.4678061088256005,-4.74423878899757
0.12152792726983258,0.6189476059174127,0.4203637209356248,-4.8709775547413905
0.12771740332900672,0.6975266903165331,0.3716539453882109,-4.987194938728055
0.13469267023217205,0.7644088908533928,0.3217819960009303,-5.088861576573806
0.14233675914070598,0.8159920500864305,0.27089338023519227,-5.1716246784362045
0.1504966796415703,0.8487920262299908,0.21917713345083023,-5.231231667428581
0.1589845999038702,0.8598846469152664,0.1668648167765444,-5.264100352964772
0.16758344637302286,0.8473739215378313,0.11422381324689669,-5.267925252191628
0.17605718558840117,0.810755723899292,0.06154456072498041,-5.242145817905373
0.1841647428273941,0.7510485173250279,0.00912310254592668,-5.188106142460305
0.19167522800064438,0.6706330719192565,-0.04275795887867637,-5.108831224139462
0.19838155871983695,0.5728515124351703,-0.09384627112007099,-5.008490633156864
0.20411007384418867,0.46149902819287003,-0.14393117745163964,-4.891730177746254
0.20872506412611735,0.3403539552473227,-0.19284847922910217,-4.763065660342608
0.21212860367859057,0.21284123449066758,-0.24047913583252825,-4.626461940508935
0.21425701602349725,0.08185397941686598,-0.2867437552376176,-4.485125250213587
0.2150755558176659,-0.05029331808322163,-0.3315950077397535,-4.341468984422892
0.2145726226368337,-0.18182639566380857,-0.3750096975839824,-4.197188329314132
0.2127543586801956,-0.31143100758539155,-0.4169815808771237,-4.0533850618204825
0.20964004860434168,-0.43816142257691926,-0.45751543149532853,-3.9107022418275235
0.2052584343785725,-0.5613549212773667,-0.49662245391360377,-3.769446769578814
0.19964488516579884,-0.6805598207966654,-0.5343169216093919,-3.629690895265886
0.19283928695783217,-0.7954786886641867,-0.5706138305620507,-3.4913514282143265
0.1848845000711903,-0.9059254831092028,-0.605527344844194,-3.3542490471431723
0.1758252452400983,-1.0117942460829368,-0.6390698353156258,-3.2181513557963184
0.16570730277926893,-1.113036824580005,-0.671251348873589,-3.082803338337222
0.15457693453346888,-1.2096473712745541,-0.7020793822569612,-2.947948364429071
0.14248046082072333,-1.3016517870456648,-0.731558865901252,-2.813342255143481
0.12946394295026667,-1.3891006772301309,-0.7596922884526868,-2.678762321635695
0.11557293617796537,-1.4720647457848974,-0.7864799116690437,-2.544012791507455
0.1008522887201164,-1.550631833845391,-0.8119200395841183,-2.408927652130406
0.08534597038166249,-1.624905026330013,-0.8360093161054224,-2.2733716531268966
0.06909692011836235,-1.6950014132809907,-0.8587430326366914,-2.137240002472432
0.052146905985552446,-1.7610512132163223,-0.8801154326614157,-2.00045714349538
0.03453639385338922,-1.823197054069703,-0.9001200040963695,-1.8629748975354001
0.01630442331269219,-1.8815932714181463,-0.9187497530717235,-1.7247701867368121
-0.0025115094014892744,-1.9364051297706093,-0.9359974549390916,-1.58584250405983
-0.021875560699195367,-1.987807905201431,-0.9518558799796899,-1.4462112663022957
-0.04175363975120967,-2.035985789766235,-0.9663179926427129,-1.3059131659330823
-0.06211349764887202,-2.0811305921836736,-0.9793771243020437,-1.1649996255460804
-0.08292480357070876,-2.123440216752855,-0.9910271205575045,-1.0235344525755081
-0.10415920573823731,-2.1631169044495344,-1.0012624650832596,-0.8815917902269952
-0.12579037478273264,-2.200365217295109,-1.0100783829855295,-0.739254462641511
-0.14779402695568372,-2.235389739870305,-1.0174709276119447,-0.596612817818646
-0.17014792435438678,-2.2683924605533345,-1.0234370557901311,-0.45376418075460195
-0.19283184895992012,-2.2995697799534853,-1.0279746975976771,-0.31081304168756085
-0.21582754675945498,-2.329109075406914,-1.0310828280145528,-0.16787212030537763
-0.23911863751352413,-2.357184728858709,-1.0327615492176065,-0.025064465945823705
-0.2626904848021112,-2.3839535020184424,-1.0330121938770649,0.11747322480310535
-0.28653001982229565,-2.409549119259893,-1.0318374616290338,0.25958587037345027
-0.31062551101489455,-2.4340758986931275,-1.0292416029252993,0.4010936266665107
-0.3349662700018258,-2.4576012607754625,-1.0252306666586342,0.5417836448712134
-0.35954228260958043,-2.4801469507069793,-1.019812830209922,0.6813997587538649
-0.38434375211665023,-2.5016788493485245,-1.0129988326223833,0.8196299572229959
-0.4093605406101355,-2.5220953373183868,-1.0048025330501533,0.9560916297485452
-0.43458149398331936,-2.541214345192722,-0.9952416167526679,1.0903148111720218
-0.45999363743524657,-2.558759502780022,-0.9843384686409477,1.2217240445865967
-0.4855812324630468,-2.57434622795103,-0.9721212281950817,1.3496200751863467
-0.5113246947425572,-2.5874691973946673,-0.9586250274432183,1.4731634205591178
-0.5371993867165038,-2.5974934142703483,-0.9438933932376271,1.5913629269927267
-0.5631743208592073,-2.6036519613059106,-0.9279797639676999,1.703073617543863
-0.5892108404722664,-2.6050543201073024,-0.9109490277922613,1.8070092091765049
-0.6152613836733394,-2.6007095117622434,-0.8928789357004963,1.9017751519835562
-0.6412684787909618,-2.589567780906904,-0.8738611841806607,1.9859272411798075
-0.6671641566000309,-2.570582567260977,-0.8540019117688626,2.0580580269115574
-0.6928699822726407,-2.542790758978454,-0.8334213314997471,2.1169079561487636
-0.7182978898624253,-2.505403981658754,-0.8122522519382595,2.1614908397960724
-0.7433519296790128,-2.4578981789935987,-0.7906373435402987,2.191215597890529
-0.7679309114689488,-2.400085118568921,-0.7687251875613934,2.2059812983507445
-0.7919317626546379,-2.3321499815248896,-0.746665374577886,2.206223444512091
-0.8152532624698868,-2.2546449478473267,-0.7246031401327651,2.1928977559438114
-0.8377997119483601,-2.168438450411858,-0.7026741625733269,2.167401550663009
-0.8594840964524787,-2.074630153188499,-0.6810001470666969,2.1314474631211704
-0.8802303979843636,-1.9744487914696676,-0.6596856724354851,2.0869140957071224
-0.8999748858990603,-1.869151466041042,-0.6388165314784139,2.035700059232453
-0.9186664005594707,-1.759939158640797,-0.6184595308860894,1.979602261644865
-0.9362657921458787,-1.6478965421944096,-0.5986635082696408,1.9202297017907233
-0.9527447575678227,-1.5339574476809736,-0.5794612112517336,1.8589544628671713
-0.9680843320446325,-1.418892544633363,-0.5608716666230619,1.796894791630499
-0.9822732574909662,-1.303313461672951,-0.5429027187067569,1.7349218778518198
-0.9953063921076957,-1.187687284241356,-0.5255534999282386,1.6736815821290334
-1.0071832649501091,-1.072356295246946,-0.5088166841069482,1.613623719718504
-1.0179068279025787,-0.9575592146831937,-0.4926804469097632,1.5550335160035926
-1.0274824200494106,-0.8434515509802666,-0.4771301117497273,1.4980618014798301
-1.0359169355592133,-0.7301237651443957,-0.462149493734929,1.442752078272746
-1.0432181732106571,-0.6176167134599541,-0.4477219729522015,1.3890636892851485
-1.0493943403452566,-0.5059343139082195,-0.43383133605935004,1.3368910107355516
-1.0544536834843388,-0.39505364621171823,-0.4204624259519945,1.286078970643217
-1.058404219946456,-0.2849328156338175,-0.40760163624556234,1.2364353701411432
-1.0612535481027943,-0.17551694246141064,-0.3952372825441509,1.187740531688641
-1.0630087175274083,-0.06674262222145458,-0.3833598772272645,1.1397547752260915
-1.063676143749623,0.04145883811680941,-0.3719623294750036,1.0922241669732466
-1.0632615553684548,0.14915915000337937,-0.3610400878052711,1.0448849180491777
-1.061769963868421,0.2564315276144533,-0.3505912386247793,0.9974667435760532
-1.0592056485922765,0.3633497562198892,-0.3406165711890188,0.9496954333925587
-1.0555721510300775,0.4699877087601962,-0.33111961685509317,0.9012948352913569
-1.0508722739424756,0.5764192023708027,-0.3221066685021796,0.8519884112080476
-1.0451080819187677,0.682718107622218,-0.3135867843900991,0.8015004955141547
-1.0382809008425455,0.7889586383155056,-0.30557177943495756,0.7495573616865303
-1.0303913144593906,0.8952157593530675,-0.29807620581809224,0.6958881883610974
-1.0214391568658598,1.001565654906061,-0.29111732393448125,0.6402260075775368
-1.0114235003167993,1.108086199000428,-0.2847150638587059,0.5823087166624826
-1.000342638326795,1.2148573656431232,-0.27889197669208105,0.5218802408578938
-0.9881940646703639,1.3219615052919644,-0.27367317428350213,0.4586919471009293
-0.9749744496174442,1.4294833980673807,-0.2690862548124928,0.3925044314166364
-0.9606796156367704,1.5375099704554724,-0.26516121049832647,0.3230898348428669
-0.9453045159322156,1.6461295297915122,-0.2619303121498978,0.2502348878696082
-0.9288432206343006,1.7554303275748888,-0.2594279632712017,0.17374494376160532
-0.9112889173585517,1.8654982063831658,-0.25769051383358565,0.09344933991698524
-0.89263393529472,1.9764130135281623,-0.2567560204344158,0.009208526602036415
-0.8728698051594384,2.088243375908459,-0.2566639351683955,-0.07907647396748026
-0.8519873714003537,2.2010393248035625,-0.2574546999080703,-0.17145156883215135
-0.8299769781523181,2.3148221406222262,-0.25916921559639183,-0.26789318382273
-0.8068287567460958,2.4295706675972917,-0.26184814743461915,-0.36828690858213914
-0.7825330500701229,2.545203252754158,-0.26553101652044053,-0.4724000431362554
-0.7570810175425813,2.6615544410754475,-0.2702550169518031,-0.579846882290431
-0.7304654731318267,2.778345694637615,-0.2760534857747074,-0.6900457987862462
-0.7026820161854506,2.8951498333824293,-0.2829539437625699,-0.8021678405143298
-0.6737305178516263,3.0113498159352274,-0.29097562216771317,-0.915077922435219
-0.643617019692274,3.1260941386461885,-0.30012640139206537,-1.0272721224234014
-0.6123560783058122,3.238253769134632,-0.31039912261629937,-1.1368184176323892
-0.5799735406144658,3.346389220633314,-0.3217673067926233,-1.2413135174333494
-0.5465096484081327,3.4487407252355124,-0.3341804419669568,-1.33787468499655
-0.5120222411557775,3.5432582047837853,-0.34755918881692227,-1.4231907503703383
-0.4765896591079397,3.627688377722693,-0.36179109632062567,-1.4936573221976754
-0.4403127753307128,3.699730438293642,-0.37672766954260245,-1.5456125688965074
-0.40331547094777637,3.7572564872475303,-0.39218379523156754,-1.5756678352988132
-0.3657429060753011,3.7985691711759038,-0.40794047358455565,-1.5810930659510771
-0.32775721436354205,3.822644389968877,-0.42375140424406643,-1.5601813935874393
-0.2895307704638533,3.8292949779142718,-0.43935321817994083,-1.512499711202938
-0.25123782068471057,3.8192040142767527,-0.4544782152919702,-1.438949961890191
-0.21304578054194304,3.793813777390561,-0.4688677149108721,-1.3416193242411822
-0.17510764276803742,3.7551020587465143,-0.4822839081532839,-1.223463355029497
-0.13755662218057227,3.7053086838645464,-0.4945185417035789,-1.087911657005388
-0.1005035353419268,3.6466782914065172,-0.5053976582736328,-0.9384913489765502
-0.06403675242786162,3.5812648459189758,-0.5147825717633984,-0.7785350262594118
-0.028224103968671865,3.51081426034442,-0.5225679220259924,-0.6109985649802967
0.006884038634772334,3.4367180013761383,-0.5286779076757954,-0.43838026168262834
0.04125121864853372,3.360018588588126,-0.5330617102926216,-0.2627151442717176
0.07485140453441498,3.281446066400555,-0.5356888617353388,-0.0856150845944815
0.10766586519842053,3.201468400026782,-0.5365450125812836,0.09166957616907295
0.13968054919868836,3.120344332161798,-0.5356283168195929,0.2681834646729767
0.17088399252030634,3.0381722336659713,-0.5329464821728631,0.4432042202795716
0.20126571485696604,2.95493206949396,-0.5285144399700674,0.6161895687870254
0.23081503555190563,2.870519805035016,-0.5223525442821971,0.7867346428412686
0.2595202336022558,2.784774739903873,-0.5144851978537844,0.9545390308723652
0.2873679810012945,2.697500746969406,-0.5049398075450607,1.1193822587920468
0.31434298847098857,2.608482503927653,-0.4937459849571403,1.2811061857576094
0.3404278135102651,2.517497725615785,-0.4809349230995642,1.439602855877701
0.36560279076642294,2.4243262518403266,-0.4665388945407872,1.594806529056242
0.3898460532848262,2.328756679061148,-0.45059082925022476,1.7466888276757635
0.4131336200754377,2.230591073934626,-0.4331239409734671,1.8952561383978466
0.4354395308147839,2.129648183665928,-0.4141713795894887,2.0405485823801413
0.4567360126514432,2.025765464474259,-0.39376589376568727,2.1826400080616897
0.4769936672961858,1.9188001833733002,-0.3719394936850704,2.3216385695074333
0.4961816691299188,1.8086298068163889,-0.34872310798999606,2.4576875330988193
0.5142679671980827,1.6951518696435566,-0.3241462326590079,2.5909660088384134
0.5312194858945182,1.578283517186545,-0.29823657257062375,2.721689331157117
0.5470023210663836,1.457960931603292,-0.27101967925905257,2.8501088175253746
0.5615819303824165,1.3341388912981729,-0.24251859108379883,2.9765106089068767
0.5749233192953983,1.2067907721035058,-0.21275348499473007,3.10121323932171
0.5869912270164334,1.0759093850458106,-0.18174135260151297,3.2245634851141696
0.5977503208668915,0.9415091641201231,-0.1494957177503713,3.346929897966156
0.6071654125080927,0.803630376126313,-0.11602641877070974,3.4686932171230067
0.6152017162693559,0.6623462310906129,-0.08133948659947968,3.590232572966774
0.6218251785802621,0.5177740311467152,-0.045437160869811935,3.7119060265668993
0.6270029188917292,0.3700918038768136,-0.008318100604142939,3.834023540614466
0.6307038369304974,0.21956219726793874,0.03002213480200172,3.9568099774956593
0.6328994589031768,0.06656569755431929,0.06959023457695832,4.080355261491871
0.63356511587872,-0.0883546841167939,0.11039378719187702,4.204548628330029
0.632681569037552,-0.2444355168754613,0.1524392734751773,4.32899431362685
0.6302372138687974,-0.4006215076832561,0.1957292166114458,4.452907793064365
0.6262309987919649,-0.5554833276383693,0.24025829454208944,4.574995842715029
0.6206761655155811,-0.7071333937615261,0.2860082529692397,4.69333158979081
0.6136048315779659,-0.8531576480496534,0.3329415688671478,4.805248498368013
0.6050732550974693,-0.9905937944596006,0.38099405385082796,4.9072944066997
0.5951673171528733,-1.1159985261668732,0.430066997917825,4.995303735562695
0.5840073318912046,-1.2256496359317575,0.48002003527345194,5.064651406507268
0.571750835531887,-1.3159106005236076,0.5306665493385246,5.110727998985266
0.5585917295266509,-1.3837346813288618,0.5817738293283773,5.129607454396053
