th1 (rad),w1 (rad/s),th2 (rad),w2 (rad/s)
2.948373715553739,-1.2882786053677682,4.667266541923252,-2.173737078492966
2.9354909295000615,-1.27760135962262,4.645529171138322,-2.090676285184863
2.9227149159038355,-1.2702791296330271,4.6246224082864735,-2.008043648653833
2.9100121246075052,-1.2661995973746691,4.604541971799935,-1.9258851093147793
2.8973501286337586,-1.2652510143532991,4.585283120706787,-1.84424744394198
2.8846976184902258,-1.267322614714137,4.566840646267368,-1.763179023423713
2.8720243923430844,-1.2723049932102295,4.549208856033131,-1.6827304552142703
2.859301342410982,-1.2800904581513943,4.532381551480988,-1.6029551191397224
2.846500437829468,-1.2905733682973939,4.516352000289591,-1.5239096054563215
2.833594704146494,-1.3036504614948503,4.501112904235027,-1.4456540642804558
2.8205581995315456,-1.3192211817128452,4.486656363592223,-1.3682524757239352
2.8073659877144173,-1.337188010027772,4.472973838834983,-1.2917728502880355
2.7939941076141395,-1.357456804060317,4.460056110332103,-1.2162873692978506
2.7804195395735363,-1.3799371493895793,4.447893236639125,-1.1418724753935754
2.7666201680796405,-1.4045427255717513,4.436474511885189,-1.0686089233316685
2.752574740823923,-1.4311916885816576,4.4257884226518724,-0.9965818015773633
2.7382628239381064,-1.4598070707810817,4.415822604636099,-0.925880535379042
2.7236647532302958,-1.4903171989025927,4.406563799282308,-0.8565988821909815
2.7087615812412698,-1.522656130024106,4.3979978104603985,-0.7888349304389377
2.6935350199410286,-1.5567641050980874,4.390109461156009,-0.7226911126870355
2.6779673788900475,-1.5925880192880602,4.382882550029139,-0.6582742442479601
2.662041498697167,-1.630081908148774,4.376299807586659,-0.5956955981645369
2.6457406796156793,-1.6692074485561328,4.370342851605014,-0.5350710272619681
2.629048605130118,-1.7099344732353126,4.364992141332395,-0.4765211436080069
2.6119492603977648,-1.7522414977315388,4.3602269298963146,-0.4201715652033726
2.5944268454204495,-1.7961162586923705,4.356025214244281,-0.366153239034288
2.576465682833526,-1.8415562623502557,4.352363681853938,-0.3146028487263305
2.5580501202100234,-1.8885693420681064,4.349217653366675,-0.2656633139103401
2.5391644267893425,-1.9371742236873954,4.346561020227571,-0.21948438700376555
2.5197926845524687,-1.9874010971353129,4.344366176357533,-0.17622335136800962
2.4999186735811154,-2.0392921922296483,4.342603942843853,-0.1360458226496214
2.479525751658819,-2.0929023557777717,4.341243484617357,-0.09912665245309568
2.4585967281010412,-2.1482996257936975,4.340252218092826,-0.06565093019923146
2.4371137318431044,-2.2055657968309856,4.339595708790834,-0.035815074934067034
2.4150580738747944,-2.264796967905604,4.339237558041494,-0.009828003766588145
2.392410104195738,-2.3261040610969257,4.339139278003827,0.012087642721211104
2.3691490635847687,-2.3896132944801685,4.33926015443104,0.029694245632272555
2.345252930639967,-2.455466587352713,4.339557096887362,0.04273796080896966
2.32069826476644,-2.5238218685466705,4.339984476495452,0.05094752921064033
2.2954600460809735,-2.5948532497407824,4.3404939517875585,0.05403320889413533
2.2695115135835655,-2.668751014875669,4.3410342838765,0.05168591095086283
2.242824003434809,-2.745721363853622,4.341551142986009,0.043576643492141805
2.2153667897962728,-2.8259858335615102,4.34198690942093,0.02935639354125988
2.1871069314606575,-2.90978030192528,4.342280473356342,0.008656606673965422
2.158009128441405,-2.99735346144231,4.342367039423082,-0.018909541671833403
2.128035593826982,-3.088964628034261,4.342177944006363,-0.05374485173708759
2.097145947546639,-3.1848807301866233,4.341640495488992,-0.09626451066533033
2.065297140244773,-3.2853723039072316,4.340677850382339,-0.14689089881088593
2.0324434172057004,-3.390708303589254,4.33920894139423,-0.20604644512438175
1.998536334169808,-3.5011495309482115,4.337148476942986,-0.27414415971234984
1.9635248388603257,-3.616940488468153,4.334407035345863,-0.35157546279601853
1.9273554339756442,-3.738299485969282,4.3308912807179025,-0.4386949470972581
1.8899724391159514,-3.865406875540818,4.32650433124693,-0.5358017667274437
1.8513183703605431,-3.9983913678924914,4.321146313579656,-0.6431174526684763
1.8113344566816183,-4.137314497950224,4.314715139052971,-0.7607601252294678
1.769961311702116,-4.282153462411558,4.307107537800677,-0.888715316812048
1.7271397770780004,-4.4327827452925606,4.298220384632557,-1.0268039368008113
1.6828119496250749,-4.588955170207602,4.287952345264548,-1.17464829648793
1.6369223979229988,-4.750283251640274,4.276205862299669,-1.3316375425892286
1.5894195654065961,-4.916221932610966,4.262889486873776,-1.4968942819090234
1.5402573460804865,-5.08605395443074,4.247920544054686,-1.669244557805547
1.4893968065361791,-5.258879162502391,4.231228098476631,-1.8471935891463185
1.4368080149111553,-5.433608971123452,4.212756162585168,-2.028909730900829
1.3824719251999207,-5.6089669662878165,4.19246706527616,-2.212218905037103
1.3263822555370426,-5.783496222961956,4.170344876225789,-2.394611260396059
1.268547293307423,-5.955573393949724,4.1463987636218285,-2.5732610849535287
1.208991559367926,-6.123429071786694,4.120666152772293,-2.745060110477508
1.147757268650059,-6.285173442736516,4.093215551667519,-2.9066634696888762
1.0849055342226939,-6.438825960410636,4.0641489169706295,-3.054546868432941
1.0205172746185875,-6.582347762512104,4.0336034482863,-3.1850731835163284
0.9546937969934665,-6.713675884826268,4.001752716451136,-3.2945667912169765
0.8875570381452038,-6.8307589686059496,3.9688070485389666,-3.3793944697180733
0.8192494484591443,-6.9315950101011214,3.935013103841786,-3.436052574911205
0.749933498358133,-7.01427259260942,3.9006525780926737,-3.4612611168162015
0.6797907724320389,-7.077017747047158,3.866039966924512,-3.452066022500001
0.6090205949615674,-7.118248851419731,3.8315193066995117,-3.4059508703067216
0.5378381064473701,-7.136641546137662,3.7974597979964444,-3.32095834143018
0.46647169098599345,-7.131204294058395,3.764250214582143,-3.195819278290307
0.3951596480454095,-7.101362839109985,3.73229202179924,-3.0300834998852864
0.3241460196543096,-7.047048503438482,3.701991186800387,-2.824241700463875
0.25367553461992476,-6.968781413719488,3.6737487697957483,-2.579822657620183
0.18398772048272988,-6.867736168089625,3.6479505432195465,-2.2994459816256203
0.11531035880183363,-6.745775325169405,3.62495608340329,-1.9868095620239519
0.04785260555013958,-6.605436728973832,3.6050879877830506,-1.6465944851551237
-0.01820176173959874,-6.449865041112668,3.5886220429314992,-1.2842794599264755
-0.08270041215072542,-6.282685938098364,3.5757792483322346,-0.9058709737964277
-0.14552727153170908,-6.107831859964749,3.56672053859427,-0.5175716675112998
-0.20660559013135657,-5.9293383062337295,3.5615448219191572,-0.1254233003442991
-0.2658989731936939,-5.751136365143924,3.560290588915714,0.26503239103657283
-0.3234103368451331,-5.576868167352845,3.56294091282608,0.649034348090122
-0.37917901851866154,-5.409746908287783,3.569431256306981,1.022795571135539
-0.43327648760153936,-5.2524737113435105,3.5796592120183366,1.3835976678247968
-0.48580122471497444,-5.107212924251881,3.5934951886965845,1.7297925119072062
-0.5368733539574932,-4.975618436330731,3.6107931138156566,2.0607302272503145
-0.5866295383208006,-4.858898132030336,3.6314004160881597,2.3766394551354155
-0.6352185196411039,-4.7579020140839035,3.6551668106395137,2.6784862424957714
-0.6827975397819429,-4.6732210222668344,3.6819516730644715,2.967833759289246
-0.7295297500046113,-4.605286806451461,3.711630010657364,3.246718802791851
-0.7755826180691259,-4.554466416182232,3.7440971986852825,3.5175546817089147
-0.8211272822309482,-4.5211491506902535,3.7792727455023716,3.7830647940717625
-0.8663387737378507,-4.5058251916793965,3.817103393443089,4.046247404066486
-0.9113970256546446,-4.509156904535711,3.857565867483754,4.310369533987328
-0.9564885947000018,-4.532043675211555,3.900669562823627,4.5789857959303335
-1.0018090314521173,-4.575679450929332,3.94645942078293,4.855975188293869
-1.0475658259614107,-4.64159775637181,3.995019172665869,5.145583372175388
-1.0939818035251287,-4.73168958281626,4.046475006387623,5.452446114658104
-1.1412986993532914,-4.8481604725770095,4.100999467534204,5.781544588432843
-1.1897803040790615,-4.993355112690568,4.158814913418532,6.137992020668087
-1.2397138552059672,-5.169304143052502,4.2201948336252135,6.526450382322799
-1.2914068966364922,-5.376713571915577,4.285459337448441,6.949789977364856
-1.345174032355648,-5.6129042772858115,4.35495723722209,7.406307831172858
-1.401303075128506,-5.867993372993895,4.429020315533818,7.884515923995503
-1.459983008858445,-6.118856366821616,4.507865474773773,8.354843160462178
-1.521171572526661,-6.322567556226597,4.591413906378395,8.760583656849965
-1.584397248088927,-6.4171336405698645,4.6790197429468945,9.018927416250481
-1.6485685844946256,-6.343324017575651,4.769209017109399,9.051217642097942
-1.712001824670382,-6.086068813346519,4.859721193530379,8.840137305436139
-1.7728625128038473,-5.693337697027809,4.948122566584741,8.4551813523391
-1.8297958897741253,-5.241329265806403,5.032674380108132,8.00367416588499
-1.8822091824321894,-4.788795033942957,5.112711121766981,7.567598992466768
-1.930097132771619,-4.364219427021993,5.188387111691649,7.186565698992073
-1.9737393270418389,-3.975298309553829,5.26025276868157,6.871494039261999
-2.013492310137377,-3.6199573034127392,5.32896770907419,6.620069936831447
-2.0496918831715045,-3.2927225089995598,5.395168408442505,6.425573651500499
-2.0826191082615,-2.9875341800869433,5.459424144957509,6.280726902610948
-2.1124944500623695,-2.6987728021193904,5.522231413983619,6.179061846525758
-2.1394821780835636,-2.421529964169009,5.5840220324488765,6.115252575452207
-2.1636974777252536,-2.151598114190178,5.645174558203399,6.085063362434945
-2.1852134588671555,-1.885375442187637,5.706025191827749,6.0851802574614995
-2.204067213289032,-1.6197614965560454,5.766876994402364,6.113025548430625
-2.2202648282545923,-1.352070047355068,5.82800724988667,6.166587030200604
-2.2337855287281427,-1.079966775366589,5.889673120188676,6.2442681154750215
-2.2445851964818084,-0.801432643864041,5.952115801343426,6.344755747792403
-2.2525995229204487,-0.5147518070423978,6.015563358821351,6.466900656323626
-2.2577470409908726,-0.21852251194881206,6.080232365384587,6.609604683213347
-2.259932266110361,0.08831066730598663,6.146328412216721,6.771711207483218
-2.2590491594373012,0.4064053758452727,6.214045524291553,6.951896610433275
-2.2549851056788484,0.7359540257034975,6.283564490395886,7.148563202645065
-2.2476255654218136,1.076605503366394,6.355050122422337,7.359737091186989
-2.2368595103881495,1.427383984244475,6.428647493334206,7.582978054002586
-2.2225856705457048,1.7866162286356637,6.504477273874232,7.815312314023746
-2.2047195082593483,2.1518822353938294,6.582630397014469,8.05320249679987
-2.18320068590541,2.520006694331762,6.663162421982468,8.292570888027258
-2.1580006189620926,2.8871088805421543,6.7460881308627405,8.528890895634817
-2.1291295301566713,3.2487249113793237,6.831377039819088,8.757355893583227
-2.096642281042878,3.6000075442885207,6.918950598754921,8.973123633674934
-2.0606422055999927,3.935995141441321,7.008681835091671,9.17161902706705
-2.0212822541855795,4.251925302850047,7.100398025362341,9.348861437706375
-1.978763001157079,4.543554264932093,7.193886639739405,9.501769796829372
-1.933327458507758,4.807435679053444,7.288904337707698,9.628395336521915
-1.8852531017172236,5.041115753022479,7.385188291072917,9.728040877346757
-1.8348419441869988,5.243216385874234,7.482468699846385,9.80124630915905
-1.7824097803282564,5.4133999551728005,7.580481162937976,9.849646374372462
-1.7282757807765283,5.552232008147203,7.6789776266817,9.875730826968985
-1.6727534606950563,5.660974536937337,7.77773493495139,9.882551459141027
-1.6161437153256828,5.741349000495284,7.8765604495428,9.873422506682484
-1.55873022532073,5.795305032671503,7.975294674609625,9.851652450659737
-1.500777174994015,5.824821130011347,8.073811199116223,9.820331085292796
-1.4425289636939016,5.831751810321052,8.17201450996915,9.782181119846003
-1.384211445590691,5.817725216726182,8.26983632116761,9.739472121366406
-1.3260341934234292,5.784087708926568,8.367231042381274,9.693987675981775
-1.2681933163341634,5.7318879039651405,8.464170919141091,9.647033896211864
-1.210874437294512,5.6618912381692565,8.56064125810321,9.599477597010612
-1.1542555249128195,5.574616434295393,8.656636034073317,9.551804233173147
-1.0985093605698655,5.470386375655762,8.752154076405048,9.504187945310832
-1.043805496813308,5.349387180200486,8.847195955858156,9.456568118729864
-0.9903116250113031,5.2117303846759215,8.941761637045454,9.4087284019714
-0.9381943211645439,5.057513972127976,9.035848921065169,9.36037510264243
-0.8876191814432641,4.8868785366923815,9.129452672091594,9.311212377948758
-0.8387503960763403,4.700055291710778,9.222564795871081,9.261011844152733
-0.7917498431592325,4.497403031559363,9.315174914312609,9.209674342418667
-0.7467758128436388,4.279431678974484,9.407271657736795,9.157281798450496
-0.7039814960538939,4.046810764899316,9.498844475721299,9.104137531032777
-0.6635133884049008,3.8003621057624435,9.589885851031626,9.050794061222684
-0.6255097673472764,3.541036999349698,9.680393791643853,8.998068432286312
-0.5900993973537794,3.2698793296116406,9.770374475966717,8.947046182132139
-0.557400604057663,2.987976893885924,9.859844937788038,8.899076279023024
-0.5275208351188038,2.696403887657501,9.948835700578268,8.855760390081807
-0.5005567962422287,2.3961576867763763,10.037393304479087,8.818940680349765
-0.4765952193744649,2.0880928054349823,10.125582711282584,8.790690876944664
-0.4557142913201151,1.7728542044948903,10.213489620052032,8.773315591829892
-0.4379857492751662,1.450811067649818,10.30122277597033,8.769362960715583
-0.42347763859866805,1.1219908859639542,10.388916405577486,8.781655650793526
-0.4122577297390285,0.7860123577696159,10.476732962085421,8.813345339816939
-0.40439760616133236,0.4420144245386865,10.564866415483591,8.867995920981995
-0.39997746191594546,0.08857804017485599,10.653546374693411,8.949700782069069
-0.3990916815141969,-0.2763623600901884,10.743043382514102,9.06323889981616
-0.40185530511509876,-0.6556178415489703,10.833675771512263,9.21427142344936
-0.4084114835305885,-1.052845818345752,10.925818485746756,9.409570534007079
-0.418939941714046,-1.4726217537503152,11.019914191086826,9.657245172102934
-0.43366615925154917,-1.9203962543023287,11.116486642807855,9.96685887119746
-0.4528701217945725,-2.402123626652744,11.21615523151983,10.3491656490124
-0.47689135806109995,-2.9230535804048943,11.319646888009954,10.814792690254766
-0.5061218938651489,-3.4845417926164526,11.427794814912502,11.37032453486645
-0.5409673117913134,-4.076556120076485,11.541498060261167,12.008593468416302
-0.5817328729920782,-4.662317976853074,11.66158399494533,12.688171423309795
-0.6283560527606089,-5.154600213415364,11.788465709178428,13.301052609563776
-0.6799020548947625,-5.404585563507055,11.921476235274065,13.656610029697458
-0.7339479105298331,-5.264906991360003,12.05804233557104,13.565702720400695
-0.7865969804434332,-4.734528393755636,12.193699362775046,13.034453715965677
-0.8339422643809895,-3.983974782369806,12.324043899934702,12.292809748718632
-0.8737820122046875,-3.1892789135117203,12.446971997421889,11.568177174400976
-0.9056748013398047,-2.434339625579973,12.562653769165898,10.960072312001122
-0.9300181975956044,-1.7378145217119974,12.672254492285909,10.482046655854454
-0.9473963428127244,-1.0936717289834428,12.777074958844453,10.117355849587742
-0.9583330601025589,-0.49044394105601063,12.878248517340332,9.843959657650368
-0.963237499513119,0.08243870458472846,12.976688113916834,9.641972461409026
-0.9624131124672717,0.6331373113820651,13.073107838530925,9.494895974292293
-0.956081739353451,1.1673577823820769,13.168056798273847,9.38913807118792
-0.9444081615296303,1.6886542161214333,13.261948178985726,9.31324925053574
-0.9275216193684159,2.1987591781510414,13.355080671491084,9.257266414657304
-0.9055340275869055,2.697871059807332,13.447653335637657,9.212238685476235
-0.8785553169888322,3.1849028054103226,13.53977572249242,9.169925270457412
-0.846706288934729,3.6577127731332,13.631474975196994,9.122637900311004
-0.810129161203397,4.113336564306262,13.722701354200105,9.063199367489732
-0.7689957955603344,4.548230826769055,13.813333347875002,8.984990550675407
-0.7235134872926439,4.958530643875205,13.903183253381755,8.882057960853437
-0.6739281808538918,5.340313284577084,13.992003832990289,8.749253001941995
-0.620525048008121,5.68985443911759,14.079496363009708,8.582374532144215
-0.5636265036169451,6.003859902642499,14.16532010833115,8.378289422954941
-0.5035879045905202,6.279656621904119,14.2491030025607,8.135012140715888
-0.440791338371479,6.5153316937042165,14.330453123967859,7.851733138765563
-0.3756380214344368,6.709814871862287,14.408970455355513,7.528795203816668
-0.30853987271581396,6.862907364699854,14.48425840739368,7.167624628806167
-0.2399107990688154,6.9752652351635795,14.555934653681742,6.770628454867293
-0.1701581467171796,7.048348346040225,14.623640938230416,6.341069452093947
-0.09967466325677736,7.084345403441757,14.687051632751356,5.882927722668961
-0.02883120922235978,7.086083109300096,14.745880909978045,5.4007535040827
0.04202962187064119,7.056924152202086,14.79988844501887,4.899511904940246
0.11259886339266205,7.000656145799625,14.848883564068274,4.38441848175601
0.18260542485065828,6.921372581744917,14.892727748885834,3.8607654117669137
0.25181915066810745,6.82334759012517,14.931335403003503,3.333741127439161
0.3200526265693592,6.710908285276523,14.964672814277895,2.808250401160982
0.3871617094221244,6.588310764028769,14.992755318289506,2.2887453870941195
0.4530448170624121,6.459627399379931,15.015642772160447,1.779079644616871
0.5176410910562115,6.328653226035673,15.033433568606617,1.2823959894404546
0.5809276233165682,6.198837769669749,15.046257528501021,0.8010553536043287
0.6429160010132657,6.073245992813838,15.054268082037064,0.33660865395936335
0.7036484609414041,5.954548825944196,15.057634168576657,-0.11019170355254382
0.763193949200846,5.845040787965117,15.056532251541132,-0.5393484091504459
0.8216443570804972,5.746680042332273,15.051138767449627,-0.9515542290153565
0.87911115750382,5.66114511661381,15.041623225159475,-1.3481162993981166
0.935722608669958,5.589902333369431,15.028142062165493,-1.7308795551052008
0.9916216320036524,5.5342784069006425,15.01083326661444,-2.102156743433727
1.0469644160726588,5.4955331427944545,14.989811699180104,-2.4646691999416017
1.1019197475006033,5.474927098495234,14.965165007180687,-2.8214984115639172
1.1566690184855557,5.473777584542425,14.936950023065048,-3.176042812196779
1.2114067943309799,5.493492237067066,14.90518959494308,-3.5319657800884037
1.2663417167016506,5.53556043558839,14.869869937142196,-3.8931065175025807
1.3216973210575345,5.601465396618402,14.83093887196717,-4.2633001685682075
1.3777119750237186,5.692447869611603,14.788305870281489,-4.646008671458127
1.4346364537198346,5.808997999060503,14.741845783566907,-5.043588094551757
1.4927264337104396,5.949870716493083,14.69140990262139,-5.455905285123893
1.5522251408753704,6.110335809640548,14.63685084977015,-5.877899751946344
1.613328498971776,6.279413584772991,14.578071852250687,-6.295743524663977
1.676122634819506,6.436395492080693,14.515114417004048,-6.682021060429788
1.7404865897403128,6.548706373289261,14.44829420639975,-6.99281316349259
1.8059736534732054,6.576121925194691,14.378366074764823,-7.173703900430293
1.8717348727251524,6.486384873590462,14.30662903576052,-7.181735732834359
1.936598721461057,6.276269177838001,14.234811678432177,-7.014872563845488
1.9993614132394368,5.977255365355239,14.164662952793721,-6.719708438013035
2.0591339668929893,5.6364209310094555,14.097465868413591,-6.364402686312229
2.115498176203084,5.292798061922023,14.03382184155047,-6.005438899098043
2.168426156822304,4.96851782698134,13.973767452559489,-5.675279704965052
