th1 (rad),w1 (rad/s),th2 (rad),w2 (rad/s)
2.7862285411939776,2.2495938397345867,3.9753076219426164,2.9050728150672307
2.8087244795913233,2.249910837104472,4.004358350093288,2.9305528321187584
2.831223587962368,2.2530433086927935,4.033663878414476,2.956749940533922
2.853754021049296,2.2590764827530663,4.0632313778198155,2.9835011750446125
2.8763447858768267,2.268091749151522,4.093066389570262,3.010641295862099
2.8990257033683418,2.280166412553732,4.123172802528883,3.038002068305198
2.9218273674938793,2.2953734091708413,4.1535528232119345,3.0654114734358835
2.944781101585588,2.3137809873623496,4.184206937946294,3.092692852786561
2.9679189114592113,2.3354523528186077,4.215133866474159,3.1196639912964934
2.9912734349873973,2.3604452796789155,4.246330506387124,3.1461361437762205
3.0148778877841864,2.388811689812634,4.277791867824886,3.1719130115935887
3.0387660046823126,2.4205972036336063,4.309510997940822,3.19678967782425
3.0629719767186487,2.4558406672644377,4.341478894719065,3.220551510828447
3.087530383391293,2.4945736626470336,4.373684409827349,3.2429730480916876
3.1124761200177633,2.5368200093360205,4.406114140308266,3.2638168741760327
3.1378443201111237,2.5825952692340626,4.4387523090500265,3.2828325087338057
3.1636702728034645,2.6319062684471413,4.471580634137364,3.2997553226816927
3.189989335487936,2.684750653758652,4.5045781873641815,3.3143055027439776
3.2168368420255224,2.741116504936823,4.537721242391621,3.3261870865466214
3.2442480070748907,2.800982028179197,4.570983113257087,3.3350870921460487
3.2722578273566825,2.864315360422693,4.604333984178548,3.3406747671400403
3.3009009809609093,2.931074518951397,4.637740731849949,3.342600983126351
3.330211726150423,3.0012075356402126,4.671166741681212,3.340497800999135
3.3602238015068253,3.074652820184545,4.704571719691203,3.3339782311121975
3.390970329708671,3.151339801670113,4.7379115020023255,3.322636209357055
3.422483727725372,3.231189902704663,4.771137864095896,3.3060468053291063
3.4547956267524187,3.3141179049301766,4.804198332149187,3.28376667158125
3.4879368058017204,3.4000337689294655,4.837035998864999,3.2553347330652214
3.521937143491015,3.4888449752235178,4.869589346195651,3.220273102808342
3.55682559324325,3.5804594561527034,4.9017920772237344,3.1780881932604923
3.592630187804777,3.6747891909353863,4.933572959156339,3.128271972220105
3.629378079714131,3.7717545381794553,4.96485567887854,3.070303287552402
3.6670956250959255,3.8712893817785345,4.9955587117540645,3.0036491559428597
3.705808518913711,3.973347167782923,5.025595203313493,2.9277658778035804
3.74554199059154,4.07790791196248,5.054872862091529,2.8420998036150604
3.786321069711165,4.184986260949928,5.08329386012768,2.7460875373593514
3.8281709323206643,4.294640694655529,5.110754735501273,2.6391553219045867
3.8711173392672196,4.406983964461233,5.137146288720319,2.5207173119390514
3.915187178911832,4.522194870286,5.16235346183971,2.390172406761347
3.960409127614692,4.640531488284153,5.186255185907323,2.246899295225609
4.006814442497533,4.762345965125048,5.20872417885958,2.0902493706556657
4.054437902148783,4.888100984423524,5.229626672566137,1.9195372254205967
4.103318911993019,5.018387965657555,5.248822044820343,1.7340285691728534
4.153502791649594,5.153946936916253,5.2661623305120715,1.5329256947040968
4.2050422610187566,5.295687757457754,5.281491587459112,1.3153511527730455
4.257999138593334,5.444711820947057,5.294645098986843,1.080331290901752
4.312446256802804,5.602332302896709,5.305448411895861,0.8267831151804332
4.368469579831771,5.770088989277902,5.313716243047665,0.5535111780315846
4.42617046972455,5.949749959286876,5.319251354827981,0.2592269879212775
4.485667969317419,6.143285535702717,5.321843624707194,-0.057386303213717904
4.5471008246744455,6.352787680893385,5.321269761675056,-0.3975232654292523
4.610628701483379,6.580286868667928,5.317294529020764,-0.7619484964982133
4.676431570170059,6.827383864535002,5.309675044055782,-1.150411697449288
4.744705408815409,7.094563153619611,5.298170927081289,-1.560594712778217
4.815651040351605,7.37999857708694,5.282564979953507,-1.9863241992236744
4.889451026122474,7.677656715805055,5.26270173796127,-2.4147865020599877
4.966227593280525,7.974721249518791,5.2385538729406695,-2.8228105478240795
5.045974805775713,8.249150180984223,5.210325767462429,-3.1734380665336146
5.128466307585556,8.469811209326844,5.178591386797093,-3.4163613145779554
5.213164419678824,8.603068868058315,5.144427773651313,-3.497853516012669
5.299195108359407,8.626987178626605,5.1094492384911865,-3.3818863174406357
5.385464980145673,8.544939504542405,5.07563037531678,-3.0705631207574466
5.470914375191097,8.385041523553454,5.044924744109205,-2.6040467598679102
5.554764790426632,8.184594229975026,5.018884276510526,-2.0383500152311687
5.636610732726383,7.974264475046312,4.998500776358215,-1.4220340528276076
5.716353377476846,7.772225255379658,4.984280435829939,-0.7869500516314137
5.794075630030642,7.585997421461163,4.976410935313625,-0.1502642082365906
5.869935604245254,7.4163663566893785,4.974908293231259,0.48019225746897887
5.944099267812147,7.260522086429953,4.979710215805949,1.1014587237812243
6.016704488676447,7.113966105400945,4.990724803043761,1.7126640980772132
6.087844149730456,6.971528274031801,5.007851444024533,2.3135277969650287
6.157559432470774,6.82787752194336,5.030986721994183,2.9036381016442525
6.225838207690208,6.677779604526773,5.060023103010626,3.4821639068712598
6.292616003735476,6.5162418377725375,5.094844742079339,4.047804046251468
6.357778422113201,6.338614358505514,5.135322782541853,4.59887016845167
6.421164565698256,6.140678113921929,5.18131148422637,5.1334481007537915
6.482571346837475,5.9187284251352805,5.232645965233908,5.649606387872359
6.541758631088828,5.669651438866259,5.289142029112631,6.145631175777904
6.598455145477491,5.390984824440599,5.350598340870411,6.6202708006747315
6.652364993721897,5.080951696468492,5.416801048877158,7.07297525297897
6.703174510686582,4.738457085317455,5.4875308014069475,7.504117239156847
6.750559081539756,4.3630389669820335,5.562571973798516,7.915183840458201
6.7941894712095765,3.9547707288823712,5.6417238122030975,8.308930821172753
6.8337371784984,3.5141190154927435,5.724813120414825,8.689494526241376
6.868878368653328,3.041770740336086,5.811708065677239,9.06245671184295
6.899296076056689,2.538457655089055,5.902332632795669,9.43485098338834
6.924680652607579,2.0048313807291342,5.996681142629552,9.815076922512322
6.94472896641487,1.4414878030425995,6.094831911854675,10.212632207276293
6.959143844445296,0.8493307055895919,6.196958233927439,10.637450737230575
6.967637151501192,0.2306422927507552,6.303332741299744,11.098386563791742
6.969943574428699,-0.40845354914069887,6.414316606937662,11.59992964386445
6.965859038937292,-1.0530122871416205,6.530315903376307,12.135593285779928
6.955328916065875,-1.6705871580748992,6.651671836234106,12.676217177679593
6.9386230444851265,-2.200041914006851,6.778434008010902,13.154494061585218
6.916622625345058,-2.5482964506932335,6.909978948626754,13.459435727401214
6.8911396608381255,-2.6192954386742056,7.044573305900766,13.473382584394908
6.864946706451383,-2.3821669954563376,7.179307131744715,13.160941682047477
6.84112503649682,-1.9099685284161747,7.31091654856519,12.617807700040617
6.822025351212658,-1.3236259092151776,7.437094625565597,11.99457282316765
6.808789092120506,-0.7151873001564162,7.557040353797273,11.397924742395487
6.801637219118942,-0.12952298306447918,7.671019601221228,10.871512114817886
6.800341989288297,0.4186171417012745,7.779734722369406,10.421305672410263
6.80452816070531,0.9277307325231746,7.883947779093509,10.038276433069793
6.813805468030542,1.4006943620678451,7.984330543424207,9.709568680348296
6.82781241165122,1.841106863975718,8.08142623022769,9.422716686658923
6.846223480290978,2.2520241507389294,8.17565339709428,9.166873351008189
6.868743721798367,2.6356509101561194,8.267322130604361,8.932955793994868
6.895100230899929,2.99338278666732,8.35665168854431,8.713466248357008
6.925034058766602,3.3259611913788762,8.443786351027882,8.502259399996076
6.9582936706803915,3.6336515451853266,8.528808945027842,8.294339947696042
6.994630186132245,3.9164129984316456,8.611752344504803,8.085706391064718
7.033794316116561,4.174048801246711,8.69260940841545,7.873234703032213
7.075534804129028,4.406333847155662,8.771341755445771,7.654589947710568
7.1195981426005845,4.613118309413251,8.847887654922877,7.428154289511933
7.165729325694717,4.794407165046802,8.922169197817997,7.192962194291171
7.213673397345185,4.950416008222831,8.994098819760909,6.9486364438517425
7.263177557427413,5.08160425271992,9.063585184199427,6.695321276488983
7.313993599954612,5.188687614146576,9.130538396964317,6.433611264471168
7.365880476096078,5.272632524309256,9.19487450960903,6.164476318860366
7.418606801339171,5.334635730586379,9.256519272797632,5.889184429643777
7.471953158645034,5.376092681830428,9.31541111709407,5.609224427187593
7.525714085463338,5.398558367405006,9.371503361365946,5.326231263933304
7.579699669137389,5.403704079125565,9.424765674005279,5.041916170253754
7.633736709928645,5.393273165082964,9.475184835707816,4.758003653499419
7.687669441579474,5.3690383134855475,9.52276487224281,4.476176794037845
7.74135982471433,5.33276231624874,9.567526640183189,4.198031735145566
7.794687447876817,5.286163676082113,9.609506957534645,3.925041728109131
7.847549084637638,5.230887880208695,9.648757374815736,3.658530619260714
7.899857963439725,5.168484694876239,9.685342681008343,3.3996552727823772
7.951542810388488,5.100391450195222,9.719339233736168,3.149396120117778
8.00254672489044,5.027921987535711,9.750833194937346,2.9085548139424255
8.052825944765797,4.952260728317691,9.77991874307677,2.677757837195656
8.102348552048973,4.874461186150988,9.806696321448726,2.457464867726558
8.151093163910483,4.795448174133983,9.831270970125992,2.247980716205154
8.199047645651822,4.716022944531465,9.853750777288043,2.0494697266939674
8.246207875097136,4.63687052721773,9.874245474554984,1.8619716419873387
8.292576580369314,4.558568594429533,9.892865190974858,1.6854180754717578
8.33816226631361,4.48159726143599,9.909719371729576,1.519648884469074
8.38297823892797,4.4063493258366995,9.924915860574266,1.364427895026858
8.427041732186337,4.333140544119425,9.938560139524535,1.2194575754349888
8.470373137627531,4.262219636476744,9.950754715278885,1.0843923885242457
8.512995333992299,4.1937777952120365,9.961598639164126,0.9588506668236755
8.554933111944418,4.1279575456120154,9.971187145832364,0.8424249480610193
8.596212687400538,4.064860869654231,9.979611395312974,0.7346907813391989
8.63686129609708,4.004556552233906,9.986958303126366,0.63521406805921
8.67690686161942,3.9470867474337084,9.993310443806958,0.5435570386180046
8.716377729093757,3.8924727899349088,9.998746014193138,0.4592829888660831
8.755302456993107,3.840720295450485,10.0033388440818,0.38195991214148034
8.793709659947611,3.791823605587678,10.007158443203215,0.3111631661417493
8.831627896003488,3.745769638287155,10.010270074864632,0.2464773114010354
8.869085592386359,3.7025412062527847,10.012734847978642,0.18749725179057197
8.906111004448887,3.6621198636974586,10.014609820496547,0.13382879896378064
8.94273220308586,3.6244883371933017,10.015948108486185,0.08508877336881138
8.978977086457794,3.5896325901314388,10.016798996219872,0.04090474538274432
9.014873412359108,3.5575435627833905,10.0172080436737,0.0009145120498256637
9.050448847986942,3.5282186215672438,10.017217188794199,-0.035234601612124716
9.085731034202615,3.501662742075109,10.016864842778077,-0.06788653234147748
9.120747661623366,3.4778894408224827,10.016185977454661,-0.09737727734486938
9.15552655603159,3.4569214605593914,10.015212204681212,-0.12403561986411316
9.190095770637184,3.4387912033037695,10.013971848482571,-0.1481836968628594
9.224483682670222,3.423540893955965,10.012490011513943,-0.17013731890572953
9.258719091609782,3.4112224453713225,10.010788638324886,-0.19020594456147316
9.292831316063495,3.401896983099527,10.008886578879272,-0.20869220153877036
9.32685028589449,3.395633974758087,10.006799656863885,-0.2258908346394475
9.360806625642072,3.392509895522218,10.00454074851749,-0.24208694721499308
9.394731724597294,3.392606348167491,10.00211987904534,-0.25755338940496314
9.428657788078969,3.396007544722316,9.99954434515129,-0.27254713510193757
9.462617863526193,3.402797049096184,9.996818873800272,-0.28730448358492405
9.496645834017155,3.4130536791651274,9.993945828964423,-0.302034925961138
9.530776370808805,3.426846477256534,9.990925479704812,-0.3169135378950469
9.565044835581372,3.4442286859975,9.987756344325861,-0.33207180795013114
9.599487122441346,3.4652307199975434,9.98443562624636,-0.3475868970261381
9.634139429641321,3.489852211978183,9.980959757276098,-0.36346946233833904
9.669037951761103,3.5180533437194157,9.977325062652715,-0.37965038225116177
9.704218485198297,3.5497458535625834,9.973528558830203,-0.3959669945791785
9.739715943733923,3.584784341536748,9.969568888884412,-0.41214980782336047
9.775563787149292,3.62295875463947,9.965447390806178,-0.4278110384025256
9.811793374695686,3.663989191065415,9.961169280422153,-0.4424367118276123
9.84843326660634,3.7075243489858214,9.956744913303877,-0.45538434708207487
9.885508510096198,3.7531449731429185,9.952191069833058,-0.4658882891535895
9.923039959827626,3.8003734204867983,9.947532186941523,-0.4730744167852375
9.961043694032494,3.8486898951791653,9.94280144277367,-0.475985114277689
9.999530592984286,3.897554982942501,9.938041591630892,-0.47361404071314295
10.038506142813711,3.946436949744316,9.933305451223761,-0.46494850873375565
10.077970512311154,3.9948410984740925,9.928655966136423,-0.4490155448261177
10.117918923295894,4.042337631328367,9.924165810688162,-0.42492642901073
10.158342299609178,4.088584263808246,9.919916546398055,-0.39191417351691704
10.19922814224726,4.133340444828871,9.915997404662885,-0.3493592487954133
10.240561546695549,4.176471368007957,9.912503812174931,-0.2968007835776692
10.282326260375628,4.217941671831371,9.909535804339153,-0.2339329680926026
10.324505677093942,4.257800353087011,9.907196474658228,-0.160588797585895
10.367083680624813,4.29615954701175,9.905590586682369,-0.07671500159925301
10.41004527609493,4.33317025150524,9.904823436666376,0.017657302702041633
10.453376978609983,4.368997829469314,9.905000009693397,0.12244197908363609
10.497066956904677,4.403799429712535,9.906224429484233,0.23752396859208347
10.541104951201802,4.437704600333436,9.908599669170155,0.3627800598577058
10.585481997205136,4.470799562959787,9.912227469768732,0.49809346108631036
10.630189992834733,4.50311500970503,9.917208404379595,0.6433622200867251
10.675221142931784,4.534616918765029,9.923642026580463,0.7985021283922391
10.720567312119435,4.565199733671016,9.931627047864385,0.9634450384903069
10.766219309456146,4.5946812583272285,9.941261498249288,1.1381335990464962
10.812166122039418,4.6227987240272865,9.952642834239754,1.3225133592836675
10.858394109279692,4.649205635505439,9.96586796783259,1.5165230832824164
10.904886165634746,4.673469166150813,9.981033198665415,1.7200839985219194
10.951620857296254,4.695068027307002,9.998234038650635,1.9330886098947542
10.998571537569324,4.7133908727503355,10.017564924749582,2.155389653722163
11.045705446296827,4.727735412615555,10.039118821286804,2.386789747859822
11.092982800422982,4.737308499481352,10.062986718765403,2.6270323088339196
11.140355885417796,4.741227511707649,10.089257041853742,2.8757943461015967
11.187768160534873,4.738523393279525,10.118014985314758,3.132681795737325
11.235153394467668,4.728145711980777,10.149341803272131,3.3972281085648905
11.282434851587476,4.708970064322829,10.18331408435778,3.6688968477670505
11.329524552230705,4.679808081692616,10.220003052835452,3.9470890649790804
11.37632263304763,4.639420174060432,10.259473943485242,4.231156199030588
11.422716834788234,4.586530984390636,10.301785505475548,4.520419166445534
11.46858214463214,4.519847322506232,10.346989697140003,4.8141941783844135
11.513780617857202,4.438078112819671,10.395131638923848,5.111825618545223
11.5581613989854,4.3399556477687415,10.4462498951093,5.412726046659207
11.601560955463087,4.224257224046396,10.500377155575892,5.716423048625917
11.643803527703552,4.08982610750579,10.557541386062152,6.022612226755603
11.68470178877861,3.935590808563929,10.617767508329708,6.331215082432962
11.72405769686425,3.7605819787070343,10.681079659154037,6.64243981509555
11.761663516651321,3.563947054106811,10.747504057304992,6.956841983007529
11.79730298719239,3.3449643847269135,10.817072477135067,7.275380211581046
11.83075263103966,3.1030615123544627,10.889826279250878,7.599459055378984
11.861783246163204,2.8378473766304664,10.965820869804668,7.9309455379882845
11.890161719929509,2.54917703290599,11.045130325184552,8.272135697200614
11.915653490258569,2.2372824495188626,11.127851682156559,8.625629042661405
11.938026314753758,1.9030279460921011,11.214107972583173,8.994036483726312
11.957056594214679,1.5483886584714395,11.304048337420436,9.379393431783118
11.972540480799394,1.1773074101506507,11.397842271738268,9.78206923165627
11.9843135549009,0.7971458039374318,11.49566296405483,10.198871823138875
11.992285012940275,0.4209396487563121,11.59765168228622,10.620031397048692
11.996494409427838,0.07038558197446299,11.703851996256706,11.025090042707168
11.997198265247583,-0.2215121422715351,11.814102896683778,11.379021378792311
11.994983143824868,-0.4112750076920457,11.9278931104717,11.632664697223634
11.990870393747947,-0.4541899568265757,12.044219757443937,11.734001905761927
11.986328494179682,-0.32316612038223946,12.161559776501557,11.65193154384418
11.98309683297586,-0.02591582269853704,12.278079091939999,11.397647994150054
11.982837674748875,0.39727507632779807,12.3920555718815,11.02059673770155
11.986810425512154,0.8947447853750279,12.502261539258516,10.580570470517754
11.995757873365903,1.4234238304179327,12.608067243963694,10.122914625258018
12.009992111670083,1.9554024104950312,12.709296390216274,9.67185390949861
12.029546135775034,2.475197609003822,12.80601492931126,9.235488705594069
12.054298111865071,2.974952871019318,12.8983698163672,8.812772969373096
12.084047640575264,3.4508087507441085,12.986497546060932,8.398517301837023
12.118555728082706,3.9008076117702286,13.070482719079301,7.986225793342248
12.157563804200407,4.323862330249391,13.150344977012724,7.569526557665502
12.200802427502902,4.719329817026743,13.226040242589379,7.142839880969447
12.247995725673169,5.086895299053051,13.297468641399073,6.701661830034703
12.2988646786637,5.426601804268693,13.36448525969942,6.2426541372366975
12.353130696706387,5.7389351440403065,13.426911801071787,5.763628462337258
12.41052004814679,6.0249159224031965,13.48454808569516,5.2634633833171875
12.470769207370822,6.286172575613268,13.537182719528332,4.741971434762921
12.533630933126954,6.524982390682238,13.584602433875961,4.199727146910397
12.598880757033776,6.744275324495071,13.626599705345065,3.637867918731811
12.666323510278726,6.947599889612356,13.662978384532384,3.0578840277032997
12.73579950917485,7.1390514006787615,13.693557224809416,2.4614208196278033
12.807190023181638,7.323159379663331,13.718171433005693,1.8501257359594176
12.880421616978271,7.504720676979415,13.736672690365287,1.2255880594780821
12.955468823748065,7.688544157600885,13.748928570960068,0.5894455427573653
13.032354265324074,7.879035995911234,13.754823026387642,-0.05622202596204118
13.111144625283186,8.079495234704348,13.754260806128022,-0.7080170764319168
13.19193957763023,8.290907609714607,13.747180635363703,-1.3595673136541964
13.274848653727375,8.509957599935811,13.73358496222716,-1.9987089239967064
13.359948229726733,8.726075087828407,13.713597872987194,-2.603293502120559
13.447208980605017,8.918001796782884,13.687564937965988,-3.1363885545409413
13.536388998572846,9.052244706486656,13.656201052420577,-3.544354863517469
13.626911445637713,9.088561378673663,13.620757503785402,-3.7652359685126746
13.71779705942445,8.996794753163135,13.583105144100275,-3.7536084076696734
