th1 (rad),w1 (rad/s),th2 (rad),w2 (rad/s)
1.1434779392367131,-2.7671712832892834,0.655479375384488,-0.6374531664608487
1.1158062264038202,-2.897705761665585,0.6491048437198795,-0.5459887936792074
1.0868291687871643,-3.029302267312123,0.6436449557830874,-0.44992362832867894
1.056536146114043,-3.161729498559739,0.6391457194998007,-0.34975012060891214
1.0249188511284457,-3.294638465853162,0.6356482182937115,-0.24618580406415463
0.9919724664699141,-3.427527371299823,0.63318636025307,-0.14022650361420166
0.9576971927569159,-3.559701533863145,0.6317840952169279,-0.033205422359813025
0.9221001774182844,-3.690231006402524,0.6314520409933297,0.07314620953206757
0.8851978673542592,-3.8179111338172547,0.6321835030886505,0.17664509688246266
0.8470187560160867,-3.9412347521977567,0.6339499540574751,0.27462168277160826
0.8076064084941091,-4.058388513061535,0.6366961708851911,0.3639245071432433
0.7670225233634937,-4.1672886047528594,0.6403354159566236,0.4409857846607482
0.7253496373159651,-4.265670616369753,0.6447452738032311,0.501969891304853
0.6826929311522676,-4.351241585533404,0.6497649727162796,0.543016383618171
0.6391805152969335,-4.421887545177887,0.6551951365524613,0.5605673412950261
0.5949616398451547,-4.475908874224945,0.6608008099654116,0.5517377532741666
0.5502025511029053,-4.512235751049788,0.6663181874981532,0.5146579592259279
0.5050801935924074,-4.530568322226794,0.6714647670904125,0.448705314486212
0.45977451037013944,-4.531399639522693,0.6759518202352746,0.3545612540663161
0.4144605139749125,-4.515912249709527,0.6794974327759378,0.23407758970989082
0.36930139147781726,-4.485777412897081,0.6818382086730367,0.08999192717852028
0.32444361734884647,-4.442911071722609,0.6827381279448219,-0.07442995075732761
0.28001450663162036,-4.389242942247101,0.6819938284372487,-0.25574194204617273
0.23612207720914935,-4.326538130071247,0.6794364090167869,-0.45059626819588877
0.19285669590843688,-4.256286602343462,0.674930446334828,-0.6559278865962299
0.15029382988500226,-4.179655920643629,0.6683711674688657,-0.8690488480126349
0.10849727067856596,-4.0974918771713815,0.6596806789887394,-1.0876731207265284
0.06752235190685214,-4.0103493028555555,0.6488039477814741,-1.309896656447303
0.027418858878296586,-3.918537970259986,0.635704981217001,-1.5341542621334021
-0.011766520824303274,-3.8221729580754515,0.620363438595667,-1.759168775851821
-0.04998825040505779,-3.7212230711973207,0.6027717508371488,-1.9839020578651887
-0.08720048111703099,-3.6155541018768362,0.582932730258497,-2.207512659567111
-0.12335602213579935,-3.5049657872347804,0.5608576036628259,-2.429321921966899
-0.15840568000814714,-3.3892224957746193,0.5365643844431569,-2.648788407996599
-0.19229790496589333,-3.2680782539362947,0.510076500363191,-2.8654896019840783
-0.2249786875052563,-3.1412969520544864,0.4814216043433502,-3.0791093769156865
-0.25639165702580113,-3.008668624576567,0.45063051057419334,-3.289429590002233
-0.2864783432715668,-2.8700226960991446,0.417736214674171,-3.4963241583495437
-0.31517857023255824,-2.7252390916535214,0.38277297309067554,-3.699753988563928
-0.34243096114909344,-2.57425816747215,0.34577543320503623,-3.8997611235935383
-0.3681735428238149,-2.4170905521316515,0.30677782196910086,-4.096460383714317
-0.39234444834513144,-2.2538282140439403,0.2658132181319577,-4.2900265823297845
-0.41488273048557084,-2.0846584004760103,0.22291295230865985,-4.480675062601212
-0.4357293144903309,-1.9098825271868962,0.17810620168264774,-4.668632808899238
-0.4548281397621999,-1.729942616655648,0.13141987359365537,-4.854096744570963
-0.4721275659287564,-1.545458418967007,0.08287890614794574,-5.037175103651746
-0.4875821501184264,-1.3572787362118333,0.03250715511142828,-5.217807159752051
-0.5011549374805447,-1.1665503574511105,-0.019670916486092233,-5.395656562328649
-0.5128204410550559,-0.9748067337953519,-0.07362748210937872,-5.5699749508548635
-0.5225685083930094,-0.7840749639639497,-0.12932723161792736,-5.7394369111972665
-0.5304092580326489,-0.5969922007222064,-0.18672160072990002,-5.90195695158341
-0.536379180039871,-0.41690946001805235,-0.2457411702457341,-6.054516536314233
-0.5405482746400515,-0.2479414294090463,-0.3062863356088764,-6.193055364462684
-0.543027688934142,-0.09489879419100078,-0.36821688925350327,-6.312511531477273
-0.543976676876052,0.03697314351091052,-0.431342004568276,-6.407113996322736
-0.5436069454409429,0.14250670273933197,-0.4954131445315033,-6.4710075242869625
-0.5421818784135496,0.21735732175166134,-0.560123219774373,-6.499192291828386
-0.5400083051960329,0.25883668384523595,-0.6251151426926568,-6.488590024317583
-0.5374199383575806,0.26656674932052365,-0.6900010429358326,-6.438886478585678
-0.5347542708643754,0.24267861013835668,-0.7543899077216895,-6.352787146841345
-0.5323274847629919,0.19144116071891767,-0.8179177791901029,-6.235537533100889
-0.5304130731558027,0.11845661331991417,-0.8802731545211118,-6.093893012212392
-0.5292285070226035,0.029729418705289168,-0.9412120846432357,-5.93494329040928
-0.5289312128355506,-0.06910096013540855,-1.0005615175473286,-5.765167980400901
-0.5296222224369046,-0.17322103237468095,-1.0582131973513376,-5.589899255359426
-0.5313544327606514,-0.27880898875957977,-1.1141121899049318,-5.413165680128362
-0.5341425226482472,-0.3829969192322787,-1.1682438467062153,-5.237789440247303
-0.53797249184057,-0.4837300446875475,-1.2206217411086884,-5.065603062830619
-0.5428097922874455,-0.5795961639467075,-1.2712777717369945,-4.897691326381272
-0.5486057539269126,-0.6696659783615434,-1.3202546850008072,-4.7346083674203925
-0.555302413710528,-0.753360889389554,-1.3676007686750111,-4.576551639593819
-0.5628360226044236,-0.8303510747679741,-1.4133662850709494,-4.4234918184595555
-0.5711395333521033,-0.9004803719298975,-1.457601203255545,-4.2752651669621855
-0.5801443370714023,-0.9637125434041751,-1.500353854925167,-4.131636737543374
-0.589781462505444,-1.0200936049453444,-1.5416702223006007,-3.9923421334703884
-0.5999823985548975,-1.0697257725771714,-1.5815936436353046,-3.8571140640714634
-0.6106796562806692,-1.112749602487751,-1.6201647842760192,-3.725698386853579
-0.6218071523055467,-1.1493318030297086,-1.6574217681445549,-3.5978630257085653
-0.6333004703358438,-1.17965691845758,-1.6934003984016406,-3.4734021502570016
-0.6450970395204196,-1.2039216244582653,-1.7281344199042106,-3.352137266877424
-0.6571362557650023,-1.2223307671285755,-1.7616557925729848,-3.2339163510154267
-0.6693595634362881,-1.2350945546824248,-1.793994956083139,-3.1186117878057664
-0.6817105089831124,-1.242426505129622,-1.8251810739611967,-3.006117638585478
-0.6941347740344086,-1.2445418872016683,-1.8552422503470514,-2.8963465803315214
-0.7065801929064253,-1.241656483545122,-1.8842057161503667,-2.7892267487721973
-0.7189967577418764,-1.233985567376443,-1.9120979836380887,-2.6846986366219476
-0.7313366134156408,-1.2217430254085528,-1.9389449700043082,-2.582712144183515
-0.7435540436697263,-1.205140587251678,-1.9647720914461433,-2.483223842362319
-0.7556054495422431,-1.1843871390903846,-1.9896043298697665,-2.3861944824878987
-0.7674493209331469,-1.159688110342217,-2.0134662746946455,-2.291586769572034
-0.779046202036569,-1.1312449283771735,-2.036382142390366,-2.199363403298335
-0.7903586513203408,-1.0992545397377755,-2.058375776423349,-2.109485382489329
-0.8013511967177185,-1.0639089977082758,-2.079470630248242,-2.0219105629288867
-0.8119902866948012,-1.0253951162799555,-2.099689735877531,-1.936592454480915
-0.8222442378576008,-0.983894190062007,-2.1190556604223403,-1.8534792409250682
-0.8320831797582209,-0.9395817788469836,-2.1375904528315908,-1.7725130044663615
-0.8414789975466908,-0.8926275545930412,-2.1553155828762542,-1.693629136208911
-0.8504052730926212,-0.843195207685691,-2.172251874238343,-1.6167559138227092
-0.858837225169478,-0.7914424085831416,-2.1884194333765703,-1.5418142280296343
-0.8667516492553095,-0.7375208203824082,-2.2038375756568667,-1.4687174402754406
-0.8741268574591335,-0.6815761574889663,-2.218524750059621,-1.3973713549455145
-0.8809426190340232,-0.6237482854308163,-2.232498463609076,-1.3276742906481998
-0.8871801018883313,-0.5641713569146026,-2.245775206515558,-1.2595172363687621
-0.8928218154574773,-0.5029739794544474,-2.2583703788792455,-1.192784079639477
-0.8978515552520218,-0.4402794102861479,-2.2702982196756403,-1.1273518952368278
-0.9022543493548832,-0.37620577478097794,-2.2815717386280085,-1.0630912842741707
-0.906016407102693,-0.31086630516503844,-2.2922026514707503,-0.9998667548840673
-0.9091250701543434,-0.24436959700357996,-2.302201319019591,-0.9375371369621596
-0.9115687661243792,-0.17681988159866496,-2.3115766903892125,-0.8759560246631747
-0.9133369649403659,-0.108317313149107,-2.3203362506358443,-0.8149722414933582
-0.914420138071857,-0.038958270212672744,-2.328485973050778,-0.7544303239301303
-0.9148097207739837,0.03116432832641118,-2.3360302762900793,-0.6941710205196031
-0.9144980774907195,0.10196069196246359,-2.342971986495275,-0.6340318043581942
-0.9134784705710949,0.1733438105620871,-2.349312304538857,-0.573847397759198
-0.911745032465474,0.24522908777043922,-2.355050778516449,-0.5134503087421575
-0.9092927415877696,0.3175339535405793,-2.3601852816038704,-0.4526713797647191
-0.9061174020523638,0.3901774531710493,-2.3647119954015174,-0.3913403498443426
-0.9022156275206533,0.4630798100071413,-2.368625398899961,-0.32928643188955864
-0.8975848294205819,0.5361619588345448,-2.3719182632188565,-0.2663389076734505
-0.8922232098322365,0.6093450469773403,-2.374581652295591,-0.2023277434284403
-0.8861297593624631,0.6825499002128217,-2.3766049297298752,-0.13708422951041208
-0.8793042603603348,0.7556964508410047,-2.3779757720249792,-0.07044164795690373
-0.8717472958519248,0.8287031256051282,-2.378680188504548,-0.0022359720296452473
-0.8634602645958736,0.9014861916599314,-2.3787025482248447,0.06769339803691451
-0.8544454026792743,0.973959059436654,-2.378025614244476,0.13950285888931258
-0.8447058120849077,1.0460315420678352,-2.3766305856555827,0.21334378354109357
-0.8342454966642293,1.1176090720216298,-2.374497147820172,0.2893616529691138
-0.823069405944013,1.1885918767648274,-2.371603531290481,0.3676951370085055
-0.8111834871763648,1.258874116635385,-2.367926579920396,0.44847512274564694
-0.7985947460100109,1.3283429896663659,-2.3634418286929395,0.5318236899582169
-0.7853113161133473,1.3968778098676626,-2.3581235917933574,0.6178530348766424
-0.7713425380146707,1.4643490674387518,-2.351945061444591,0.706664345675205
-0.7566990473402831,1.5306174815469797,-2.344878417987839,0.7983466356710243
-0.7413928725248133,1.595533058644362,-2.3368949516311286,0.8929755432336143
-0.7254375419383697,1.6589341717827042,-2.3279651961987926,0.9906121108932577
-0.7088482002205427,1.7206466789787518,-2.31805907508986,1.0913015600742055
-0.6916417334307552,1.7804831013175715,-2.307146059489118,1.1950720822406653
-0.6738369024175794,1.8382418840830772,-2.295195338666711,1.3019336719788002
-0.6554544835767486,1.89370676666668,-2.2821760019469233,1.4118770325691428
-0.6365174159100818,1.9466462892011407,-2.2680572316212317,1.524872589823832
-0.6170509530180704,1.996813465643643,-2.2528085057229936,1.6408696552325992
-0.597082818361634,2.043945654210551,-2.236399809170668,1.7597957846074757
-0.5766433618195285,2.087764656441893,-2.218801851324593,1.8815563832322026
-0.5557657152551095,2.1279770755197633,-2.199986287492271,2.006034612770103
-0.5344859444999119,2.1642749625380575,-2.1799259413645697,2.133091658598548
-0.5128431948745313,2.1963367759684727,-2.158595024778584,2.2625674185344384
-0.4908798271148466,2.223828674338813,-2.1359693505932396,2.3942816748005833
-0.4686415403714585,2.2464061548998524,-2.1120265338452335,2.5280358102721365
-0.44617747882245995,2.263716041606889,-2.0867461757425123,2.663615127277915
-0.42354031840639106,2.275398813939127,-2.0601100244697332,2.8007918223094337
-0.4007863302669998,2.281091253864347,-2.032102106246639,2.93932866279109
-0.3779754177283563,2.2804293716787587,-2.002708819618728,3.078983402588008
-0.3551711240115687,2.273051552702704,-1.971918985592848,3.2195139613318924
-0.33244060848454166,2.2586018462484483,-1.9397238459795292,3.360684379285848
-0.3098545900220572,2.2367332964409203,-1.9061170021866707,3.5022715449359016
-0.287487257057648,2.2071111921104474,-1.8710942867373117,3.644072677639204
-0.26541614513654355,2.1694160910325184,-1.8346535599609197,3.785913533594052
-0.24372198422621835,2.123346453391763,-1.7967944246249792,3.927657291491568
-0.2224885196923007,2.068620701778248,-1.7575178517100636,4.06921406601863
-0.20180231267451823,2.0049785116840777,-1.7168257110498772,4.2105509945346915
-0.18175252755767746,1.9321811288485642,-1.6747202011045303,4.351702846248804
-0.1624307162691918,1.8500105095006933,-1.6312031726420424,4.492783115163563
-0.14393061117418487,1.758267088393343,-1.5862753414904067,4.633995578139164
-0.12634794029025145,1.656765999875245,-1.539935385709015,4.775646326300347
-0.109780280291499,1.5453316126536676,-1.4921789224460116,4.918156307637814
-0.09432696416496232,1.4237902953454087,-1.4429973593696335,5.062074442594466
-0.08008906121150823,1.2919614180520582,-1.392376614943689,5.208091376849397
-0.06716944703098765,1.1496467342880823,-1.340295701175195,5.357053888152281
-0.055672979688106826,0.9966185123075042,-1.2867251622936722,5.5099798173921375
-0.04570679456503178,0.8326071570209785,-1.2316253641197508,5.66807306185656
-0.037380722994821994,0.6572896923435569,-1.1749446335011853,5.83273750075744
-0.030807826071386425,0.4702815496739279,-1.116617258493611,6.005587458444225
-0.026105010574647147,0.271135961378532,-1.0565613839091688,6.188449996449299
-0.023393650960861826,0.059358451945994234,-0.9946768839446758,6.383350183718145
-0.022800066441401885,-0.165550607950975,-0.9308433821074944,6.592463216631544
-0.024455572520911635,-0.4040031757704663,-0.864918749941179,6.818004737887149
-0.028495604278616297,-0.6561430602901607,-0.7967387025623075,7.062009827224077
-0.0350570348815179,-0.9215168768199675,-0.7261186042900667,7.325918233936768
-0.044272203649717574,-1.1985030831055614,-0.652859421950699,7.609837120598002
-0.05625723448077319,-1.4833732482674797,-0.576761050744719,7.911303897681411
-0.071090966963448,-1.768865190656401,-0.49764801176790485,8.22337128842109
-0.08877961887001201,-2.0422979151492133,-0.41541429888369397,8.5320299474875
-0.10920259802150414,-2.283764939511493,-0.33009399940881895,8.813662672703941
-0.13204024741661907,-2.4659964596647614,-0.24195737268177953,9.034658672023332
-0.1567002120132667,-2.5585868488317383,-0.1516107859615462,9.156842194421102
-0.18228608050158407,-2.5381999675097626,-0.060042364017335176,9.150923408455434
-0.2076680801766817,-2.40064286349848,0.03146687006721917,9.01241753467401
-0.2316745088116665,-2.1648167092311064,0.12159104541395926,8.766568407854052
-0.25332267590397756,-1.8636173065005521,0.2092567294924998,8.45586875749127
-0.2719588489689831,-1.5298028888512345,0.2938154170674125,8.12128009626771
-0.28725687785749543,-1.1874270956981947,0.37502821803008957,7.7913283933780555
-0.2991311488144774,-0.8507651769731668,0.4529415019638701,7.4812729050180815
-0.30763880058420906,-0.5268772283381775,0.527754231014051,7.196915111736642
-0.31290757286759086,-0.21851326184858155,0.5997233821314174,6.938627138182399
-0.31509270548607665,0.07380941649058936,0.6691096535132414,6.704132825883873
-0.31435461132117076,0.35057577369022225,0.73615098177208,6.490101428770457
-0.31084885358426856,0.6126177048451735,0.8010519960597846,6.292964314242224
-0.3047226765358168,0.8607930887722552,0.8639816392022068,6.109295598568448
-0.29611474564809426,1.095844915695308,0.9250745951878913,5.935968142947137
-0.28515629649114116,1.3183529740873565,0.9844342766173626,5.770201216620799
-0.2719727667502676,1.5287312634330654,1.0421362887835706,5.609559826631733
-0.25668545411593696,1.7272468142175865,1.098231887049888,5.451935242626222
-0.2394129859737611,1.9140475010027613,1.15275123947615,5.295520481659497
-0.2202725109637335,2.089192572257331,1.205706444292745,5.138786591405943
-0.19938058524116017,2.2526827315055713,1.2570943102068044,4.98046169334971
-0.17685375792610447,2.4044881595477885,1.3068989271403015,4.81951293357406
-0.1528088763306266,2.544573638819415,1.355094056476042,4.655130718409099
-0.12736313994243245,2.6729203284532863,1.4016453636601331,4.486714366955321
-0.10063393665789959,2.7895439471124526,1.4465125073296863,4.313858328314
-0.07273849718677507,2.8945092524681253,1.4896510906128262,4.136338252149716
-0.04379340466209382,2.9879408095656013,1.5310144731343234,3.954096395030245
-0.013913996566437804,3.0700301350662063,1.5705554370846257,3.767226052173017
0.01678630478422426,3.141039395663133,1.6082276976063559,3.57595490181211
0.048196698740855595,3.201301925054203,1.643987246624477,3.3806273236339313
0.08020971799139762,3.251219900269291,1.6777935198608163,3.1816858955317735
0.11272191699409052,3.2912595802111264,1.709610378816134,2.9796523801686345
0.1456345127962018,3.3219445533208707,1.7394069026178205,2.7751085833925644
0.1788539583294105,3.343847465239784,1.767157988451746,2.568677501661853
0.21229243298180833,3.357580700779831,1.7928447634683646,2.361005178376888
0.24586823998960664,3.3637864785002507,1.8164548152521336,2.1527436637910142
0.27950610477460913,3.363126782961496,1.8379822518900437,1.9445354252995628
0.3131373726042241,3.356273512386595,1.8574276061430393,1.7369994902211716
0.34670010772809,3.3438991616118905,1.874797601045251,1.5307195277083316
0.3801390993442089,3.326668295676543,1.8901047963223343,1.3262339960533345
0.41340578230097436,3.3052300019514167,1.9033671362828677,1.1240284018913407
0.4464580823204885,3.2802114418250454,1.914607420301781,0.9245296434958963
0.479260196738739,3.252212559647716,1.92385271673674,0.7281023455094359
0.5117823223352161,3.221801949249874,1.9311337401918345,0.5350470400445684
0.5440003418277148,3.189513828526398,1.9364842105922802,0.3456000110552349
0.5758954801129789,3.155846031158486,1.9399402107028325,0.15993459609322827
0.6074539404245637,3.121258891601988,1.9415395566637648,-0.02183626800257546
0.6386665293405835,3.0861748743665367,1.941321193983739,-0.19965646205002519
0.6695282780842489,3.0509787800961106,1.9393246293632387,-0.37352225055705657
0.70003806588521,3.0160183473068307,1.9355894068576682,-0.5434771514032812
0.7301982493582783,2.9816050577599804,1.9301546353436354,-0.7096062214183971
0.7600142999358781,2.948014943049407,1.9230585731294514,-0.8720298184896237
0.7894944493663721,2.915489177683496,1.9143382749445552,-1.0308968406083163
0.8186493411432071,2.8842342274350767,1.9040293065384721,-1.1863773737150618
0.8474916834175579,2.8544212989912183,1.8921655328013216,-1.338654603328252
0.87603589640747,2.826184806550876,1.8787789867680391,-1.4879157598874035
0.9042977444729788,2.7996195327846314,1.863899829169165,-1.6343417756024703
0.9322939398008252,2.774776117485297,1.8475564114131404,-1.778095234852291
0.9600417009756782,2.7516544631851154,1.8297754590646176,-1.9193061090757957
0.9875582456075294,2.730194615451615,1.8105823979738596,-2.058054697474847
1.0148601917620454,2.7102646795698355,1.7900018509991111,-2.194351177754208
1.0419628385577437,2.6916454141274118,1.768058339221569,-2.3281112596239475
1.0688792926990178,2.674011357716213,1.7447772266253294,-2.4591277122037294
1.09561940627618,2.6569087880700404,1.720185949503292,-2.587038128243761
1.1221884941568803,2.639731601632234,1.6943155682208544,-2.71129035478191
1.1485858101732027,2.6216974632260914,1.6672026646730354,-2.831108735896221
1.1748027848054636,2.6018283923425956,1.638891577314073,-2.9454667904422864
1.2008210687288896,2.578942247467205,1.6094369094096501,-3.0530750777121893
1.2266104912035616,2.551663921591713,1.5789061586325281,-3.1523962024332377
1.2521271304194788,2.518466490673536,1.5473821966081958,-3.241700820918947
1.277311795326214,2.4777514380279286,1.5149651883990063,-3.319176888191985
1.3020893097064934,2.4279714972294606,1.4817734195170864,-3.38309659716365
1.326369024678788,2.3677885354205537,1.44794245354545,-3.4320300501704093
