th1 (rad),w1 (rad/s),th2 (rad),w2 (rad/s),a1 (rad/s^2),a2 (rad/s^2)
3.139284168794086,-0.8265472723917358,0.34581454133252554,-1.2594937817196803,-3.1261040135858886,-6.02736602424192
3.1310186960701683,-0.8578083125275946,0.33321960351532875,-1.3197674419620995,-3.2136080924825365,-5.982990114079803
3.1224406129448923,-0.8899443934524199,0.32002192909570776,-1.3795973431028976,-3.301918217493519,-5.933258350030145
3.113541169010368,-0.9229635756273551,0.3062259556646788,-1.438929926603199,-3.390840895030279,-5.877996037763659
3.1043115332540947,-0.9568719845776579,0.2918366563986468,-1.4977098869808356,-3.480182641581273,-5.817037699698451
3.094742813408318,-0.9916738109934706,0.27685955752883845,-1.5558802639778202,-3.5697533040221465,-5.750231223943771
3.0848260752983836,-1.027371344033692,0.26130075488906024,-1.613382576217258,-3.659369587173194,-5.6774422126029895
3.074552361858047,-1.063965039905424,0.24516692912688764,-1.670156998343288,-3.748858753241488,-5.598558476108479
3.0639127114589924,-1.1014536274378388,0.22846535914345475,-1.7261425831043729,-3.838062446334134,-5.513494606356209
3.052898175184614,-1.1398342519011802,0.21120393331241102,-1.781277529167935,-3.9268405834079902,-5.422196547348306
3.041499832665602,-1.1791026577352601,0.19339115802073167,-1.835499494641418,-4.0150752412430215,-5.3246460683574455
3.0297088060882498,-1.2192534101476904,0.1750361630743175,-1.8887459553249926,-4.1026744577746115,-5.220865031887155
3.0175162719867727,-1.2602801547254365,0.15614870352106758,-1.940954605643864,-4.189575855933179,-5.11091933755526
3.004913470439518,-1.3021759132847683,0.13673915746462895,-1.9920637990194165,-4.275749989587465,-4.994922414130975
2.9918917113066703,-1.344933413180643,0.11681851947443478,-2.042013023160726,-4.361203304842734,-4.873038125946811
2.978442377174864,-1.3885454462290703,0.09639838924282751,-2.090743404420194,-4.445980606344172,-4.745482957359086
2.9645569227125734,-1.433005252292512,0.07549095519862557,-2.138198233993785,-4.5301669178412265,-4.612527340308654
2.950226870189648,-1.4783069214709244,0.05410897285868772,-2.184323507396871,-4.613888629424662,-4.474495995641032
2.935443800974939,-1.524445807765171,0.032265737784719015,-2.2290684673532817,-4.697313830741511,-4.331767168783915
2.920199342897287,-1.571418946072586,0.009975053111186197,-2.272386139041121,-4.780651740117003,-4.184770654513319
2.9044851534365614,-1.619225463473756,-0.012748808279225012,-2.314233845586254,-4.86415115364253,-4.033984523470172
2.888292898801824,-1.6678669750101813,-0.03589114673508755,-2.354573690820956,-4.9480978554714286,-3.879930484154951
2.871614229051722,-1.7173479535648957,-0.059436883643297106,-2.393372995662505,-5.032810950120565,-3.723167837416794
2.854440749516073,-1.7676760630661013,-0.08337061359992215,-2.430604674036673,-5.118638098627854,-3.5642860048427956
2.836763988885412,-1.8188624440523797,-0.10767666034028889,-2.4662475340851007,-5.205949661925314,-3.4038956366671793
2.8185753644448885,-1.8709219406716329,-0.1323391356811399,-2.5002864904517725,-5.295131775618531,-3.242618327510749
2.7998661450381723,-1.9238732584278182,-0.15734200058565762,-2.53271267372688,-5.386578399353385,-3.0810749880998825
2.780627412453894,-1.9777390424213521,-0.18266912732292642,-2.563523423607879,-5.480682399993815,-2.9198729368958447
2.7608500220296808,-2.03254586642129,-0.20830436155900522,-2.5927221529768376,-5.5778257399646565,-2.7595917863088335
2.740524563365468,-2.0883241238209367,-0.2342315830887736,-2.620318070839926,-5.678368849589254,-2.6007682032209263
2.7196413221272584,-2.1451078123168292,-0.26043476379717284,-2.6463257528721353,-5.782639264624422,-2.4438796226492068
2.69819024400409,-2.2029342049630736,-0.2868980213258942,-2.6707645490986276,-5.890919607371559,-2.289326986774439
2.6761609019544594,-2.2618434010367894,-0.31360566681688046,-2.693657818966372,-6.003434982019382,-2.137416569992901
2.6535424679440913,-2.321877750856983,-0.3405422450065442,-2.715031984666301,-6.120339842965464,-1.9883409354245196
2.6303236904355214,-2.3830811492866375,-0.36769256485320717,-2.7349153940205464,-6.2417043799037035,-1.842159051293484
2.606492878942655,-2.4454981930856747,-0.39504171879341266,-2.7533369845334814,-6.367500447001269,-1.6987755792140218
2.5820378970117983,-2.5091731975556875,-0.4225750886387475,-2.7703247403256217,-6.497587047466314,-1.5579193336395023
2.5569461650362415,-2.5741490680303505,-0.4502783360420037,-2.785903933662017,-6.631695371557867,-1.419120906092983
2.531204674355938,-2.640466021745929,-0.47813737537862383,-2.8000951427229466,-6.769413378315648,-1.2816894533657857
2.5048000141384787,-2.7081601555290855,-0.5061383268058532,-2.8129120372566043,-6.910169912077023,-1.1446886702941745
2.477718412583188,-2.7772618546498555,-0.5342674471784193,-2.824358923959546,-7.05321835768796,-1.006912010251081
2.4499457940366893,-2.847794038226735,-0.5625110364180148,-2.8344280440620566,-7.197619867136399,-0.8668572860155231
2.421467853654422,-2.919770236898099,-0.5908553168586353,-2.843096616922212,-7.34222623956816,-0.7227008867917871
2.392270151285441,-2.9931924992937806,-0.6192862830278575,-2.85032362579013,-7.485662611273988,-0.572271991128259
2.3623382262925032,-3.0680491254065205,-0.6477895192857588,-2.8560463457014125,-7.6263102178494115,-0.4130273482698161
2.331657735038438,-3.1443122275850146,-0.6763499827427729,-2.8601766191841107,-7.7622896335164,-0.24202745048256832
2.3002146127625878,-3.221935123920179,-0.704951748934614,-2.8625968936889366,-7.891445079253177,-0.05591523462780754
2.267995261523386,-3.3008495747127107,-0.7335777178715034,-2.863156046035215,-8.011330628851248,0.14910115935350512
2.234986765776259,-3.3809628810012233,-0.7622092783318556,-2.8616650344416796,-8.119199436983804,0.37725957621451073
2.2011771369662467,-3.4621548753710614,-0.7908259286762724,-2.8578924386795346,-8.211997471325128,0.6332464311220047
2.1665555882125362,-3.544274850084313,-0.8194048530630678,-2.8515599743683144,-8.286363654548035,0.9221875150593104
2.131112839711693,-3.6271384866297933,-0.8479204528067509,-2.8423380992177214,-8.338638809576821,1.2496231473780033
2.094841454845395,-3.7105248747255617,-0.8763438337989281,-2.829841867743941,-8.364886342532673,1.6214630742095835
2.0577362060981392,-3.794173738150888,-0.9046422524763675,-2.8136272370018456,-8.36092816941789,2.043915800778023
2.0197944687166305,-3.877783019845067,-0.932778524846386,-2.7931880789940653,-8.322399953162073,2.523386437017228
1.9810166385181798,-3.9610070193766878,-0.9607104056363267,-2.767954214623893,-8.244830199750487,3.0663367544420654
1.9414065683244128,-4.043455321374193,-0.9883899477825656,-2.737290847079472,-8.123748064399763,3.6791011740531943
1.9009720151106708,-4.12469280201819,-1.0157628562533603,-2.70049983533894,-7.954824698218636,4.367653064474349
1.859725087090489,-4.204241049000377,-1.0427678546067496,-2.6568233046941967,-7.734052433253404,5.1373173195476625
1.8176826766004852,-4.281581573332911,-1.0693360876536915,-2.60545013149872,-7.45796482578594,5.992428044420441
1.774866860867156,-4.356161221590771,-1.0953905889686786,-2.545525851054516,-7.123898291251008,6.935934659708752
1.7313052486512484,-4.4274002045032805,-1.1208458474792238,-2.4761665044574284,-6.730292511600959,7.968966131123808
1.6870312466062156,-4.49470312961929,-1.145607512523798,-2.3964768431461905,-6.277021788064645,9.090371481807367
1.6420842153100228,-4.557473347499936,-1.16957228095526,-2.305573128328117,-5.76574302406247,10.296265068426347
1.5965094818350234,-4.615130777740561,-1.192628012238541,-2.2026104776438533,-5.200238320776474,11.57961662450031
1.5503581740576178,-4.6671331609483255,-1.2146541170149796,-2.08681431139885,-4.586721949248587,12.929937440629272
1.5036868424481344,-4.713000380440811,-1.2355222601289682,-1.9575149369925575,-3.9340739713489823,14.33312311427949
1.4565568386437264,-4.752341120154301,-1.2550974094988938,-1.8141837058497625,-3.25395782999114,15.77151718049586
1.4090334274421834,-4.784880698454213,-1.2732392465573914,-1.656468534044804,-2.560779047861728,17.2242553587309
1.3611846204576412,-4.8104884889328305,-1.2898039318978394,-1.484225980457495,-1.8714490165288964,18.6679341757999
1.3130797355683128,-4.8292029790981195,-1.3046461917024144,-1.297546638699496,-1.2049333367861044,20.07761880138384
1.2647877057773316,-4.84125231246598,-1.3176216580894093,-1.0967704506856577,-0.5815884291039861,21.42816412372101
1.2163751826526719,-4.84706819675702,-1.328589362596266,-0.8824888094484475,-0.02232109115042839,22.69577502287591
1.1679045006851017,-4.847291407668524,-1.3374142506907505,-0.6555310592196885,0.45236126745007876,23.859684766984433
1.1194315866084164,-4.842767794994023,-1.3439695612829474,-0.4169342115498441,0.8233134598159195,24.903795239704458
1.0710039086584762,-4.834534660395864,-1.3481389033984459,-0.16789625915279954,1.0736153611940096,25.818109963645767
1.0226585620545174,-4.823798506783924,-1.3498178659899738,0.09028484048365815,1.189222167736367,26.59980774548102
0.9744205769866782,-4.81190628510656,-1.3489150175851372,0.35628291793846834,1.159309092454581,27.253851819574837
0.9263015141356126,-4.8003131941820145,-1.3453521884057524,0.6288214361342167,0.9762531211111449,27.793099426662618
0.8782983821937924,-4.790550662970903,-1.3390639740444104,0.906752430400843,0.6352383985083454,28.237956326771503
0.8303928755640834,-4.784198278985819,-1.329996449740402,1.189131993668558,0.13351398015697497,28.615693841280375
0.7825508927742252,-4.78286313918425,-1.3181051298037163,1.4752889320813618,-0.5306365416152737,28.959599076933948
0.7347222613823827,-4.788169504600402,-1.3033522404829028,1.7648849228507013,-1.3591410077934711,29.308154757759564
0.6868405663363787,-4.801760914678337,-1.2857033912543958,2.0579664704282967,-2.3555341229868807,29.70444412396729
0.6388229571895954,-4.825316255908207,-1.2651237265501127,2.3550109116679696,-3.526459095396965,30.195955578294928
0.5905697946305133,-4.8605808468621765,-1.241573617433433,2.656970467450919,-4.883265290909822,30.83493083984129
0.5419639861618916,-4.909413499771275,-1.2150039127589238,2.965319775849332,-6.443726263173517,31.679366808301104
0.4928698511641788,-4.97385076240301,-1.1853507150004305,3.282113443932343,-8.233926881134886,32.79474448577358
0.4431313435401487,-5.056190031214358,-1.152529580561107,3.610060888790079,-10.290362931645388,34.25650024046488
0.39256944322800513,-5.159093660530812,-1.1164289716732063,3.952625891194728,-12.66222092144902,36.153121882113545
0.340978506622697,-5.285715869745302,-1.076902712761259,4.314157110015864,-15.413566119355542,38.5894124429485
0.288121347925244,-5.439851530938857,-1.0337611416611003,4.700051234445349,-18.624541104990925,41.68860513042148
0.23372283261585544,-5.6260969419887665,-0.9867606293166469,5.116937285749564,-22.389138704760775,45.58989539476387
0.17746186319596777,-5.849988329036374,-0.9355912564591512,5.572836239697202,-26.80342687099575,50.432852169793996
0.11896197990560403,-6.118022597746331,-0.8798628940621792,6.077164761395142,-31.929458713591746,56.30814667356125
0.057781753928140715,-6.437317184882249,-0.8190912464482278,6.640246228130755,-37.70063370889728,63.1268679771093
-0.006591417920681776,-6.814323521971222,-0.7526887841669203,7.271514907901848,-43.694690999818846,70.305289816498
-0.07473465314039399,-7.25127043196941,-0.6799736350879019,7.974567806066828,-48.64221114457184,76.08004813229037
-0.1472473574600881,-7.737692543415129,-0.6002279570272336,8.735368287389731,-49.56379306582055,76.30323759963652
-0.2246242828942394,-8.233330474073334,-0.5128742741533363,9.498400663386096,-41.049755481103126,63.43520637666163
-0.3069575876349728,-8.643828028884366,-0.41789026751947533,10.132752727152713,-17.40408479213795,29.545702460666394
-0.3933958679238164,-8.817868876805745,-0.31656274024794817,10.428209751759377,18.659374635955746,-21.521835698662933
-0.4815745566918739,-8.631275130446188,-0.2122806427303544,10.212991394772748,50.378575323343824,-66.3186192429095
-0.5678873079963358,-8.127489377212749,-0.11015072878262692,9.549805202343654,63.63655713766526,-85.19962594855863
-0.6491622017684633,-7.4911238058360965,-0.01465267675919038,8.697808942858067,61.69090843907988,-82.8050972965885
-0.7240734398268243,-6.8742147214452975,0.0723254126693903,7.8697579698921825,53.853859374914975,-72.14715324742443
-0.7928155870412772,-6.335676127696148,0.15102299236831213,7.148286437417938,45.46306192712031,-60.65350750123391
-0.8561723483182386,-5.881045508424945,0.22250585674249151,6.5417513624055985,38.24145584630581,-50.71388943493975
-0.914982803402488,-5.498630949961887,0.28792337036654747,6.034612468056201,32.42772347180466,-42.6572448356791
-0.969969112902107,-5.174353715243841,0.34826949504710947,5.60804001969941,27.835848758664362,-36.2246946807894
-1.0217126500545455,-4.895995227657197,0.4043498952441036,5.245793072891516,24.215209578932345,-31.068201860725505
-1.0706726023311175,-4.653843131867874,0.4568078259730187,4.935111054284261,21.34805770423872,-26.8849997421893
-1.1172110336497962,-4.440362554825487,0.5061589365158613,4.666261056862368,19.06514376472477,-23.438964561191792
-1.1616146591980512,-4.249711117178239,0.5528215470844849,4.43187141125045,17.239597185091622,-20.55215412257546
-1.2041117703698336,-4.077315145327323,0.5971402611969895,4.226349870024695,15.777169120742032,-18.091490282121892
-1.2448849218231068,-3.9195434541199026,0.6394037598972364,4.045434967203476,14.607628571813548,-15.957161955356122
-1.284080356364306,-3.7734671684017673,0.6798581095692712,3.8858633476499147,13.67812563076506,-14.073855351638016
-1.3218150280483236,-3.6366859120941166,0.7187167430457704,3.7451247941335346,12.948278884531089,-12.38447289146551
-1.3581818871692648,-3.507203123248806,0.7561679909871057,3.6212800652188797,12.386561206630402,-10.845754086795003
-1.393253918401753,-3.3833375111825017,0.7923807916392945,3.5128225243509297,11.967610908033569,-9.425279659441934
-1.4270872935135779,-3.263661402102166,0.8275090168828039,3.4185697277565104,11.67019158846055,-8.099459845179776
-1.4597239075345996,-3.1469594862175607,0.861694714160369,3.3375751293047125,11.475612582792921,-6.852207974394287
-1.4911935023967753,-3.0322033603896315,0.8950704654534162,3.2690530495607697,11.366493528442463,-5.674068642083268
-1.5215155360006716,-2.918538425105207,0.9277609959490238,3.212312363139937,11.32581313010119,-4.5616103834454105
-1.5507009202517237,-2.805280293804195,0.9598841195804232,3.166696259305483,11.336226476224416,-3.516914395269143
-1.5787537231897657,-2.691918029041951,0.991551082173478,3.1315271153527915,11.37966798495095,-2.547003515477516
-1.605672903480185,-2.5781213491924415,1.022866353327006,3.1060570801980165,11.437276196282982,-1.6630703611942343
-1.6314541169721095,-2.463748587229612,1.0539269241289861,3.0894263765860743,11.489677985195593,-0.8793915462833342
-1.6560916028444057,-2.348851807377656,1.0848211878948468,3.080632461123241,11.517648732536381,-0.21186599361394212
-1.6795801209181822,-2.233675320052292,1.1156275125060793,3.0785138011871016,11.503119477955888,0.3238059050619522
-1.7019168741187052,-2.1186441252727333,1.1464126505179504,3.081751860237721,11.43043618587595,0.7141842686607314
-1.7231033153714326,-2.0043397634139737,1.1772301691203275,3.0888937029243286,11.28770309850398,0.9501691709245469
-1.7431467130055722,-1.891462732428934,1.2081191061495709,3.0983953946335743,11.067983661829928,1.0287938908796173
-1.7620613403298615,-1.7807828958106346,1.2391030600959065,3.1086833335423703,10.770114217167457,0.9544081225194219
-1.7798691692879678,-1.6730817536389602,1.2701898934313303,3.1182274147675644,10.398926625440918,0.7389908526507705
-1.7965999868243574,-1.5690924873845509,1.301372167579006,3.125617323294072,9.96477772035828,0.40147869629266003
-1.8122909116982029,-1.469444710180968,1.3326283408119468,3.1296321102569986,9.482424078282477,-0.03380921193013914
-1.8269853588000127,-1.3746204693981432,1.363924661914517,3.1292940181376974,8.969419719716592,-0.5393813344044346
-1.840731563493994,-1.2849262722009773,1.395217602095894,3.123900204793653,8.444308683424088,-1.0870300332520453
-1.8535808262160038,-1.2004831853667364,1.4264566041438305,3.1130299044611327,7.924906191475547,-1.650127176868096
-1.8655856580696712,-1.121234123451981,1.4575869031884419,3.096528632692452,7.426910656943468,-2.2054337081584907
-1.876797999304191,-1.0469650168825462,1.4885521895153664,3.074474295610867,6.962988533505256,-2.734242405495667
-1.8872676494730165,-0.9773351315474936,1.5192969324714751,3.0471318715559104,6.542361423588541,-3.222829452251723
-1.8970410007884915,-0.9119115173116082,1.5497682511870343,3.014903577033393,6.1708323586168445,-3.662314881003601
-1.9061601159616075,-0.8502031937254398,1.5799172869573683,2.978280428223357,5.851133546661758,-4.048101943694531
-1.914662147898862,-0.7916918582588223,1.609700091239602,2.937799408786412,5.5834626445665885,-4.379080985263016
-1.9225790664814502,-0.7358572318131564,1.639078085327466,2.8940085989337816,5.3660889761478705,-4.6567593516530845
-1.9299376387995817,-0.6821963420516777,1.6680181713168039,2.8474410054172505,5.1959412499947275,-4.884434861295134
-1.9367596022200986,-0.6302369295517304,1.6964925813709764,2.7985966568042993,5.069122002884619,-5.06648313225565
-1.9430619715156159,-0.5795457095228842,1.7244785479390194,2.747931825481743,4.981323272066106,-5.207789040968431
-1.9488574286108447,-0.5297324768022231,1.7519578661938369,2.6958539350720585,4.9281393769376365,-5.313324079916739
-1.9541547533788668,-0.4804510830328468,1.7789164055445574,2.642720694272891,4.905285888540603,-5.387854330280396
-1.9589592642091953,-0.4313982241474408,1.8053436124872864,2.5888421509700867,4.908740342288169,-5.435755887569493
-1.9632732464506697,-0.3823108207245591,1.8312320339969872,2.5344845920943917,4.934822024460308,-5.460912962692068
-1.9670963546579152,-0.332962600479956,1.8565768799179312,2.479875462467471,4.9802271140813765,-5.46667591187779
-1.9704259806627147,-0.28316032933914226,1.8813756345426058,2.425208703348693,5.042033027119574,-5.455860171796532
-1.9732575839561062,-0.2327399990679465,1.9056277215760928,2.3706501016307278,5.11768294496618,-5.430771223652818
-1.9755849839467856,-0.18156316961828473,1.9293342225924002,2.3163423893941997,5.20495876627291,-5.393244571673193
-1.9774006156429684,-0.12951358195555562,1.9524976464863422,2.2624099436774676,5.301948365318486,-5.344692975170657
-1.978695751462524,-0.07649409830237076,1.9751217459231167,2.208963013925761,5.4070111548016415,-5.286155736060955
-1.9794606924455478,-0.02242398675435435,1.9972113760623744,2.1561014565651515,5.5187445194757885,-5.218346760406039
-1.9796849323130914,0.032763458440403535,2.018772390628026,2.1039179889610913,5.635952645955165,-5.141699484368708
-1.9793572977286873,0.08912298489995518,2.039811570517637,2.052500994117404,5.757618545742917,-5.056407696701231
-1.9784660678796877,0.14669917035738436,2.060336580458811,2.001936917150392,5.882879578482479,-4.962461908368227
-1.9769990761761138,0.20552796614220914,2.0803559496303152,1.9523122980667096,6.011006466703148,-4.859681304886778
-1.9749437965146917,0.26563803080924064,2.099879072610982,1.9037154850178417,6.141385600833865,-4.747741539241429
-1.9722874162065993,0.3270518868175793,2.1189162274611606,1.8562380696254275,6.273504325104695,-4.626198736153405
-1.9690168973384234,0.38978693006862625,2.137478608157415,1.8099760822638935,6.40693884262219,-4.49451012088833
-1.965119028037737,0.45385631849484814,2.155578368980054,1.7650309810550102,6.541344361123295,-4.352051685126603
-1.9605804648527887,0.5192697621060811,2.173228678790604,1.7215104642037442,6.67644710568178,-4.198133277591756
-1.955387767231728,0.5860342331628989,2.1904437834326416,1.6795291314278267,6.8120378415572524,-4.032011470804637
-1.949527424900099,0.6541546115784714,2.2072390747469197,1.6392090167197804,6.9479665733099365,-3.8529005157550027
-1.9429858787843142,0.7236342773115708,2.2236311649141176,1.6006800115622304,7.084138111394325,-3.6599816586414
