th1 (rad),w1 (rad/s),th2 (rad),w2 (rad/s)
2.9155007302782545,-2.092148929031771,6.238374362848713,-0.6578224803651876
2.894579240987937,-2.123758887221113,6.231796138045062,-0.6766330229557098
2.873341652115726,-2.157750435618842,6.225029807815504,-0.6961751393328443
2.8517641477595372,-2.194063423019585,6.218068056422176,-0.7162836075736669
2.8298235135293415,-2.232632517059182,6.210905220346439,-0.7367794355135652
2.8074971883587496,-2.2733869485381435,6.203537425991303,-0.7574695260790788
2.784763318873368,-2.316250246012579,6.195962730730512,-0.7781463494369101
2.7616008164132424,-2.3611399689399124,6.188181267236144,-0.7985876368853346
2.737989416723843,-2.407967449863442,6.18019539086729,-0.8185561143117887
2.713909742225209,-2.45663755858476,6.172009829724172,-0.8377992961532014
2.6893433666393616,-2.5070485039867676,6.16363183676264,-0.8560493640498573
2.664272881599494,-2.5590916920940097,6.155071343122142,-0.8730231576695162
2.6386819646785535,-2.6126516620288083,6.146341111545446,-0.888422308342649
2.6125554480582656,-2.6676061246485565,6.13745688846202,-0.901933548986488
2.58587938681178,-2.723826131703236,6.128437552972155,-0.9132292360404309
2.5586411254947476,-2.781176406163575,6.119305260611751,-0.9219681204589689
2.530829361433112,-2.839515866725937,6.110085579407161,-0.9277964048153474
2.5024342027658526,-2.8986983811420823,6.100807615359008,-0.9303491218021421
2.4734472189544316,-2.9585737836521226,6.091504124140987,-0.9292518653664976
2.4438614811179105,-3.0189891910893714,6.082211605487322,-0.9241228988537105
2.413671589207017,-3.0797906498380847,6.072970376498785,-0.9145756543281875
2.382873682708636,-3.14082514143981,6.063824619955503,-0.900221623231006
2.351465431294238,-3.201942968001405,6.054822403723193,-0.8806736203803899
2.3194460016142235,-3.2630005295092483,6.04601566751939,-0.8555493808933848
2.286815996319131,-3.3238634937236693,6.037460173710456,-0.8244754230647124
2.253577361381894,-3.3844103457771584,6.029215419479809,-0.7870910801208483
2.2197332579241227,-3.4445362894925493,6.021344508678601,-0.7430525710588447
2.185287895029197,-3.5041574566872336,6.013913982968012,-0.6920369469459331
2.150246320462325,-3.563215365626333,6.006993613498553,-0.6337457160223515
2.1146141668060614,-3.6216815569832232,6.000656156338329,-0.5679079210033239
2.0783973512362293,-3.6795623271104736,5.994977077128296,-0.4942824175784321
2.0416017279651246,-3.7369034762510593,5.990034252952512,-0.4126590866111003
2.004232693202614,-3.7937949956777133,5.985907662086401,-0.32285870582523407
1.9662947432458369,-3.850375634604185,5.982679075028148,-0.2247312108113833
1.9277909868997951,-3.9068373166500656,5.980431762920034,-0.11815208965026709
1.8887226137332944,-3.9634294177017586,5.979250242023531,-0.003016678306967363
1.8490883195562768,-4.02046297262218,5.979220075240462,0.12076784876903597
1.808883689830055,-4.078314947292407,5.980427753728152,0.25329297266023587
1.768100540357131,-4.137432794460728,5.982960683454754,0.39466197206960707
1.7267262124125238,-4.1983396064317295,5.9869073031754505,0.545005879338153
1.6847428163482066,-4.26164028494858,5.992357361968832,0.7045024479137616
1.6421264134987208,-4.328029270100891,5.9994023864479695,0.873398400808485
1.5988461207977118,-4.398300508865159,6.008136370456055,1.052035353072228
1.5548631157090602,-4.473360505106444,6.018656723986777,1.24087998677617
1.5101295106579957,-4.554245483323983,6.031065523854539,1.440559313133142
1.4645870558247558,-4.6421439247334515,6.045471116985871,1.6519021873862998
1.4181656165774212,-4.738425998105062,6.061990138859734,1.8759886411892948
1.3707813565963707,-4.844681694559267,6.080750025271627,2.1142090313123743
1.322334539650778,-4.962769729206909,6.10189211558475,2.3683353783189096
1.272706842358709,-5.094879339611602,6.12557546936794,2.640607350496521
1.221758048962593,-5.243606617082041,6.151981542872905,2.9338345897018074
1.1693219827917725,-5.412045083234546,6.181319888769923,3.251514232264821
1.115201531959427,-5.603884903838272,6.213835031092571,3.597954757270715
1.0591626829210443,-5.8235020137460936,6.249814578665278,3.978378480966536
1.0009276627835835,-6.075987771701316,6.289598363474943,4.398931395565059
0.9401677850665703,-6.3670004383951095,6.333587677430594,4.866430919873744
0.8764977806826192,-6.702167990039408,6.382251986629331,5.387468036395994
0.8094761007822251,-7.085456996359735,6.4361266669932915,5.966037380545057
0.7386215308186277,-7.515344581715273,6.495787040798742,6.598057810415264
0.6634680850014749,-7.976897323705861,6.561767618902895,7.260121353168908
0.5836991117644164,-8.428317601314381,6.634368832434584,7.8904712781156325
0.4994159357512725,-8.787218219144421,6.71327354521574,8.369687652452551
0.4115437535598283,-8.941468392338507,6.796970421740266,8.536194738751412
0.3221290696364432,-8.817705747512697,6.88233236912778,8.28331414634803
0.23395201216131625,-8.461086321879161,6.96516551059126,7.672382151683166
0.14934114894252465,-8.00240921041517,7.0418893321080915,6.887082539654232
0.06931705683837294,-7.551851111689016,7.110760157504634,6.083675389090056
-0.006201454278517218,-7.159383463993746,7.171596911395535,5.334399160788139
-0.07779528891845468,-6.835478243293945,7.224940903003416,4.655851725819339
-0.14615007135139413,-6.574792775435882,7.27149942026161,4.042048968879028
-0.21189799910575297,-6.367930902985394,7.3119199099504,3.4810077638409087
-0.2755773081356069,-6.205688852290228,7.346729987588809,2.9608540399224665
-0.33763419665850913,-6.080187936921309,7.376338527988033,2.471560977156045
-0.39843607602772224,-5.984937603103944,7.401054137759594,2.005167311676639
-0.4582854520587617,-5.914598220338826,7.421105810876361,1.5555545504179122
-0.51743143426215,-5.86470363569193,7.436661356380539,1.118149633456963
-0.5760784706190692,-5.8314204215705345,7.447842852715109,0.6896612501419609
-0.6343926748347746,-5.811359333473299,7.454739465216528,0.26786989232703995
-0.6925062681695076,-5.80143599541969,7.457418164139799,-0.1485356539397506
-0.7505206281237045,-5.7987736845522795,7.4559328076004014,-0.5600890463936877
-0.8085083649692273,-5.800641193667471,7.450331917136465,-0.9666574116947465
-0.866514776905902,-5.804419661501823,7.440665343019518,-1.3675429489745163
-0.9245589735209202,-5.807592924530594,7.426989913529773,-1.7615820894789345
-0.9826349027662261,-5.807756187720668,7.409374092634983,-2.147245890048745
-1.0407124646434327,-5.802637785040148,7.387901633734495,-2.522742334948364
-1.0987388424938342,-5.790128754142877,7.362674210385012,-2.886118757500596
-1.1566401300352631,-5.768315122508898,7.333813022810006,-3.235360899490522
-1.2143232812603522,-5.73550835095818,7.301459413815101,-3.5684843629961422
-1.271678364769934,-5.690270338236082,7.2657745701851395,-3.8836144029412907
-1.3285810681522947,-5.631430662210261,7.226938426155726,-4.1790510192538886
-1.3848953747743973,-5.5580951271225505,7.185147915963188,-4.453317847379339
-1.4404763260456228,-5.469645971650822,7.140614737489394,-4.705195046109187
-1.495172785762131,-5.365735065212214,7.0935627870283025,-4.933737881689982
-1.5488301364142532,-5.246271953783413,7.044225408211402,-5.138283736338789
-1.6012928559520874,-5.1114086866659445,6.992842570848015,-5.318450695635267
-1.652406942818747,-4.961523032214331,6.939658063891662,-5.474130706273382
-1.7020221731408902,-4.797201110357349,6.884916756828929,-5.605479673597999
-1.7499941842444637,-4.619219798239794,6.828861960092949,-5.71290598570577
-1.7961863822268618,-4.428528660248113,6.771732900235891,-5.79705802254033
-1.840471668829343,-4.226230737318369,6.713762320010488,-5.858810422414824
-1.8827339762025266,-4.013561372959579,6.6551742157863405,-5.899248366936483
-1.9228695899321224,-3.7918643674543704,6.596181732116976,-5.9196489706671
-1.9607882336066662,-3.5625650963724236,6.536985242410305,-5.921459015805113
-1.9964138845703905,-3.327140722807241,6.477770652252254,-5.906268686554114
-2.029685291798463,-3.087088169675622,6.418707965386712,-5.875781523639973
-2.060556173495219,-2.843890992528707,6.359950150150312,-5.831781411101062
-2.088995083420506,-2.5989866171645017,6.301632336039302,-5.776097908093034
-2.1149849495921513,-2.3537355269874882,6.243871356958372,-5.7105715609961285
-2.1385223048620263,-2.1093938913334895,6.18676564134841,-5.637020931550091
-2.1596162437753614,-1.8670908460721645,6.130395432032909,-5.557212956748545
-2.178287152236083,-1.6278112288837594,6.074823302465424,-5.472837956052644
-2.1945652645249205,-1.3923841047003163,6.020094922904898,-5.385490185930176
-2.208489105571924,-1.1614769612614924,5.9662400210455955,-5.296654383597981
-2.2201038751845386,-0.9355950660359607,5.913273477209616,-5.207698307180666
-2.229459825844898,-0.7150851886797844,5.861196494137809,-5.119870917479033
-2.236610677731696,-0.5001427206823226,5.809997784963019,-5.034305585156104
-2.241612104938519,-0.29082116030790006,5.759654729111458,-4.952027553969451
-2.2445203165415983,-0.08704295813148585,5.710134453571763,-4.873964837067799
-2.2453907461229132,0.11138918805302617,5.661394805201085,-4.800961750141725
-2.2442768542423828,0.304781365356796,5.613385187699667,-4.733794368075078
-2.2412290405888147,0.49353842647576224,5.566047244018916,-4.673187305380009
-2.236293656324057,0.6781553804454967,5.519315370965116,-4.619831341040516
-2.2295121025196023,0.8592104969770342,5.473117057554711,-4.574401512839261
-2.220919997549832,1.0373602701127085,5.427373042426318,-4.5375753719369545
-2.2105463948487047,1.213336217431072,5.381997288706948,-4.510051088456017
-2.198413032674394,1.3879432848206743,5.336896777822388,-4.4925649956629945
-2.184533599826187,1.5620593407682741,5.291971127865758,-4.485907896182066
-2.1689130064185043,1.736634807474422,5.247112048903937,-4.490938934810883
-2.15154665834376,1.9126907752955489,5.202202659555828,-4.508594915905899
-2.1324197505908047,2.091312801799321,5.157116710396769,-4.539891361775588
-2.1115066225728114,2.2736357275585983,5.111717796779013,-4.585908983340139
-2.0887702652972253,2.460811832761876,5.065858706945612,-4.647754982923607
-2.0641621469696068,2.6539499490858023,5.019381157116376,-4.726481935293848
-2.0376226474787487,2.854006116244366,4.972116337763437,-4.822937019351931
-2.009082586316305,3.061596800262241,4.923886967569918,-4.937500743241551
-1.9784666183136828,3.276695015787642,4.874511960137503,-5.069658999930271
-1.9456996681558063,3.4981641974296975,4.8238153701382,-5.217344062473305
-1.9107180261815093,3.7231016846706626,4.771641929513467,-5.376003281748773
-1.8734870093348026,3.946039791283066,4.717881896695979,-5.537460220449328
-1.8340266114219719,4.158241188180347,4.662507294491486,-5.688897411546417
-1.7924441995401683,4.347645043892109,4.6056183203760215,-5.812739702174252
-1.7489677491012472,4.500297752555776,4.547490923354279,-5.8886107075778185
-1.7039647715756894,4.603804998105358,4.488604816278501,-5.898126329163925
-1.6579267215946358,4.651930043546089,4.429623552986862,-5.8313178450111165
-1.611407421159175,4.647669469745913,4.371310374536751,-5.690963599720502
-1.5649307264617158,4.602339575059314,4.314400738539546,-5.491378621100343
-1.5189073307111227,4.531207965594638,4.259486952328542,-5.25239272676674
-1.4735952510551764,4.448765075997791,4.206963025060875,-4.992815695640136
-1.4291076002951986,4.366055087201792,4.157034868104474,-4.726748217762267
-1.3854470494231808,4.290234583264851,4.109767385926851,-4.46296945005569
-1.3425447035905322,4.225323556906631,4.065137691426294,-4.2059658323047975
-1.300291468021466,4.173220691560413,4.023078033103246,-3.9573194031490697
-1.2585592611058618,4.134548526687968,3.9835048390717556,-3.7168591068943915
-1.217213775838982,4.109234504955717,3.9463362480028117,-3.4834486010897088
-1.1761214307894248,4.096870485093996,3.911501761991915,-3.2554713791233767
-1.1351527259384848,4.096919635037094,3.878947048200681,-3.0311093012334833
-1.094183529588114,4.108827630361338,3.848635955188346,-2.8084935373619815
-1.0530952532845006,4.132076829636135,3.8205510198147263,-2.5857815877727623
-1.0117744849881392,4.166207400016897,3.7946932039369985,-2.361193826615689
-0.9701124109879702,4.210819495449725,3.7710812656708415,-2.133029533145224
-0.9280042160334729,4.265564482707331,3.7497509703393894,-1.8996740888820143
-0.8853485712063996,4.330129600259406,3.7307542294505693,-1.6596041293458605
-0.8420472752038056,4.404218374624552,3.7141581881571106,-1.411394600748031
-0.79800509145756,4.487527998917725,3.7000442421496302,-1.153730006332644
-0.7531298114683828,4.579724333803859,3.688506942086304,-0.8854210899111397
-0.7073325681303442,4.6804150116366765,3.6796527311871925,-0.605427465269861
-0.6605284180139774,4.789121189583055,3.673598456534494,-0.3128860615418383
-0.6126372061181469,4.905248732680713,3.6704695959190756,-0.0071446039460884014
-0.5635847187913398,5.028059955983308,3.6703981498796145,0.31220136256067027
-0.5133041192315067,5.156647456856776,3.6735201635052213,0.6452701654946607
-0.4617376446629389,5.289911950432966,3.6799728651601677,0.9918574309032373
-0.4088385251586092,5.426546291235377,3.6898914394692,1.3514048990662133
-0.3545730622462554,5.565027917779779,3.703405488459862,1.7229786460117298
-0.2989227830684576,5.703621695398104,3.7206352749199794,2.1052606381519605
-0.24188656611447656,5.8403944896626365,3.741687881301499,2.4965568646306595
-0.1834826212178502,5.97324177858961,3.7666534499478055,2.89482395264898
-0.12375020343195409,6.099925299000384,3.7956016894742954,3.2977142460808624
-0.06275095044195024,6.218119313382527,3.828578831935104,3.702637049833044
-0.000569757308124974,6.325461846230869,3.8656052024334344,4.106831489781307
0.06268486115418372,6.419606460008611,3.9066735173312477,4.5074446649158
0.12688092575426982,6.498270049947014,3.951747963980406,4.901607894529404
0.19186362625373998,6.559272834405864,4.0007640429257,5.286504156492486
0.25745635459779864,6.600568135615838,4.053629084490624,5.65942130436302
0.323462035953957,6.620261456860988,4.1102232975342545,6.017788119381659
0.3896646505225669,6.616620432730298,4.1704011787280715,6.359193277735549
0.45583085484986985,6.588079094776349,4.233993111505427,6.681390377265524
0.5217116457976333,6.53324123109343,4.300807015278083,6.9822947681436105
0.5870440581085676,6.450888182943973,4.3706299629595184,7.259979659926763
0.6515529399380073,6.339996068387688,4.443229759558786,7.5126795531153645
0.7149529006218842,6.1997660984459175,4.51835655508994,7.738808317949218
0.7769505616063433,6.029669397237114,4.595744638269432,7.936997192757693
0.8372472555787145,5.829504713431015,4.675114610197009,8.106154713762901
0.8955423027130246,5.599463935981484,4.756176157334638,8.245546413986546
0.9515369420728395,5.340196917943782,4.838631621474503,8.354887569380859
1.0049389112522773,5.052864466766062,4.922180497168312,8.434438100588023
1.055467555919938,4.7391672554710835,5.006524878174192,8.48508590245406
1.1028592284746488,4.401339495958622,5.0913757371987325,8.50840428084002
1.146872623434235,4.042099746816404,5.176459780007133,8.506671406050682
1.187293620902399,3.664556839265871,5.26152649406764,8.482844698834823
1.2239391892950577,3.27207556743964,5.3463549410559885,8.4404900388959
1.2566599449694542,2.868113020431033,5.430759841444948,8.38367318360076
1.2853410751737646,2.4560407296484574,5.514596573280955,8.316827131413334
1.3099014824702493,2.038969133625085,5.597764844595089,8.244612989425411
1.3302911738065002,1.6195889994437056,5.680210974489343,8.171792579102569
1.3464870638009372,1.2000400003931295,5.761928900280369,8.103128807882065
1.3584874638048685,0.7818108153006409,5.842960188359189,8.043325732668656
1.366305571957875,0.36566920624837435,5.923393445685876,7.997015543101079
1.3699622640203586,-0.04838437740076357,6.003363601116886,7.968795564307012
1.369478420246351,-0.4611493859028307,6.083051556759957,7.963315519055749
1.3648669263873228,-0.8742549998603244,6.162684711950514,7.985413727062994
1.3561243763887196,-1.2901974008533394,6.242538849221144,8.040299829131795
1.3432224023801862,-1.712390740804408,6.322941847512462,8.133778866344441
1.3260984949721422,-2.1452283157910883,6.4042796361759065,8.27250237606278
1.3046462118142312,-2.594127754971183,6.4870046599365345,8.464205968106103
1.2787049342645194,-3.0654812870571613,6.571646719617595,8.71782540801816
1.2480501213939477,-3.5663101802417674,6.658824973697777,9.043219754581658
1.21238701959153,-4.103147149095169,6.749257171243594,9.449852492708247
1.1713555481005784,-4.679087271056942,6.8437556961706765,9.942970666306683
1.124564675390009,-5.286904345780496,6.943185402833743,10.51435322967983
1.071695631932204,-5.895163628014867,7.048328935130542,11.123293212655252
1.0127439956520552,-6.427430672372061,7.159561867257094,11.667742151696876
0.9484696889283346,-6.753768223051253,7.276239288774063,11.971905926867151
0.8809320066978221,-6.74683455646438,7.395958348042734,11.862555100785306
0.8134636611331784,-6.4053709998549255,7.514583899050588,11.337737768165987
0.749409951134629,-5.876539082387532,7.627961276732248,10.595488156492449
0.6906445603107537,-5.317017137695494,7.7339161582971725,9.843059113810595
0.6374743889337988,-4.805483531455139,7.8323467494352785,9.180236669655798
0.5894195536192475,-4.36153819568511,7.9241491161318365,8.627825379221088
0.5458041716623964,-3.980760987109217,8.010427369924047,8.175957075699865
0.5059965617913041,-3.652575708562842,8.092186940681046,7.807972498107054
0.4694708047056757,-3.3664803312550595,8.170266665662117,7.508380353709761
0.4358060013931251,-3.1136443218252783,8.245350469199215,7.264657040173095
0.4046695581748723,-2.887011498534235,8.317997039600947,7.0671473257827016
0.37579944318952996,-2.681016342592372,8.388668512858773,6.9085257453672915
0.3489892797636062,-2.49126147071942,8.457753770312447,6.783253648717214
0.324076665056412,-2.314249508518387,8.52558630679962,6.6871330288144755
0.3009341699712281,-2.1471837236600795,8.592457637087763,6.616958923710375
0.27946233273462734,-1.9878307451564212,8.658627226324867,6.570247696549222
0.2595840252830631,-1.8344357585617383,8.72432970329036,6.545016254841383
0.24123966769744573,-1.6856825438992176,8.789779865838774,6.539590651179452
0.22438284225845356,-1.540693219268014,8.855175772350568,6.552426816888805
0.20897591006577343,-1.3990639182930207,8.920700040519456,6.581930756483503
0.19498527088284323,-1.2609318871546358,8.986519348084292,6.626271211178251
0.18237595201129686,-1.1270656806522976,9.052782060196074,6.683186054656967
0.17110529520477388,-0.9989623630402994,9.119613920742644,6.7497960409914555
0.1611156715743709,-0.87892367841419,9.187111881152559,6.822456575082835
0.152326434790229,-0.7700689133317143,9.255336446903387,6.896697781854261
0.14462574565691186,-0.6762313659174345,9.32430342472193,6.9673181067941465
0.1378634319977375,-0.6016884553181465,9.39397660578987,7.028693579274077
0.13184654744455604,-0.5507049975660069,9.46426354158261,7.075327790726953
0.12633949746889597,-0.526930341332879,9.535016819489881,7.102589984517323
0.12107019405556718,-0.5327681974778573,9.606042719335054,7.1074897224931055
0.1157425120807886,-0.5688937845763837,9.677117616559984,7.089267146321198
0.11005357423502476,-0.6340808688827367,9.748010288023197,7.04959566213893
0.10371276554619739,-0.725407604501553,9.818506244644587,6.992314934619967
0.09645868950118186,-0.8387762211594761,9.888429393990787,6.922781600937934
0.0880709272895871,-0.9695807247494372,9.957657210000166,6.8470496532703775
0.07837512004209272,-1.113338351308934,10.02612770653287,6.7711111953866565
0.06724173652900338,-1.2661571898234443,10.093838818486736,6.700353527431416
0.05458016463076894,-1.4249973336038115,10.16084235376105,6.639281072889407
0.040330191294730824,-1.5877510409389746,10.227235164489944,6.591466949586895
0.02445268088534108,-1.7531999953775597,10.293149833985813,6.5596609713966405
0.006920680931565483,-1.9209100370483403,10.35874644369978,6.545980708182998
-0.012288419438917921,-2.091110115458493,10.424206250781609,6.552131299908795
-0.033199520593502854,-2.264585070491533,10.489727563780697,6.579622622284924
