th1 (rad),w1 (rad/s),th2 (rad),w2 (rad/s)
2.4388207614038975,-1.3874243186799466,4.624976287951013,-0.14973894434333282
2.424946518217098,-1.4349515437127196,4.623478898507579,-0.09526675290036904
2.4105970027799706,-1.4839704888713257,4.6225262309785755,-0.04310875372537246
2.395757297891257,-1.5345193252139546,4.622095143441322,0.006613784351822222
2.3804121046391176,-1.5866471352191958,4.62216128128484,0.053771518665620854
2.3645456332869257,-1.64041432078743,4.622698996471496,0.0982266610845522
2.3481414900790516,-1.6958929591805876,4.623681263082342,0.13983263438094787
2.3311825604872456,-1.7531670823650751,4.625079589426152,0.17843379392831232
2.313650889663595,-1.8123328481210437,4.626863927365435,0.2138652638681821
2.2955275611823844,-1.8734985624864842,4.6290025800041175,0.2459529513321206
2.27679257555752,-1.936784502371505,4.631462109517439,0.27451381978207623
2.257424730533805,-2.0023224742953767,4.63420724771526,0.29935652340991487
2.237401505790851,-2.0702550300353786,4.637200812949359,0.32028252907429183
2.2166989554904974,-2.140734242549423,4.640403638240103,0.337087880498221
2.1952916130650033,-2.213919926107544,4.643774517045085,0.34956579108717944
2.173152413803928,-2.2899771637846276,4.647270174955956,0.35751028586165534
2.1502526421660817,-2.3690729845276035,4.650845277814573,0.36072114787694926
2.1265619123208057,-2.451372012885213,4.654452489293342,0.3590104571606736
2.1020481921919534,-2.537030900165959,4.658042593864948,0.352211036039835
2.076677883190294,-2.6261913405284307,4.661564704225347,0.3401871270906695
2.0504159697850097,-2.7189714850416897,4.664966575496253,0.322847619703511
2.0232262549345927,-2.8154555983648697,4.668195051693288,0.3001620966255244
1.995071698950944,-2.915681865034191,4.671196672659543,0.27217987855167813
1.9659148803006021,-3.0196283548264433,4.67391847144506,0.23905208694483218
1.9357185967523376,-3.127197308270072,4.6763089923145085,0.20105650698048344
1.904446623669637,-3.2381981106973696,4.678319557384313,0.15862470121930616
1.8720646425626633,-3.352329587767432,4.6799058043965065,0.11237039533966961
1.838541346684989,-3.469162570213125,4.681029508349903,0.06311763834485529
1.8038497209828577,-3.588124021955819,4.681660684733352,0.011926658883334058
1.7679684807632994,-3.708484370660553,4.681779951322185,-0.03988525082955167
1.7308836370566938,-3.8293499754990616,4.6813810988138895,-0.09073101202357849
1.6925901373017032,-3.949662853672257,4.680473788693654,-0.13875273207608874
1.6530935087649805,-4.068209800285246,4.679086261372893,-0.18183596189688586
1.6124114107621281,-4.183642815607029,4.6772679017539245,-0.21764247314956625
1.5705749826060578,-4.294512256213504,4.675091477022429,-0.24366393598058575
1.5276298600439226,-4.399313335038733,4.672654837662623,-0.2572974758307868
1.4836367266935353,-4.496545525086764,4.670081862904316,-0.25594215502521206
1.4386712714426677,-4.584783120926021,4.6675224413540635,-0.23711305361857637
1.3928234402334074,-4.662753762636557,4.665151310817878,-0.19856698918520058
1.3461959026070418,-4.72942024693515,4.663165640926026,-0.13843127944927777
1.2989017001376904,-4.784059605579979,4.661781328131534,-0.05532467051942028
1.2510611040818906,-4.826332447763676,4.66122808142634,0.05154192808928347
1.202797779604254,-4.856335224981364,4.6617435007072325,0.18229744379719892
1.1542344273544403,-4.874628685753615,4.663566475145204,0.33638634584409033
1.1054881404969041,-4.882237570705062,4.666930338603645,0.5125954408118637
1.0566657647898534,-4.880619576320553,4.672056293011764,0.7091337004960327
1.0078595690266479,-4.871605484708741,4.679147630016724,0.9237604531518072
0.9591435141795605,-4.857316464635683,4.6883852345482415,1.1539507076066993
0.9105703495332036,-4.8400680213953935,4.699924741624309,1.3970813387906942
0.8621696693192497,-4.822272078360926,4.713895555012216,1.6506196160057112
0.8139469485356404,-4.806348726691664,4.7304017511722725,1.9122967117808127
0.7658834612687238,-4.794657339985326,4.749524718290081,2.18025308883897
0.7179368878688704,-4.7894536036894,4.77132724917847,2.4531489218855254
0.6700423518319765,-4.7928754482979095,4.7958587383973255,2.7302394796892493
0.6221135973489974,-4.806957789359843,4.823161133194218,3.0114213167647903
0.574044019455399,-4.833673991835112,4.853275346361866,3.297259375508648
0.5257072795370479,-4.875001344159813,4.886247940116953,3.589007506192027
0.47695726609544975,-4.933008467791898,4.922138015178874,3.8886358314347125
0.42762718141753076,-5.009964204023173,4.9610243734932205,4.198878431472601
0.37752753937729905,-5.108469693691681,5.003013157807946,4.523314570444414
0.32644284244038224,-5.231617527174368,5.048246303512391,4.866496283498043
0.27412666716863854,-5.383182967447921,5.096911266347371,5.234133816570427
0.22029483749415935,-5.567849975711105,5.149252604513076,5.6333452185392705
0.1646163377370483,-5.791463135087957,5.205586056698468,6.0729591867414445
0.10670170638616874,-6.061260323160859,5.266315648565882,6.563809896778615
0.046089103154560156,-6.385941391568027,5.331953747533668,7.11882507741696
-0.017770310761120116,-6.7751688114559,5.403141998307838,7.752349566846927
-0.0855219988756791,-7.237451040332812,5.480665493976307,8.477249477934333
-0.15789650927900722,-7.773883084066648,5.56543798875565,9.296281452503436
-0.23563534011967371,-8.362546977037042,5.658400803280684,10.180466886437218
-0.31926080989004413,-8.92724438709916,5.760205472145056,11.025589187599408
-0.4085332537610357,-9.302156086584699,5.87046136402105,11.602930147607648
-0.5015548146268827,-9.27286894833592,5.986490665497127,11.616577855014077
-0.5942835041102419,-8.781248858130292,6.102656444047267,10.988967439059293
-0.6820959926915449,-8.0383371231887,6.21254611843786,10.016318107526367
-0.7624793639234319,-7.288038861347868,6.3127092995131235,9.037952647177656
-0.8353597525369105,-6.63467143309126,6.4030888259849,8.198064870014152
-0.9017064668678232,-6.089640706064786,6.485069474685042,7.512246114573113
-0.9626028739284711,-5.63582588021992,6.5601919358307725,6.95710574633738
-1.0189611327306702,-5.25312010066949,6.629762993294146,6.505497540385533
-1.0714923337373652,-4.924756458611816,6.694817968698001,6.135121911609344
-1.1207398983234833,-4.637851317912151,6.756169187814095,5.82918958862669
-1.1671184115026048,-4.382666924064496,6.814461083700362,5.575356317138566
-1.2109450807432498,-4.151796005097295,6.870214646871747,5.364568795147036
-1.2524630407942228,-3.9395188993527728,6.9238603348232175,5.190153433403342
-1.2918582297877506,-3.741341908360024,6.9757618691572505,5.047150638928257
-1.3292716488713507,-3.5536781612462693,7.026233375546533,4.931834297572801
-1.3648084304838135,-3.3736331625096385,7.075551718522261,4.841358294386968
-1.39854476210891,-3.1988669530444067,7.123965301466131,4.773485812233109
-1.430533431639354,-3.027513663742689,7.171700159588462,4.7263700849787105
-1.460808568276781,-2.858145302790651,7.218963860438249,4.698365447153922
-1.4893900213046876,-2.6897698675069104,7.265947514909788,4.687855755550832
-1.5162877199797566,-2.5218545585498915,7.312826072465296,4.693094786013575
-1.5415062655652556,-2.354363261294341,7.359757020325432,4.712060967639498
-1.565049898178199,-2.187794009153703,7.406877630001827,4.742337076432947
-1.586927838269736,-2.0231978857982558,7.454301000766157,4.781033468870871
-1.6071598171277186,-1.862157700363581,7.502111335454866,4.824778876063338
-1.6257813941313544,-1.7067056418749311,7.5503591242154995,4.869802186215189
-1.6428484505501038,-1.5591669892373847,7.5990571460776515,4.912118342141892
-1.6584401204424777,-1.4219331916591984,7.64817832949907,4.947810058230456
-1.6726594523590697,-1.2971897667238292,7.697656430081375,4.973368257926269
-1.685631350026308,-1.186645190565917,7.7473901126606375,4.9860279536950936
-1.6974978019319673,-1.0913163500139942,7.797250392197588,4.984025831812844
-1.7084109654321074,-1.0114171067690751,7.8470906505157165,4.966719874754144
-1.7185251364997982,-0.9463703406265573,7.896757849263258,4.934547428471148
-1.727988839906064,-0.8949308190409545,7.94610332354797,4.888841884119775
-1.7369381480964734,-0.8553801492912233,7.994991742389168,4.831561399653212
-1.7454919495893857,-0.825745082176367,8.0433073563857,4.76499438157967
-1.7537494004111494,-0.8039968452773694,8.090957300201497,4.69149628302836
-1.761789368863923,-0.7882052986255336,8.137872263031781,4.613290078450488
-1.7696714218501783,-0.7766391569210662,8.184005163816286,4.532339681135321
-1.7774378134193891,-0.7678165885762221,8.22932856062764,4.450288844352847
-1.7851159793051514,-0.7605173618590162,8.273831449071167,4.368449752295927
-1.7927211529237417,-0.7537693435943928,8.317515946594126,4.287823987860406
-1.8002588463596856,-0.7468206151292079,8.36039418647273,4.20914103372425
-1.8077270525109777,-0.7391056370215878,8.402485596809973,4.1329034317871365
-1.8151181088811936,-0.7302109978676384,8.443814631127843,4.059431623855436
-1.82242021885987,-0.7198439127092032,8.484408947366397,3.988904608969034
-1.829618657986962,-0.7078049474377313,8.524297993456088,3.9213947252254755
-1.8366967074613394,-0.6939653687845037,8.563511940708343,3.856896218449402
-1.8436363611491844,-0.6782489071735146,8.602080902892837,3.795348007654381
-1.8504188502209196,-0.6606174224630118,8.64003438296938,3.7366514013281247
-1.8570250244455497,-0.6410598600920365,8.677400896982661,3.680683618578096
-1.8634356230464701,-0.6195838919492112,8.714207733168442,3.627307936026514
-1.8696314619659622,-0.5962096969116215,8.750480812528707,3.5763811857142653
-1.8755935589350785,-0.5709654171061999,8.78624462438585,3.5277592127525645
-1.8813032131061405,-0.5438839090543858,8.821522216513376,3.481300786433257
-1.8867420521966842,-0.5150004848305083,8.856335224377709,3.436870355540876
-1.8918920570449893,-0.484351403531729,8.890703927933117,3.394339951473749
-1.8967355710803067,-0.4519729270553437,8.924647327447854,3.353590471637296
-1.90125530035086,-0.41790079722514406,8.958183232164227,3.314512518873222
-1.9054343083231116,-0.38217002513310916,8.991328357352959,3.2770069282556205
-1.9092560085744426,-0.3448149097388825,9.024098426635515,3.2409850781763687
-1.9127041576718313,-0.3058692227796894,9.05650827741728,3.2063690562177776
-1.9157628498996282,-0.2653665121818929,9.088571967979457,3.1730917301349546
-1.9184165150214472,-0.22334048751353042,9.120302885280806,3.1410967589281196
-1.9206499198965825,-0.1798254594537599,9.151713852870087,3.110338567354198
-1.9224481744911202,-0.1348568114822937,9.18281723854363,3.0807822984374558
-1.923796742605943,-0.08847148656465109,9.213625061528004,3.0524037519278355
-1.9246814574715896,-0.04070847496353366,9.244149099047283,3.0251893117255695
-1.925088542221225,0.008390708215668938,9.274400992164539,2.9991358616732247
-1.9250046351390682,0.05878156526964305,9.30439235078127,2.9742506865416094
-1.9244168194863718,0.11041618599188867,9.334134857646687,2.9505513533073175
-1.923312657626453,0.16324285245601766,9.36364037117976,2.928065566793055
-1.9216802291018928,0.21720568422881462,9.39292102684769,2.9068309933092498
-1.9195081722596048,0.2722443286942182,9.421989336780783,2.8868950460113
-1.9167857289726626,0.3282937000894202,9.450858287240896,2.8683146261977597
-1.9135027919717684,0.3852837697230128,9.479541433502874,2.851155815651567
-1.9096499542745382,0.44313940865426177,9.50805299165939,2.835493516298468
-1.9052185601879956,0.5017802828742166,9.536407926822376,2.8214110348489494
-1.9002007573592534,0.5611207997729025,9.564622037170865,2.8089996116216054
-1.8945895493615243,0.6210701034454709,9.592712033287082,2.798357894331602
-1.8883788483270696,0.6815321152368515,9.620695612230397,2.7895913591805774
-1.881563527174701,0.7424056149073011,9.648591525822203,2.7828116830186858
-1.874139471025628,0.8035843569789441,9.676419642652391,2.778136071586975
-1.8661036274558387,0.8649572162505724,9.704201003368262,2.7756865498218373
-1.857454055293333,0.9264083561911015,9.73195786886648,2.775589220861566
-1.8481899717314219,0.9878174139764212,9.759713761075096,2.777973500705819
-1.8383117975916576,1.0490596963419108,9.787493496082154,2.782971335430371
-1.8278212006282386,1.1100063811918721,9.815323209436459,2.7907164074606143
-1.8167211368163199,1.1705247210329832,9.843230373511064,2.8013433366845653
-1.80501588960599,1.230478245766505,9.87124380687791,2.81498688118023
-1.792711107148325,1.289726964161349,9.899393675689712,2.8317811410915987
-1.7798138375067116,1.348127565412527,9.927711487100629,2.8518587677617706
-1.7663325618525862,1.4055336245445023,9.956230074778246,2.875350178663406
-1.7522772256071413,1.461795818031157,9.98498357656488,2.9023827769837096
-1.7376592674268296,1.5167621588700477,10.014007404334716,2.9330801729286793
-1.7224916458381292,1.5702782634808714,10.043338206064004,2.9675614018846876
-1.7067888632033206,1.6221876662290482,10.073013820082851,3.0059401324530897
-1.69056698654103,1.6723322011602582,10.103073221407382,3.048323854951081
-1.6738436645294275,1.7205524747512364,10.133556459956893,3.0948130380963494
-1.656638139781915,1.7666884582441051,10.164504590337856,3.145500238056935
-1.638971255199474,1.8105802335727643,10.195959592718426,3.2004691395846185
-1.6208654528637463,1.8520689331765394,10.227964284114272,3.259793503229693
-1.602344763531981,1.8909979213230979,10.26056221914657,3.3235359852594843
-1.58343478431875,1.9272142731488668,10.293797578999165,3.391746787407543
-1.5641626415872614,1.960570617705291,10.32771504687324,3.4644620814385796
-1.5445569354102084,1.9909274231035818,10.362359667687628,3.5417021381558675
-1.5246476611791726,2.018155815569255,10.397776689069186,3.623469071327239
-1.50446610302348,2.0421410399370714,10.434011379782458,3.709744083553873
-1.4840446926241093,2.062786686712573,10.471108820617996,3.8004840730379588
-1.4634168257569835,2.080019829789642,10.509113661348376,3.8956174276135735
-1.442616627459087,2.0937972380800205,10.548069835624512,3.9950387961318583
-1.4216786550782867,2.1041128414494046,10.588020223585831,4.098602589456772
-1.4006375266637927,2.111006642569146,10.6290062494804,4.206114928113109
-1.3795274602381014,2.114575265189185,10.671067398761531,4.317323728389036
-1.3583817075862095,2.1149843059398625,10.714240636045421,4.431906615442558
-1.3372318645268109,2.112482596233385,10.758559702199847,4.549456389174843
-1.316107038564477,2.107418362184674,10.804054266091596,4.6694638731493745
-1.2950328549426304,2.100257065896587,10.850748904823089,4.79129818515384
-1.2740302842836646,2.091600387239185,10.898661886674628,4.914184825647689
-1.2531142804112727,2.0822053261764446,10.947803734931105,5.037182536886847
-1.2322922271495083,2.073001745648884,10.998175560299973,5.159160681636568
-1.2115622096930194,2.0651058370874025,11.04976716711634,5.2787799324845155
-1.1909111513221453,2.0598260388377216,11.102554966441184,5.394480281995622
-1.1703128909337681,2.0586570381899216,11.15649976926114,5.504481582069079
-1.1497263205518689,2.063256946141372,11.211544585081832,5.606802619137021
-1.129093751090455,2.075403000792653,11.267612611273202,5.6993045612423945
-1.1083397210825285,2.096922750769864,11.324605656885627,5.779762806515608
-1.0873704935748298,2.129600986123459,11.382403284950783,5.845967309313122
-1.0660744837135954,2.1750676644295672,11.440862958043914,5.89584541867858
-1.0443238070692997,2.2346778932597204,11.4998214122307,5.9275941839591075
-1.0219770281367024,2.309399983589329,11.55909735407029,5.939803115531708
-0.9988830283008091,2.399729546721905,11.618495385225607,5.9315462332796
-0.97488573283359,2.5056449528512066,11.677810847558403,5.902425886055854
-0.949829283305078,2.626612177394553,11.736835106418962,5.8525601945854095
-0.9235631615311325,2.761637127382228,11.795360708364816,5.782518382190112
-0.8959467902573102,2.9093542529675647,11.853185892186717,5.69321945802692
-0.8668532477276345,3.0681346086285073,11.910118086766987,5.585815958727362
-0.8361719016413495,3.2361958249041383,11.965976246354261,5.461584301729071
-0.803809943392308,3.4116999076433103,12.02059208937155,5.321837999489128
-0.769692944315875,3.592830327348849,12.073810469366443,5.167872347030116
-0.7337646410423865,3.7778453361734416,12.125489192836744,5.0009420239022955
-0.695986187680652,3.965108461939687,12.175498613075767,4.822268045614234
-0.6563351030612552,4.153099259119381,12.22372129353191,4.633068061311299
-0.6148041104700613,4.34040793602215,12.270051974145023,4.43460363204315
-0.5714000311098398,4.525717023563063,12.314398010465455,4.2282389943586365
-0.5261428608742093,4.70777241084871,12.356680400409042,4.015507105596835
-0.47906513676572215,4.885345328910449,12.39683547146501,3.7981798529818818
-0.43021168347661765,5.057186565029051,12.434817269994829,3.5783397379732027
-0.37963981782632716,5.221974595638346,12.47060066737456,3.3584497778683895
-0.3274200718699437,5.3782606425291055,12.504185165153244,3.1414165178003755
-0.27363746544465267,5.524416021586339,12.535599330331248,2.930637738039514
-0.21839330522878928,5.658590520759253,12.564905707711644,2.730021771485464
-0.16180740002119676,5.778694457638245,12.592205925426498,2.5439600368119315
-0.10402045544481431,5.882420337561915,12.617645525794618,2.377230259275814
-0.045196252069195156,5.96732049515103,12.641417828387377,2.2348081385048673
0.014476952882315146,6.030951834993923,12.663765909772426,2.1215742382681455
0.07478647123225438,6.071085330226008,12.684981652155107,2.041924149175615
0.13549732453451446,6.085956688355837,12.705400893646864,1.9993227015468418
0.19635689141807283,6.074511353828789,12.725394120662333,1.9958782849010364
0.2571020049563607,6.036583019037661,12.745352903511343,2.0320341909341435
0.3174678351467373,5.9729516268152985,12.765673245420684,2.106462896043497
0.3771973514148903,5.885257497866319,12.786737874381119,2.2162016492547476
0.4360499263935535,5.775791614443423,12.808899890873667,2.3570001423976854
0.4938078425379877,5.6472178975997895,12.832469892297643,2.5237941006259974
0.5502800215139856,5.502295295347507,12.857707833303904,2.7111974050119523
0.6053029744674606,5.343653959919449,12.884819807354024,2.9139233976558665
0.6587395140666551,5.173652268884059,12.913959041330582,3.1270867345634827
0.7104760367554956,4.994314690016605,12.945229908676216,3.3463783916634515
0.7604191836556617,4.807333596096322,12.97869369259285,3.5681339019300924
0.8084925196166249,4.61411244158723,13.01437503161215,3.7893257757127126
0.8546336440324972,4.415829815642535,13.052268289369277,4.00750984930394
0.8987919421889226,4.213509452220431,13.092343387862316,4.220748293647335
0.9409270367111269,4.008087182085593,13.134550870798789,4.427523930428947
0.9810079085319828,3.800470524699614,13.178826110103078,4.626653797668613
1.019012613778979,3.591589747126999,13.225092648079764,4.817205328410324
1.054928511250249,3.3824409193226983,13.273264701363868,4.998415924198734
1.0887529204434758,3.1741220754193025,13.323248860605855,5.1696157130505656
1.1204941411976688,2.9678633070210183,13.37494501773636,5.330153505130887
1.150172774267879,2.7650506282728813,13.42824655278767,5.479327153847576
1.1778232805506077,2.5672418635983236,13.483039824326145,5.616321549635273
1.2034956991865908,2.3761707489596517,13.539203039822498,5.740160152917571
1.2272574066761874,2.193733208639764,13.596604641351673,5.849678938351808
1.249194738762585,2.0219480091673603,13.655101430735192,5.94353406377818
1.2694142188542585,1.8628837859068654,13.714536771372973,6.020255075414792
1.2880430567133272,1.718547219998199,13.774739322127122,6.078352097096522
1.3052285289133092,1.5907341599733658,13.835522843098087,6.11647649980269
1.321135870513043,1.4808567229618033,13.896687608096114,6.133619896506957
1.335944437742661,1.3897723787167995,13.958023807061183,6.129319123900344
1.349842161529829,1.3176504106526752,14.019316998300187,6.103822086869391
1.3630186656363559,1.263910680551358,14.080355219168881,6.05816925661936
1.3756577724418695,1.2272559939056167,14.140936911735075,5.994162665333885
1.3879303323809256,1.2057958228193277,14.200878538388414,5.914224239981435
