th1 (rad),w1 (rad/s),th2 (rad),w2 (rad/s)
1.9676548520000279,-0.7686097014325547,0.2375576994690762,-1.9809121228695539
1.9599687549857023,-0.8811471842983979,0.21774857824038066,-2.0159932037988155
1.9511572831427184,-0.9946469772144289,0.1975886462023925,-2.048875347898334
1.941210813370574,-1.1090364835218511,0.17709989272340915,-2.0791758684199637
1.9301204485353556,-1.2242267714204016,0.1563081340392095,-2.106500090491641
1.9178781808211516,-1.340112658951218,0.1352431331342931,-2.130441880945968
1.9044770542316394,-1.4565730375390034,0.1139387143248334,-2.150584489912568
1.8899113238562493,-1.5734714722271934,0.09243286942570772,-2.166501726171232
1.8741766091339773,-1.6906571163526292,0.07076785216399539,-2.1777594838128427
1.857270037970451,-1.8079659771083603,0.04899025732586697,-2.183917631639722
1.8391903781993675,-1.9252225661018856,0.02715108100946975,-2.184532268773166
1.8199381525383487,-2.042241965512903,0.005305758321738088,-2.1791583399509915
1.7995157328832196,-2.1588323356934955,-0.016485825077771826,-2.1673525918398373
1.7779274095262847,-2.274797883972048,-0.0381593509961702,-2.1486768372383067
1.7551794306865642,-2.3899423070056023,-0.05964611936855327,-2.122701477243752
1.7312800076165082,-2.504072710327038,-0.08087313414099079,-2.0890092123115926
1.7062392805132378,-2.617003998899397,-0.10176322626410672,-2.0471988517737785
1.680069240524244,-2.7285637217895307,-0.12223521478184451,-1.996889108066515
1.6527836033063485,-2.83859734293564,-0.14220410586250967,-1.937722237086436
1.6243976298769922,-2.946973899033005,-0.16158132823337404,-1.869367360391023
1.5949278908866622,-3.053591995654032,-0.18027500183728426,-1.791523279238259
1.564391970930122,-3.15838608496156,-0.19819023462966684,-1.7039205657733263
1.5328081100805064,-3.261332964136454,-0.2152294402874001,-1.6063226942077977
1.5001947804391418,-3.3624584345274853,-0.23129266722947808,-1.4985259558254451
1.4665701960938669,-3.461844069328533,-0.24627792678773253,-1.3803578871925901
1.4319517554005816,-3.5596340541605977,-0.26008150565965843,-1.2516739318296235
1.3963554148589756,-3.656042092086727,-0.27259824497795465,-1.1123520520462788
1.3597949939381084,-3.751358403869478,-0.28372176549841743,-0.9622850091431541
1.3222814098994136,-3.8459569067606667,-0.293344615589849,-0.8013700353786352
1.283821840831807,-3.940302721071513,-0.3013583159436353,-0.6294956279092307
1.2444188136210919,-4.034960232268977,-0.30765327222272765,-0.4465252010266163
1.2040692112984022,-4.130602024520686,-0.3121185242329938,-0.2522773370837679
1.1627631910531953,-4.228019093400587,-0.31464129760383147,-0.04650238044299271
1.1204830001191894,-4.328132829115132,-0.3151063214082614,0.17114486790291858
1.0772016718280382,-4.43200931478566,-0.3133948727292322,0.4011365496520122
1.0328815786801815,-4.540876464533229,-0.3093835072327121,0.6441072996766811
0.9874728140348492,-4.656144351995935,-0.30294243423594525,0.9008936649078936
0.9409113705148898,-4.779428594965068,-0.2939334975868663,1.1725763437470056
0.8931170845652392,-4.912575564415957,-0.28220773414939626,1.460522576782905
0.8439913289210796,-5.057685895303564,-0.2676025083815672,1.766422713819685
0.793414469968044,-5.217128177382961,-0.24993828124337034,2.092308410884049
0.7412431881942144,-5.393525679829388,-0.22901519713452984,2.440527085415165
0.6873079313959205,-5.589681580142736,-0.2046099262803782,2.813622649391471
0.6314111155944931,-5.8083754553587585,-0.1764736997864635,3.214026390153482
0.5733273610409055,-6.051904655236523,-0.14433343588492867,3.6433787198688403
0.5128083144885403,-6.321145580517262,-0.10789964868624027,4.101164435306885
0.44959685868336763,-6.61377434951697,-0.06688800433317144,4.582155614776399
0.3834591151881979,-6.921199959398823,-0.021066448185407448,5.072040567514251
0.3142471155942097,-7.224081165484229,0.029653957489735067,5.541078294315497
0.2420063039393674,-7.487914536855491,0.08506474043289003,5.937918411593697
0.1671271585708125,-7.664026386356759,0.14444392454882699,6.191174105642043
0.09048689470724491,-7.70452032744557,0.20635566560524743,6.2308736739036314
0.013441691432789213,-7.590757692190907,0.26866440234428374,6.029168731400734
-0.062465885489119855,-7.3509774554054435,0.3289560896582911,5.625675189085536
-0.1359756600431743,-7.043001824177084,0.3852128415491465,5.103180704822356
-0.20640567828494516,-6.720573619661316,0.43624464859737005,4.539754560598764
-0.27361141448155835,-6.416330387458614,0.4816421942033577,3.9841068043104237
-0.3377747183561445,-6.143998755559843,0.5214832622464619,3.4582211691546973
-0.3992147059117429,-5.906265814569331,0.5560654739380089,2.9682682584715256
-0.45827736405743624,-5.700799384976878,0.5857481565227242,2.513087758127744
-0.515285357907205,-5.5235031854768755,0.6108790341040016,2.088842686475986
-0.5705203897619737,-5.369991878884743,0.6317674609687615,1.691175344479995
-0.6242203085508211,-5.236166008795224,0.6486792144135615,1.3160832140136707
-0.6765819686387734,-5.118383145332665,0.6618400465536982,0.9602089717574619
-0.7277658000921,-5.0134646319825125,0.6714421362712728,0.6208825247159625
-0.7779004464119251,-4.918644882423988,0.6776509615184324,0.2960677614617479
-0.827086895236165,-4.831508289770524,0.6806116391330499,-0.015720483059193602
-0.8754019781338702,-4.749931225313492,0.680454434302458,-0.31550290110261625
-0.9229012903870052,-4.672034706739426,0.6772994052914318,-0.6039162517592223
-0.9696216374543994,-4.5961483876207705,0.6712602427738397,-0.8812856107243316
-1.0155831213306072,-4.5207846261291795,0.6624473866665963,-1.1476886004307887
-1.060790967591899,-4.444620788597284,0.6509705006622885,-1.4030126147635456
-1.1052371754778718,-4.366487873024291,0.636940374514653,-1.6470060395628954
-1.1489020542081148,-4.285363675317752,0.6204703141190241,-1.8793242026496073
-1.1917556909612923,-4.200368934219037,0.601677072092528,-2.0995704857565607
-1.2337593803034828,-4.110765127570423,0.5806813672349623,-2.307332786454908
-1.274867031579187,-4.0159528329142375,0.5576080393704133,-2.5022153606181905
-1.3150265599083293,-3.9154698003571005,0.5325858857642314,-2.6838660050828613
-1.3541812579119004,-3.808988108902148,0.5057472257134028,-2.8519985413941162
-1.392271139000922,-3.69630998318356,0.4772272402994616,-3.006410614257907
-1.4292342388327575,-3.5773620304287665,0.4471631341568825,-3.1469969010628858
-1.4650078591370452,-3.452187813639994,0.41569316514625365,-3.273757922598874
-1.499529737273445,-3.320938804640107,0.3829555859202649,-3.3868047353610637
-1.5327391253198461,-3.1838638602219618,0.34908753856665425,-3.4863598632561263
-1.5645777639220657,-3.0412974384700315,0.314223939934093,-3.57275488661656
-1.594990738306766,-2.893646823760144,0.2784963910679274,-3.6464251484194947
-1.6239272065443675,-2.741378661585096,0.24203213958373243,-3.7079020630279826
-1.6513409931602185,-2.585005121327006,0.2049531189534526,-3.7578035240594474
-1.6771910443734885,-2.4250700086769337,0.16737508371285814,-3.7968229074173347
-1.7014417444602579,-2.262135140990337,0.1294068546386848,-3.8257171546603588
-1.7240630958701613,-2.096767279261591,0.0911496830920812,-3.845294401492725
-1.7450307686627773,-1.9295258802272346,0.05269673907715395,-3.856401586484107
-1.7643260274650496,-1.760951892255587,0.014132723212312875,-3.8599124363570065
-1.7819355463876054,-1.5915577706211392,-0.024466401151257193,-3.8567161768925624
-1.7978511240938169,-1.4218188336690458,-0.06303356292018282,-3.847707263985953
-1.8120693124305074,-1.2521660240353194,-0.10151063556004235,-3.8337763697009137
-1.8245909726708607,-1.0829800816480424,-0.13984839925705148,-3.815802796062153
-1.8354207734873411,-0.9145870808530631,-0.178006427217673,-3.7946484278842387
-1.8445666442958717,-0.747255235505573,-0.2159529114965154,-3.771153278257312
-1.8520391966509275,-0.5811928354490825,-0.2536644442790885,-3.746132629103282
-1.8578511250054184,-0.4165471468864224,-0.29112577057012134,-3.7203757265024553
-1.8620165964742825,-0.2534040883484876,-0.3283295278351459,-3.6946459573978547
-1.8645506373577674,-0.0917884832034088,-0.3652759874091245,-3.6696824109443447
-1.8654685221898015,0.06833531163583748,-0.40197281151856795,-3.6462027132858044
-1.8647851690734432,0.22706259367560425,-0.438434838651426,-3.6249070169810653
-1.8625145431366872,0.3845474966185305,-0.4746839088212367,-3.6064830226224864
-1.8586690681705018,0.541002318912299,-0.5107487390474615,-3.5916119060635694
-1.8532590449813788,0.6966971179091559,-0.5466648581080973,-3.5809750140078593
-1.8462920738022872,0.8519596408359618,-0.5824746082481759,-3.5752611648270727
-1.8377724773939277,1.007175595776988,-0.6182272198964466,-3.5751743376301066
-1.8277007214361578,1.1627891656672762,-0.6539789632727476,-3.5814414316031162
-1.816072829779485,1.3193035163401268,-0.6897933775887788,-3.5948196000439996
-1.8028797946160837,1.4772808146244596,-0.7257415735892188,-3.616102363769122
-1.7881069864698391,1.6373409050565608,-0.76190259722691,-3.646123216215744
-1.7717335774192735,1.8001572179266163,-0.7983638293890675,-3.6857546396575227
-1.7537320052400074,1.9664475828373855,-0.8352213757856427,-3.7358991965919803
-1.7340675294116334,2.136956235895361,-0.8725803677515626,-3.797467409054186
-1.7126979670526798,2.3124212145886096,-0.9105550418421045,-3.8713341785134934
-1.6895737549067937,2.493518280966471,-0.9492683836272394,-3.9582611721338723
-1.664638572097129,2.6807683306244354,-0.9888509953485781,-4.058766661049757
-1.6378308887908848,2.874390169484362,-1.0294386619590756,-4.172917066769077
-1.6090869870960411,3.074076005659148,-1.0711678326267664,-4.300007957238667
-1.5783462270394497,3.2786672620935122,-1.114167912199153,-4.438102409348518
-1.5455595544185146,3.485723112942116,-1.1585489362926382,-4.583415247330909
-1.5107023232890935,3.6910212569167116,-1.2043830887659472,-4.729597769656602
-1.4737921107199263,3.8881321740627093,-1.2516790664625133,-4.867120818133756
-1.4349107889792991,4.068366993431069,-1.300350274643851,-4.983178454869795
-1.3942271190449884,4.221536816949518,-1.3501820591925489,-5.062730584642132
-1.3520117508754932,4.337856797168613,-1.4008093650389701,-5.0911598564177085
-1.3086331829038071,4.410727655528464,-1.4517209636031472,-5.058177844237474
-1.2645259063485226,4.439197032173791,-1.502302742045522,-4.961308076694998
-1.2201339360267847,4.428558055099249,-1.5519158228124719,-4.806781093058382
-1.1758483554757921,4.388575453290621,-1.5999836337430557,-4.607114234798822
-1.131962600942886,4.330463222294946,-1.646054776091044,-4.376933227038367
-1.0886579687199365,4.264297827515579,-1.6898241083614276,-4.129381375620916
-1.0460149904447806,4.197737290774903,-1.7311179221176367,-3.874332986937656
-1.0040376175370316,4.135892457676786,-1.7698612519870132,-3.6182026037982693
-0.9626786929602638,4.081791318369018,-1.8060432780249958,-3.3645769336183404
-0.9218607797765735,4.036982658136439,-1.839689047361179,-3.115041883168139
-0.8814909531952092,4.002057285527262,-1.8708394661928605,-2.869898366358861
-0.8414703803399366,3.9770271463100686,-1.8995384498564492,-2.6286847203298738
-0.801700108876836,3.9615755609937637,-1.9258252970597478,-2.3905242228737458
-0.7620843532668983,3.955211731015256,-1.9497305392884852,-2.154343543394155
-0.7225322359567458,3.9573606526471585,-1.9712739747224268,-1.9190050822830662
-0.6829586294302742,3.967411724762886,-1.9904640255452575,-1.6833852574010901
-0.6432845121826454,3.9847417939418883,-2.0072978781192683,-1.4464203533509044
-0.6034370942432264,4.008722737586291,-2.0217620816527773,-1.2071337248385232
-0.5633498668673635,4.038719889730754,-2.0338334189011626,-0.9646528472547476
-0.522962667970056,4.074085203898574,-2.04347994737371,-0.7182212891004626
-0.4822218159310702,4.114147574481719,-2.050662160264715,-0.4672085200844826
-0.44108034018625303,4.158201867510413,-2.0553342454655597,-0.2111191049711134
-0.3994983215111489,4.2054977162960165,-2.0574454365152706,0.050398039950406925
-0.3574433443481887,4.255228869687362,-2.0569414561157666,0.31754022532377024
-0.3148910556513151,4.306523745478138,-2.053766053862529,0.5903416893347858
-0.27182581819653373,4.358437776723691,-2.0478626369691812,0.8686649762389229
-0.2282414404292968,4.409948102694968,-2.039175987206792,1.1521937278347123
-0.18414195940234712,4.459951120368096,-2.027654049928445,1.4404277256732687
-0.13954244819866615,4.507263357532707,-2.0132497726717125,1.7326810508164145
-0.09446981462333909,4.550626043403441,-1.9959229621635484,2.0280841827898475
-0.048963554189304676,4.588713632969463,-1.9756421203356498,2.3255907416263706
-0.0030764178596100478,4.620146390210912,-1.952386212919386,2.6239893939251235
0.04312504604249907,4.643506961997307,-1.9261463189801349,2.9219212106310097
0.08956011566247213,4.657360692636468,-1.8969271068738247,3.217902502877924
0.13613372258883683,4.6602792538317575,-1.8647480818450455,3.510352899149596
0.1827365151271544,4.650867009231929,-1.8296445528535494,3.7976281880658007
0.22924518521947368,4.627789404112824,-1.7916682709728915,4.078057255915023
0.27552307926060193,4.589802568281141,-1.7508876984137414,4.349982305003959
0.32142110494341336,4.535783235255067,-1.7073878753637017,4.611801442648871
0.36677893729596406,4.464757999178183,-1.661269860937213,4.8620126635655705
0.4114265172877459,4.375930839109082,-1.6126497343015573,5.099258186280864
0.4551858256788367,4.268707731968652,-1.5616571524387486,5.322368025164831
0.4978729029985232,4.142717057971983,-1.5084334721871002,5.530401574524808
0.539300073578243,3.9978244005835424,-1.4531294564418522,5.722685861440683
0.5792783175840784,3.8341402974774152,-1.3959025978274453,5.898849025068176
0.6176197205588526,3.6520195584828428,-1.3369141075767634,6.0588475571012745
0.654139916143681,3.4520509752853594,-1.2763256320057508,6.202985954017147
0.6886604258965346,3.235036629975784,-1.2142957724655794,6.331927740435635
0.7210107921962925,3.0019605560191813,-1.1509764950612231,6.446697350801874
0.7510303977564843,2.753947165871084,-1.0865095215532043,6.5486730891184886
0.7785698694151951,2.492210546998707,-1.0210227906620195,6.639572264451842
0.8034919748851822,2.217996332311298,-0.9546270680175011,6.7214305281952
0.8256719382082952,1.932518261892835,-0.887412762735549,6.796578305659303
0.8449971208272236,1.6368916863109293,-0.819446979678956,6.867617915256633
0.8613660376903328,1.3320660817766938,-0.7507708005263897,6.9374054277821635
0.8746866985080998,1.018758181236941,-0.681396746248568,7.009041497270986
0.8848742803204692,0.6973866717556741,-0.6113063312758582,7.085875278046139
0.891848147038026,0.3680087486728313,-0.5404475784953968,7.171525092609511
0.8955282345247543,0.030258449403871734,-0.4687323275693017,7.269918580288067
0.895830819018793,-0.3167128752224477,-0.396033141766421,7.385353192793893
0.8926636902665686,-0.6742914073492717,-0.3221796098384821,7.522574023835828
0.8859207761930759,-1.04444265741669,-0.24695386960012383,7.686857628329707
0.875476349618909,-1.4297185140395379,-0.17008529331682676,7.884072457471467
0.8611791644785136,-1.8331790883198957,-0.09124456874211209,8.120647819586464
0.8428473735953147,-2.2581187810401318,-0.01003809054624745,8.40330162005993
0.8202661857849134,-2.7073648196066045,0.07399492565435185,8.738210532876021
0.7931925375888473,-3.1816882165170246,0.16137703098311207,9.12898854417989
0.7613756554236771,-3.6765015496582625,0.25266691642491096,9.572323379070065
0.7246106399270945,-4.175690113042503,0.3483901502156116,10.049635925725251
0.6828537387966694,-4.6421688156682785,0.4488865094728641,10.514095990746336
0.6364320506399866,-5.009615160644798,0.5540274693803275,10.878963233026493
0.5863358990335387,-5.191491067826497,0.6628171017105925,11.029319614944246
0.5344209883552737,-5.126713318025711,0.7731102978600349,10.883835114209154
0.48315385517501663,-4.8358552620505035,0.8819486490021264,10.470642354268733
0.4347953025545116,-4.411742528391491,0.9866550725448138,9.91334820130449
0.39067787727059666,-3.949595388553843,1.0857885545578587,9.336014629884478
0.3511819233850582,-3.5050404178701076,1.1791487008567034,8.807997329991947
0.3161315192063571,-3.0989044498926974,1.267228674156623,8.352229260970184
0.28514247470743015,-2.7340333303989706,1.350750966766325,7.968621368045797
0.25780214140344043,-2.4064268178627652,1.4304371804467828,7.649020110609935
0.23373787322481276,-2.1103436710540313,1.506927381552882,7.383806279952312
0.21263443651427244,-1.8402275783518016,1.5807654443524053,7.164221356789278
0.19423216073075442,-1.5912876320074258,1.652407657920298,6.982948099097899
0.17831928441068015,-1.359574072899207,1.722237138911277,6.834072085910194
0.16472354368168807,-1.1418898148453835,1.790577859770379,6.712865665691394
0.15330464553323422,-0.9356659972935917,1.857706516427293,6.615552213579473
0.1439479855602983,-0.7388456633535603,1.9238620385630878,6.539099612612191
0.1365595289267627,-0.5497877234513069,1.9892530346892097,6.481052383446677
0.13106165169224965,-0.36719196562612744,2.0540635585236764,6.439398947937307
0.12738973203598838,-0.19004234563971778,2.1184575480030494,6.412467330550678
0.1254893085795912,-0.017565151410644547,2.1825822213085564,6.398842756145058
0.12531365706548475,0.150801046729692,2.246570648870007,6.3973017013323314
0.12682166753278168,0.3154262062244143,2.3105436658833303,6.406758157282995
0.12997592959502582,0.47650242049330044,2.3746112474561603,6.426218908312477
0.13474095379995882,0.6340519653036009,2.4388734365392852,6.454745479865333
0.14108147345299482,0.7879311490779466,2.5034208913379388,6.4914210888077095
0.1489607849437743,0.9378311721458439,2.568335102226016,6.535321482598139
0.15833909666523274,1.083277138662155,2.6336883170519974,6.5854890248802285
0.1691718680518543,1.2236263890555292,2.6995432073007994,6.640909809066583
0.1814081319424096,1.3580674163412279,2.7659523053914654,6.700493985246856
0.19498880610582187,1.4856207797867735,2.832957245243934,6.763059885405836
0.2098450139036896,1.6051436110652888,2.900587844097992,6.827322930469398
0.22589645001434247,1.7153394865011453,2.968861073402686,6.891890685675921
0.24304984487935394,1.8147755630230382,3.037779980259445,6.9552657608551725
0.2611976005095843,1.9019088733409042,3.107332637867997,7.015858463986464
0.2802166892429933,1.975123456077591,3.1774912225078618,7.072011114861671
0.29996792380376924,2.0327794562992265,3.2482113336564784,7.122035593036436
0.3202957183667615,2.0732743783814853,3.319431689586843,7.1642649112628956
0.34102846215057636,2.0951152601447434,3.3910743386994717,7.197118291052136
0.3619796147520238,2.0969987127490177,3.463045521609993,7.219177383290499
0.38294960187951393,2.077893723607317,3.535237295442898,7.229269087862429
0.4037285391155871,2.03712019958053,3.607529986321522,7.22654823129352
0.42409974111139237,1.9744149134491895,3.6797954686344574,7.21057167139884
0.4438438902458843,1.8899763107338452,3.7519011853484456,7.181354780614639
0.4627436533532227,1.7844808990772365,3.823714733154592,7.139402162978949
0.48058846234399505,1.6590667292253851,3.8951087547843817,7.0857070163971265
0.4971791296362489,1.5152834221368283,3.965965824948353,7.021717453154079
0.5123319638576171,1.3550125619905555,4.036182999479894,6.949272608550434
0.5258820894775227,1.1803661353933805,4.105675725565398,6.870515539867277
0.5376857508314565,0.9935732233336804,4.174380880964071,6.787792848917177
0.5476214830647933,0.7968658660706605,4.242258809453243,6.7035520970472975
0.5555901417254999,0.5923739209375347,4.3092943304237155,6.620247357548663
0.5615138809348753,0.38203624751918885,4.375496803999202,6.540261059510372
0.5653342434100672,0.16753236014223014,4.440899414594306,6.465847289803231
0.5670095670114895,-0.04976451897250711,4.505557887492339,6.399098652819179
0.5665119218217645,-0.26881475625980095,4.569548874020531,6.341936212207667
0.5638237742591664,-0.4889235797601816,4.632968236142608,6.296120283715585
0.5589345384615646,-0.7097409839875313,4.695929438979763,6.263278998666706
0.5518371286216893,-0.9312552403696511,4.75856222896643,6.244951519937574
0.5425245762179928,-1.1537848210134332,4.821011744165806,6.242643380623518
