th1 (rad),w1 (rad/s),th2 (rad),w2 (rad/s)
2.9166102294932923,0.9038870937683886,3.3257577691314273,-2.7362002384786486
2.9256491004309764,0.8802103257706928,3.2983957667466406,-2.6997817095203964
2.9344512036886834,0.8563031340065088,3.2713979496514365,-2.6650339170580915
2.9430142350287487,0.8324025067440087,3.2447476104808555,-2.6322162254694805
2.951338260096189,0.8087463128083989,3.2184254482261605,-2.601596597742376
2.959425723224273,0.785568143816091,3.1924094822487366,-2.573444274903351
2.9672814046624336,0.7630920040899604,3.166675039499703,-2.5480223040595837
2.9749123247033333,0.741527116247742,3.1411948164591075,-2.525580277640292
2.9823275958658106,0.7210630908221596,3.1159390136827048,-2.506347620100653
2.989538226774032,0.7018656671281795,3.0908755374816983,-2.4905277023167605
2.996556883445314,0.6840731770938419,3.065970260458531,-2.4782929880149362
3.0033976152162523,0.6677938225778689,3.0411873305783814,-2.4697813327890707
3.010075553442031,0.6531037981907116,3.016489517250491,-2.4650934761250904
3.016606591423938,0.6400462424163077,2.99183858248924,-2.464291699470563
3.0230070538481013,0.6286309638184326,2.9671956654945344,-2.4673995741538883
3.0292933634862855,0.6188348673397431,2.9425216697529955,-2.474402693281543
3.035481712159683,0.6106029966992889,2.91777764282018,-2.485250269596337
3.041587742126676,0.6038501094784473,2.8929251401242166,-2.4998574822729593
3.0476262432214605,0.5984627076591632,2.867926565301487,-2.5181084642670717
3.0536108702980522,0.5943014541893745,2.8427454806588166,-2.5398598327064876
3.059553884839946,0.5912039123582782,2.817346882331752,-2.564944673499466
3.065465923963529,0.588987547267556,2.791697435596757,-2.5931768949959317
3.0713557994362044,0.5874529267018473,2.765765666646798,-2.6243558631493693
3.077230328703223,0.5863870527257935,2.7395221080153043,-2.6582712229128864
3.083094199230481,0.585566746903672,2.7129393957861754,-2.6947077997030298
3.088949866699518,0.584762003363082,2.685992317789145,-2.733450463719438
3.0947974867331487,0.583739217439715,2.6586578131519505,-2.774288832028166
3.1006348789075457,0.5822641955334424,2.6309149248316688,-2.8170216815401727
3.10645752086288,0.580104855611684,2.602744708016267,-2.8614609523560093
3.112258569418997,0.5770335381201189,2.5741300984927067,-2.9074352361188445
3.118028904800198,0.5728288634822069,2.5450557461315184,-2.9547926673195963
3.1237571934350203,0.5672770935345712,2.5155078194583225,-3.003403164958181
3.1294299643703662,0.5601729781304419,2.4854737878087407,-3.053160004713075
3.1350316941516705,0.5513200924164765,2.4549421877616098,-3.1039807345480774
3.1405448950758355,0.5405306926986373,2.423902380416129,-3.1558074763779875
3.1459502020028216,0.5276251375230259,2.392344305652349,-3.2086066805111666
3.151226453378052,0.5124309344038563,2.360258238847237,-3.2623684164660234
3.1563507627220906,0.494781481046095,2.327634554682577,-3.3171052927922147
3.1612985775325515,0.4745145731194896,2.2944635017546546,-3.3728511000033485
3.1660437232637464,0.45147074936045484,2.2607349907546213,-3.4296592656437506
3.170558430757351,0.4254915400678108,2.2264383980981837,-3.4876012003046055
3.174813346158029,0.3964176781246698,2.1915623860951374,-3.546764599677766
3.1787775229392756,0.3640873237099365,2.15609474009836,-3.6072517520273815
3.182418396176375,0.32833434590857896,2.1200222225780863,-3.6691778840818863
3.1857017396354608,0.2889866973335918,2.0833304437372675,-3.732669562298298
3.1885916066087967,0.24586491225017063,2.0460037481142845,-3.797863151385539
3.1910502557312985,0.19878075494459752,2.0080251166004293,-3.864903318239987
3.1930380632807447,0.14753604342509816,1.9693760834180294,-3.933941557135342
3.1945134237149957,0.09192167405684268,1.930036667846676,-4.005134701025745
3.195432640455564,0.031716875394018434,1.8899853208364186,-4.078643373958934
3.195749809209504,-0.033311275816550884,1.8491988870968292,-4.154630330603661
3.1954166964513386,-0.10340803687074784,1.8076525837907926,-4.233258620536275
3.194382616082631,-0.17883083166892882,1.76531999758543,-4.314689507037359
3.1925943077659418,-0.259848675915055,1.7221731025150564,-4.3990800626681335
3.189995821006791,-0.3467411263738721,1.678182301888375,-4.486580356936962
3.1865284097430524,-0.43979667406870276,1.6333164983190054,-4.57733014524594
3.1821304430023654,-0.5393104897633102,1.5875431968665459,-4.671454963601362
3.1767373381047324,-0.6455814194263709,1.5408286472305321,-4.769061531166128
3.1702815239104685,-0.7589081188459851,1.493138031918871,-4.8702323638774585
3.1626924427220087,-0.8795842117670957,1.4444357082800963,-4.975019508711226
3.153896600604338,-1.0078923569624705,1.394685513192984,-5.08343732184411
3.143817677034713,-1.144097119130035,1.343851139974543,-5.195454237471688
3.132376705843413,-1.2884365595537521,1.291896597599826,-5.310983510253407
3.1194923402478754,-1.441112498594518,1.238786762497292,-5.429872966300353
3.1050812152619303,-1.6022794569795473,1.1844880328342884,-5.5518938681421375
3.089058420692135,-1.7720323599541983,1.128969094152867,-5.676729090326792
3.071338097092593,-1.9503931901254408,1.072201803249599,-5.8039609148461615
3.0518341651913388,-2.137296901836238,1.0141621941011374,-5.933058887542514
3.0304611961729764,-2.3325770596151116,0.9548316052257122,-6.063368322405991
3.0071354255768252,-2.5359518285722,0.8941979220016523,-6.194100189577102
2.9817759072911034,-2.7470111126108328,0.8322569201058813,-6.324323258236675
2.954305796164995,-2.965205787219877,0.7690136875235145,-6.452959464277612
2.9246537382927964,-3.18984008081464,0.7044840928807384,-6.5787835059887785
2.89275533748465,-3.420068190261282,0.6386962578208506,-6.700427607276852
2.8585546555820374,-3.654896138978114,0.5716919817480821,-6.81639219753054
2.8220056941922564,-3.893189671087679,0.5035280597727767,-6.925062919641553
2.7830737974813795,-4.133688606531263,0.43427743057636115,-7.02473389051642
2.741736911416067,-4.375027565685404,0.36403009167119693,-7.113636525899792
2.697986635759213,-4.61576234298766,0.292893726412199,-7.189972560230897
2.6518290123293364,-4.8544005349463,0.22099400080989004,-7.251949231666543
2.6032850069798736,-5.089434404509371,0.14847450849322463,-7.297814075148185
2.55239066293478,-5.31937350239279,0.07549636774174277,-7.3258864913102455
2.499196927910852,-5.542774372959789,0.0022375028286403115,-7.334583336620615
2.4437691841812543,-5.758264825160727,-0.07110833053756584,-7.32243626712394
2.3861865359296472,-5.964560775819573,-0.14433269320880524,-7.288099458363111
2.3265409281714513,-6.160474540394469,-0.21721368779243633,-7.230347542371359
2.2649361827675065,-6.344914564530111,-0.2895171632161499,-7.148065014791389
2.2014870371222055,-6.516877825938564,-0.3609978133640638,-7.040229800698925
2.13631825886282,-6.675437340838121,-0.43140011137105305,-6.905894948017452
2.0695638854544387,-6.8197282394272865,-0.5004590608512276,-6.744173379135833
2.001366603060166,-6.948936609531192,-0.5679007946425859,-6.554231136742906
1.9318772369648538,-7.062295649363723,-0.633443106010015,-6.3352944925197034
1.8612542804712167,-7.159093536805776,-0.696796050935212,-6.086675538780639
1.789663345103159,-7.23869673387,-0.7576628063230184,-5.807819344016435
1.7172763777644589,-7.300591121470031,-0.8157409997631828,-5.498373325189694
1.6442704665497585,-7.344441342523946,-0.8707247330150798,-5.158276133751111
1.570826053124519,-7.3701660356835745,-0.922307494352591,-4.787859179991975
1.4971243927676834,-7.378023437209179,-0.9701860861525107,-4.387949310808803
1.4233441583955917,-7.3686985244730865,-1.0140655792605986,-3.959956856209864
1.3496571731508609,-7.343380162022306,-1.0536651478226973,-3.5059303889681326
1.2762233715306377,-7.303815493677945,-1.0887244517123786,-3.0285594116965324
1.2031852165938584,-7.252329993023708,-1.119010045829344,-2.531109892854905
1.1306619166636214,-7.191805654096685,-1.144321144757893,-2.0172854303263072
1.0587438601226544,-7.125616531736484,-1.164493999061156,-1.4910178545679793
0.9874876948052895,-7.057529045649305,-1.1794041776068358,-0.956202924865004
0.9169124043487965,-6.991582233819701,-1.1889662068554858,-0.41640618771170024
0.8469965820105995,-6.931968464382743,-1.1931302687326029,0.12543194871592644
0.777676897366772,-6.882936669801549,-1.1918759492454436,0.6672658861386229
0.7088475306687565,-6.848737898926825,-1.1852032903840575,1.208172691450749
0.6403601516794882,-6.833628126120118,-1.17312156346955,1.7485351000055163
0.5720238704182871,-6.841937786129394,-1.1556362124694948,2.2901909581966438
0.5036044925569931,-6.8782132771247335,-1.1327343028875283,2.836572604389994
0.4348223597857458,-6.947433582526327,-1.1043685768436284,3.3928677452300997
0.3653480239604825,-7.0553042730224815,-1.0704398993913273,3.9662354390443575
0.29479498123025766,-7.208627169814793,-1.0307775450008838,4.566102378952424
0.22270870953210972,-7.415724998336722,-0.9851165212113596,5.2045316387474285
0.1485514595487425,-7.686834963266232,-0.9330712048238854,5.896556785402514
0.07168310991608016,-8.0341895280306,-0.8741056369698602,6.660093276852345
-0.008658785364225832,-8.47095708274717,-0.8075047042013368,7.514269762878074
-0.09336835619169753,-9.006785522311715,-0.732362006572556,8.473016418671282
-0.1834362114148147,-9.634389455084735,-0.6476318423858431,9.526120269147375
-0.27978010596566205,-10.296633388683409,-0.5523706396943694,10.592975309871306
-0.3827464398524961,-10.830346544127334,-0.44644088659565634,11.443839745392875
-0.49104990529376946,-10.956729132266613,-0.3320024891417276,11.686939127687634
-0.6006171966164355,-10.503168426034483,-0.21513309786485124,11.080912488130735
-0.7056488808767803,-9.681856241229381,-0.10432397298354389,9.92599307229089
-0.8024674432890742,-8.838425263339229,-0.0050640422606349905,8.7104052018119
-0.8908516959224665,-8.128136286917654,0.08204000975748402,7.6557495780707026
-0.972133058791643,-7.564462486176143,0.15859750553819105,6.784368376275911
-1.0477776836534045,-7.121539421539057,0.22644118930095014,6.062513371364526
-1.118993077868795,-6.7718721965796576,0.2870663230145954,5.453299798816332
-1.1867117998345917,-6.493920234209939,0.3415993210027587,4.927595943658411
-1.2516510021766911,-6.271919024785879,0.39087528043934283,4.464008093721603
-1.3143701924245499,-6.09442900984702,0.4355153613765589,4.0470326069995775
-1.3753144825230201,-5.953042044886839,0.4759856874465547,3.665394063910012
-1.4348449029718886,-5.841434382625923,0.5126396280856548,3.310850203595595
-1.4932592467981478,-5.7547038211483175,0.5457481301216107,2.977386781794273
-1.550806285009631,-5.688905991056172,0.5755219979395535,2.6606879874040414
-1.6076953449201927,-5.640725264071898,0.6021288778135939,2.357791488472735
-1.6641025975609116,-5.607237947115727,0.6257067926983213,2.066863145846466
-1.720174977032069,-5.585742139948844,0.646375424156786,1.7870448884590155
-1.7760323984315574,-5.573640094587647,0.6642458730413761,1.5183409444814582
-1.8317687993774339,-5.568366259927804,0.6794292824861906,1.2615151658008172
-1.887452461976712,-5.567358195004718,0.6920444341441988,1.017978052135446
-1.943126043926759,-5.5680685819327165,0.7022242146655533,0.789648225559484
-1.9988067297460863,-5.568014997687874,0.7101206969211481,0.5787807130467115
-2.054486879722965,-5.564860536768569,0.7159085040516152,0.38776361842531526
-2.110135485090651,-5.556513939299545,0.7197861402358684,0.21889457217747232
-2.1657006244836463,-5.541234114485432,0.7219750859576431,0.07415672205296531
-2.2211129656285005,-5.517722401851555,0.7227166531781728,-0.044981337184414216
-2.276290189647016,-5.485187531807809,0.7222668398063287,-0.1377180033991291
-2.331142064965094,-5.4433729343445725,0.7208896597723373,-0.20400590575368316
-2.3855757943085396,-5.392542643372802,0.7188496007148005,-0.24456627480693305
-2.4395012207422675,-5.333428819054437,0.7164039379667312,-0.2608337437951808
-2.492835508932812,-5.267149257349662,0.7137956005287793,-0.25484418491979893
-2.5455070015063086,-5.195106254887532,0.7112471586795813,-0.22908402486293464
-2.597458064055184,-5.118878764252982,0.708956318430952,-0.1863213622716607
-2.6486468516977135,-5.040118443187794,0.7070931048082354,-0.1294377117717835
-2.6990480361295917,-4.960457748673684,0.7057987276905175,-0.06127546502326077
-2.7486526136163283,-4.881435368140826,0.705185973040285,0.015488615343593332
-2.7974669672977366,-4.804441523697666,0.7053408591937209,0.09843840990466955
-2.8455113825347134,-4.730683329531188,0.7063252432927676,0.18548080326090802
-2.892818215830025,-4.661168572625804,0.7081800513253766,0.27487760633453373
-2.939429901556283,-4.596705070498745,0.710928827388722,0.36525156174659973
-2.9853969522612704,-4.537912118631066,0.714581343006188,0.45557220307089125
-3.0307760734475813,-4.485240404811181,0.7191370650368969,0.5451276622954913
-3.0756284774956932,-4.438997027980194,0.7245883416598518,0.6334881300122553
-3.1200184477754953,-4.399372783523951,0.7309232229599744,0.7204658180740655
-3.164012175610735,-4.366469533269357,0.738127881140715,0.8060751952388069
-3.2076768709434287,-4.340326154318852,0.7461886330931031,0.8904961611813205
-3.251080132486617,-4.32094217574997,0.7550935947049163,0.9740418316735071
-3.294289554244117,-4.308298720379152,0.7648340130216514,1.0571318044716338
-3.3373725414479085,-4.302376754860002,0.7754053310663678,1.140271186736774
-3.3803963089965086,-4.303172921925472,0.7868080429337355,1.2240352800609227
-3.4234280382157634,-4.310713403033836,0.7990483957343447,1.3090596078515726
-3.4665351722461017,-4.3250663627539225,0.8121389918128604,1.3960348942613832
-3.509785835873641,-4.346353582652529,0.8260993407554742,1.4857066277338264
-3.5532493717001663,-4.374761923975351,0.8409564070328125,1.5788789351764188
-3.5969969909399198,-4.410555282508364,0.8567451963845767,1.6764226317013027
-3.6411025437650033,-4.454087728466792,0.8735094227015897,1.779287479243422
-3.6856434210496714,-4.505818566929664,0.8913022974940239,1.8885188726631423
-3.7307016067189678,-4.566330112023028,0.9101874862206554,2.005279361353626
-3.776364907839198,-4.636349033335235,0.9302402798341917,2.130875587514731
-3.8227283981725506,-4.716772181812366,0.951549035709339,2.2667913380944897
-3.869896119990674,-4.808697777847376,0.9742169490902839,2.4147273795241584
-3.917983097769148,-4.9134626240775185,0.9983642228855255,2.5766483926229466
-3.967117724009923,-5.0326853348177245,1.0241307068117549,2.754836279524452
-4.0174445773581,-5.16831393136222,1.0516790696069993,2.9519466239676886
-4.069127716671723,-5.322672479185335,1.0811985358466762,3.1710596367011843
-4.122354441463576,-5.4984936117802015,1.1129091322136881,3.4157054814870538
-4.1773393775813785,-5.6989075823335265,1.1470661870285588,3.689820483941986
-4.234328453404713,-5.927325807445442,1.1839643918679787,3.9975439427276314
-4.293601711479168,-6.187093127023375,1.223939831295255,4.342674583250505
-4.355472642749402,-6.480665806472649,1.26736657712776,4.727439823707746
-4.420279300814128,-6.807882592372174,1.3146409753648376,5.149963936602978
-4.48835812673785,-7.162682922294246,1.3661406147308675,5.599524181676367
-4.559984955960792,-7.5277324924124285,1.4221358565476312,6.048845310374516
-4.635262280884916,-7.867961394289044,1.4826243096513763,6.444889979513753
-4.713941894827807,-8.128847644796256,1.5470732094465138,6.706463356057884
-4.795230371275769,-8.251454267866105,1.6141378430070927,6.745715886898671
-4.87774491395443,-8.208068343672561,1.6815950018760795,6.519081218478632
-4.959825597391156,-8.028429467732403,1.7467858140608659,6.065153414438268
-5.04010989206848,-7.779860341468779,1.8074373482052486,5.477210397255635
-5.117908495483167,-7.524103314354063,1.862209452177805,4.842104018181296
-5.193149528626708,-7.296758672298095,1.910630492359618,4.210529115476731
-5.266117115349688,-7.111463308260829,1.9527357835143853,3.6023042684639113
-5.337231748432297,-6.969940665614035,1.9887588261990243,3.0202935233674824
-5.406931155088437,-6.8689369634881485,2.018961761432699,2.460199179700889
-5.475620524723319,-6.803647408113873,2.043563753229708,1.915527431474778
-5.543656998804458,-6.769110297160301,2.062719027544456,1.3797340167708358
-5.611348101776061,-6.760652000792296,2.0765163677121645,0.8470471368986645
-5.6789546217839835,-6.7739364967404345,2.084986839081151,0.31273852683909986
-5.746693986751388,-6.804868338986348,2.088114224349542,-0.22681121976293694
-5.814742670141252,-6.849454787767338,2.0858461121519127,-0.7741101920303908
-5.883237218018925,-6.903671189854651,2.0781050102316088,-1.3305632836338566
-5.952273929917472,-6.963348621915026,2.0647993773952704,-1.8964780359510867
-6.021907416136622,-7.02409313680694,2.0458345970357596,-2.471072257767068
-6.092148347504691,-7.0812422442067495,2.021123874458089,-3.0524942201801775
-6.162960769946758,-7.129862366594121,1.9905989322562871,-3.6378678608549517
-6.2342593936126995,-7.164789191165794,1.9542202536477375,-4.223374014622615
-6.305907285524357,-7.180710514435656,1.9119865135015115,-4.8043752229438965
-6.377714390668714,-7.172288410721018,1.8639427612720725,-5.375586978119095
-6.449437274775924,-7.134314727043182,1.8101868914908814,-5.931293229286792
-6.520780422046356,-7.061891436402414,1.7508739591980136,-6.465599517760163
-6.5913993364103804,-6.950625489189844,1.686217964020412,-6.972713853476032
-6.660905591302279,-6.796826375132427,1.6164908254856516,-7.447243504125918
-6.728873855053603,-6.597693266706388,1.5420183904443925,-7.8844947892648465
-6.794850787720667,-6.351477000485601,1.463173442551744,-8.280762004703973
-6.858365557725523,-6.05760031706246,1.3803658225047042,-8.633590224561939
-6.9189415608961475,-5.716718460173029,1.2940299202590848,-8.941995161101392
-6.976108745497878,-5.330702781708533,1.204609968648071,-9.206622670273227
-7.029415773314963,-4.902533853839422,1.1125437419453386,-9.429832636915577
-7.0784411118533574,-4.43609846309987,1.0182454155761829,-9.615698380750803
-7.122802096484357,-3.935895997964641,0.9220884317686748,-9.769923705517453
-7.162161056464003,-3.406671746209482,0.8243891947135003,-9.899693811521121
-7.196227773926098,-2.85300411363738,0.725392256598289,-10.01349053618037
-7.224757815062471,-2.278876718692252,0.6252573512364853,-10.12091332798565
-7.247546582249393,-1.6872634233261676,0.5240482179566288,-10.23255230299025
-7.264419216482655,-1.0797460779818604,0.4217226949267263,-10.359957287462592
-7.275216677262474,-0.4561757921557773,0.31812312205210036,-10.515735768120116
-7.279778435184031,0.18561204307347334,0.2129657643708992,-10.713788532532138
-7.2779223147532965,0.8499932020876133,0.10582787904557782,-10.969637666419807
-7.2694223827324205,1.54353340636739,-0.0038684976186202508,-11.300668117968582
-7.253987048668747,2.2743704278992225,-0.11687517879830607,-11.725760876117539
-7.231243344389754,3.0499777888469284,-0.23413278755948147,-12.262924699010256
-7.200743566501285,3.870790981757871,-0.35676203454958405,-12.921469642227743
-7.162035656683706,4.714337148873607,-0.48597673097186145,-13.681274530003302
-7.11489228519497,5.50263456075228,-0.6227894762718944,-14.448827765782399
-7.059865939587447,6.061937211341904,-0.7672777539297184,-15.001604166838511
-6.999246567474028,6.155897695057438,-0.9172937955981035,-15.030986252937373
-6.937687590523454,5.700704457713876,-1.0676036581274773,-14.43142677275215
-6.880680545946315,4.912796451584291,-1.2119179258549988,-13.49348088610748
-6.831552581430472,4.066138194430278,-1.3468527347160737,-12.570776065273378
-6.790891199486169,3.286889336639115,-1.4725604953688074,-11.81303995896745
-6.758022306119778,2.595884000665106,-1.590690894958482,-11.233157482853517
-6.732063466113127,1.9796224540251472,-1.703022469787017,-10.803852973753441
-6.712267241572875,1.4194697741724431,-1.8110609995245515,-10.495043592950484
-6.698072543831151,0.8993474281811538,-1.9160114354540563,-10.28244223994407
-6.689079069549339,0.40680509559551986,-2.018835857853497,-10.147866626280718
-6.685011018593384,-0.06746471003970483,-2.120314524116304,-10.077868525991889
-6.685685665693781,-0.5302844650245871,-2.2210932093762232,-10.06235819924693
