th1 (rad),w1 (rad/s),th2 (rad),w2 (rad/s),a1 (rad/s^2),a2 (rad/s^2)
4.842673271394155,2.2902627845975987,5.764927689107871,-2.8186586204420405,15.508248184831642,-8.693095293164097
4.865575899240131,2.445345266445915,5.7367411029034505,-2.9055895733736814,16.082474592418638,-9.83843953965627
4.89002935190459,2.6061700123701015,5.707685207169714,-3.0039739687702443,16.718043332221836,-11.05548845062376
4.916091052028291,2.7733504456923197,5.677645467482011,-3.114528853276482,17.40487045745783,-12.326284388909311
4.943824556485214,2.947399150266898,5.646500178949246,-3.237791697165575,18.121774659228084,-13.616766308129874
4.973298547987882,3.128616896859179,5.614122261977591,-3.373959360246874,18.830295719769257,-14.86792899182857
5.004584716956474,3.3169198540568714,5.580382668375122,-3.5226386501651596,19.46624219284745,-15.983764937518071
5.037753915497043,3.511582275985346,5.54515628187347,-3.6824762995403404,19.929361501853187,-16.81655002371337
5.072869738256896,3.710875891003878,5.508331518878067,-3.850641799777474,20.073430980908817,-17.152731385922426
5.109978497166935,3.9116102008129663,5.469825100880292,-4.022169113636698,19.702923521252437,-16.70813232578196
5.149094599175065,4.1086394360254905,5.429603409743925,-4.189250436894517,18.588191846971956,-15.149390133550487
5.19018099353532,4.29452135449521,5.38771090537498,-4.340744338230023,16.515476688621593,-12.164748366879046
5.2331262070802715,4.459676121381426,5.34430346199268,-4.462391821898813,13.380882514898218,-7.597289623665785
5.277722968294086,4.593484946530408,5.299679543773691,-4.538364718135471,9.305285298040308,-1.6083296801677731
5.32365781775939,4.686537799510811,5.254295896592336,-4.554448014937148,4.696370771320592,5.233062495651031
5.370523195754498,4.733501507224017,5.208751416442965,-4.502117389980638,0.17055245721878892,12.057892585976811
5.417858210826738,4.735207031796205,5.163730242543158,-4.38153846412087,-3.6644982692947896,18.00243215629003
5.4652102811447,4.6985620491032565,5.119914857901949,-4.201514142557969,-6.4323572411853895,22.52244322463106
5.5121959016357325,4.634238476691403,5.077899716476369,-3.976289710311659,-8.06698453359975,25.50729251761648
5.558538286402647,4.553568631355406,5.0381368193732525,-3.721216785135494,-8.73434088160751,27.17274655152328
5.604073972716201,4.466225222539331,5.000924651521897,-3.449489319620261,-8.69621096411361,27.871486350828558
5.648736224941594,4.379263112898195,4.966429758325694,-3.1707744561119755,-8.206659485531208,27.948143448561936
5.692528856070576,4.297196518042883,4.934722013764575,-2.891293021626356,-7.465445344641087,27.673437320314733
5.735500821251004,4.222542064596472,4.905809083548312,-2.6145586484232086,-6.6114757421834485,27.234187912815855
5.777726241896969,4.156427307174638,4.8796634970640795,-2.34221676929505,-5.733764480744847,26.747911752689934
5.819290514968715,4.099089662367189,4.856241329371129,-2.0747376517681504,-4.885942467471401,26.28256039289792
5.860281411592387,4.050230237692475,4.835493952853448,-1.8119120478391713,-4.098596456372095,25.87338972284859
5.900783713969312,4.009244273128753,4.817374832375056,-1.5531781506106854,-3.388166473210123,25.535153391980305
5.940876156700599,3.975362608396652,4.801843050868949,-1.2978266166908825,-2.7628366689532555,25.270197270981594
5.980629782784566,3.9477342417071193,4.7888647847020405,-1.0451246439810666,-2.2262364561164056,25.073574581296537
6.020107125201637,3.9254718771459554,4.77841353826223,-0.7943888981681013,-1.7796763290219066,24.93618083589725
6.059361843973097,3.907675113855736,4.770469649280549,-0.5450270898091288,-1.4234457734074613,24.84663896342276
6.098438595111654,3.8934406561216615,4.7650193783824575,-0.2965607001749012,-1.1575248975756087,24.792423412611967
6.137373001672871,3.8818654071459053,4.7620537713807085,-0.04863646604878155,-0.9819337893570103,24.76053560474393
6.17619165574433,3.872046069252335,4.7615674067202205,0.19896888999865775,-0.8968589601695286,24.73792502649023
6.214912116436854,3.8630774796506397,4.763557095620207,0.44634814026356007,-0.9026428040227382,24.71177445008937
6.25354289123336,3.8540510516104125,4.768020577022843,0.6934658847644537,-0.9996893287682925,24.669719952572766
6.292083401749465,3.8440541583227295,4.774955235870487,0.9401630842901814,-1.1883199490089313,24.600046314220005
6.330523943332692,3.83217095883264,4.784356866713389,1.1861635474323815,-1.468601825808689,24.491879272026267
6.368845652921019,3.8174849405745532,4.796218502187712,1.4310823401526442,-1.8401648608656977,24.335383787198683
6.407020502326764,3.7990832919658963,4.810529325589239,1.674436178024631,-2.3020199534609787,24.121969428890385
6.445011335246424,3.7760630924312863,4.827273687369486,1.9156558723135348,-2.8523892163027935,23.844498700043676
6.482771966170737,3.7475392002682586,4.846430246092621,2.1541008593139717,-3.488557711075195,23.497490786534858
6.520247358173419,3.7126536231575065,4.86797125468576,2.38907576717932,-4.206755405177944,23.077311310191497
6.557373894404995,3.670586069105727,4.891862012357554,2.619848880281235,-5.002077170503097,22.582337914863675
6.594079755096052,3.620565297400696,4.918060501160366,2.845672259429872,-5.8684475813007335,22.01309171103403
6.630285408070059,3.561880821587689,4.946517223754665,3.065803176540212,-6.798635947619026,21.372325588211854
6.665904216285936,3.4938944621114985,4.977175255520066,3.2795264324223306,-7.784325423272684,20.66506203634833
6.700843160907051,3.4160512078787715,5.009970519844289,3.486177052785814,-8.816238161355079,19.89857527749132
6.7350036729858385,3.327888826265221,5.044832290372147,3.685162805560727,-9.884316379462055,19.08231509962709
6.7682825612484905,3.2290456624706003,5.081683918427754,3.875985956556998,-10.977956877801779,18.227772731779922
6.800573017873196,3.1192660936925827,5.120443777993324,4.058263683874797,-12.086294085926193,17.348292340861676
6.831765678810122,2.998403152833321,5.1610264148320715,4.231746607283414,-13.198524197319959,16.45883519463219
6.861749710338455,2.8664179108601213,5.203343880904906,4.396334959229736,-14.304260540517081,15.57570711157553
6.890413889447056,2.7233753054549505,5.247307230497203,4.5520920303454915,-15.39390824665543,14.716263334749026
6.917647642501605,2.5694362229883962,5.292828150800657,4.699254663692982,-16.459044768845526,13.898608176304297
6.943342004731489,2.404845775299941,5.339820697437587,4.838240745456025,-17.492792158669136,13.141309372891234
6.967390462484489,2.22991785371325,5.388203104892147,4.969653839184937,-18.490167425890487,12.46314872792616
6.989689641021622,2.045016179454345,5.4378996432839966,5.094285326464198,-19.448398884087183,11.882930960798442
7.010139802816165,1.8505321906134733,5.488842496548639,5.2131146360721825,-20.367198987459403,11.419371434442496
7.0286451247223,1.6468602007388793,5.540973642909361,5.327308350416607,-21.248987362692034,11.091080299754775
7.045113726729689,1.434370327111959,5.594246726413527,5.438219153414155,-22.099060708736637,10.916655179110244
7.059457430000808,1.2133797200245926,5.6486289179476685,5.547385705205258,-22.9257076121349,10.91488603310201
7.071591227201054,0.9841226439032436,5.704102774999721,5.656534565536278,-23.74026393268983,11.105062632000475
7.081432453640087,0.7467200045763452,5.760668120655084,5.767585191856282,-24.557094727176697,11.507353551581593
7.08889965368585,0.5011490573045783,5.818343972573647,5.882658727372099,-25.393465735991292,12.143188751073765
7.093911144258896,0.24721439994466532,5.877170559847368,6.004090614882837,-26.26922079190034,13.035511902070187
7.096383288258343,-0.01547780797433812,5.937211465996197,6.134445733903538,-27.20609232137859,14.208648012398802
7.0962285101786,-0.28753873118812406,5.998555923335232,6.276532214027526,-28.226306483480688,15.68730916580982
7.093353122866718,-0.5698017960229309,6.061321245475507,6.433405305685624,-29.34984217652817,17.493851328723316
7.087655104906489,-0.8633002177882126,6.125655298532363,6.608343818972857,-30.589161569655438,19.64215211697378
7.079022102728606,-1.169191833484767,6.191738736722092,6.804765340142595,-31.939290697886403,22.125174911122905
7.067330184393758,-1.4885847404636312,6.2597863901235185,7.026017089253823,-33.3596049759669,24.89114025167776
7.052444336989121,-1.8221807902233003,6.330046561016057,7.274928491770601,-34.74155585756433,27.80018743094674
7.034222529086889,-2.1695963487989434,6.402795845933763,7.552930366080068,-35.85482658769169,30.550744969848925
7.0125265655988995,-2.52814461467586,6.478325149594564,7.858437815778558,-36.26734193298682,32.56842111682862
6.987245119452141,-2.8908180340057283,6.5569095277523495,8.184122026946843,-35.25498879595118,32.87778538880361
6.958336939112084,-3.2433679219652403,6.638750748021818,8.51289988083488,-31.780191210001437,30.064366813105877
6.925903259892432,-3.5611698340652547,6.723879746830167,8.813543548965939,-24.73574725469277,22.596978480929216
6.89029156155178,-3.8085273066121825,6.8120151823198265,9.039513333775231,-13.68918203109462,9.83716637107717
6.852206288485658,-3.9454191269231287,6.902410315657579,9.137884997486003,0.09044201508460231,-6.559453902316577
6.812752097216427,-3.9445147067722828,6.993789165632439,9.072290458462836,13.52337017061659,-22.496252123350004
6.7733069501487035,-3.8092810050661168,7.084512070217067,8.847327937229336,23.472017842960568,-33.82692828923292
6.7352141400980425,-3.574560826636511,7.172985349589361,8.509058654337007,28.76510323584436,-39.0832433409193
6.699468531831678,-3.2869097942780674,7.258075936132731,8.118226220927815,30.24301147324857,-39.48283368898746
6.666599433888897,-2.984479679545582,7.3392581983420095,7.72339788403794,29.42434683251765,-37.09472004332456
6.636754637093441,-2.6902362112204052,7.416492177182389,7.352450683604695,27.53897425333814,-33.54847344895544
6.609852274981237,-2.4148464686870237,7.4900166840184355,7.01696594911514,25.318445326623475,-29.78165843176226
6.585703810294366,-2.161662015420789,7.560186343509587,6.719149364797517,23.123998087232074,-26.232751777217526
6.5640871901401585,-1.9304220345484682,7.627377837157562,6.456821847025342,21.105584487768905,-23.063588125250202
6.5447829697946736,-1.719366189670779,7.691946055627816,6.22618596577284,19.30791502507155,-20.30352914360366
6.527589307897966,-1.5262870394200636,7.754207915285544,6.023150674336803,17.728325410291312,-17.92613341373809
6.512326437503765,-1.3490037853171506,7.814439422028912,5.843889340199421,16.345450493383368,-15.885958150703958
6.498836399650593,-1.185549280383317,7.872878315430906,5.685029758692382,15.132555937546458,-14.134883460417253
6.48698090684676,-1.0342237210078524,7.92972861301783,5.54368092408821,14.063326656966646,-12.62863340209841
6.4766386696366816,-0.893590454438186,7.985165422258712,5.417394590067225,13.11409481827074,-11.328833617876056
6.4677027650923,-0.7624495062554786,8.039339368159384,5.304106253888465,12.264452277548486,-10.203153278313009
6.460078270029745,-0.6398049834799937,8.092380430698269,5.202074721105335,11.497173243985694,-9.224708848722603
6.453680220194945,-0.5248332510401368,8.144401177909321,5.109827632618109,10.797877928469127,-8.371255193767109
6.448431887684544,-0.41685447175544554,8.195499454235502,5.026115080680438,10.15463101755068,-7.62438533179859
6.444263342966989,-0.31530816157993874,8.245760605042307,4.949871227362452,9.557556791758179,-6.968821126848629
6.44111026135119,-0.21973259366235695,8.295259317315931,4.880183016093966,8.998500671469056,-6.391815773613137
6.438912935414566,-0.1297475869476664,8.344061147476872,4.816264858357835,8.470743600147495,-5.882663527570375
6.43761545954509,-0.04504015094619143,8.392223796060449,4.757438223082131,7.968765882196313,-5.432303135999691
6.437165058035628,0.0346475078757717,8.439798178291271,4.7031151917221345,7.48805362326434,-5.032999619606133
6.437511533114386,0.1095280441084151,8.486829330208492,4.652785195526073,7.024940291488766,-4.678090154719819
6.43860681355547,0.17977744702330278,8.533357182163753,4.6060042939788755,6.5764764719348054,-4.361781864916337
6.440404588025703,0.24554221174265084,8.579417225103542,4.562386475329712,6.140321850978662,-4.078991502351321
6.4428600101431295,0.3069454302524375,8.62504108985684,4.5215965603061985,5.714654497028717,-3.8252189502922582
6.445929464445654,0.36409197522272463,8.670257055459901,4.483344370803276,5.298093456985353,-3.5964481093188376
6.449570384197881,0.41707290979257816,8.715090499167934,4.447379889710088,4.8896315171934575,-3.389070040577631
6.4537411132958065,0.46596922496451276,8.759564298065035,4.413489189304311,4.488575678271907,-3.1998242685442713
6.458400805545452,0.5108549817472319,8.803699189958078,4.381490946618868,4.094493476722899,-3.0257549412139215
6.463509355362924,0.5517999165144609,8.847514099424266,4.3512333972067285,3.7071637692763084,-2.8641791538045784
6.469027354528069,0.588871554207224,8.891026433396334,4.322591605668682,3.326530995193375,-2.7126652027809826
6.474916070070141,0.6221368641591578,8.93425234945302,4.295464953640873,2.952662262149358,-2.569018882619567
6.481137438711733,0.6516634867806514,8.977206998989429,4.269774764814677,2.585706875611957,-2.4312761933751044
6.48765407357954,0.677520555536771,9.019904746637575,4.2454620028809265,2.225858160670509,-2.297701011636884
6.494429279134907,0.6997791371434762,9.062359366666385,4.222484992764557,1.8733176182736873,-2.166786404596989
6.501427070506343,0.718512313326213,9.10458421659403,4.200817128718588,1.528261622605749,-2.037258346530951
6.508612193639605,0.7337949295522705,9.146592387881217,4.180444545253278,1.1908110092223765,-1.9080806363215719
6.515950142935128,0.7457030396444944,9.18839683333375,4.161363738890062,0.8610040291498604,-1.7784598200238741
6.523407173331573,0.754313079935993,9.23001047072265,4.143579140689823,0.5387732546182731,-1.6478489007642945
6.530950304130933,0.7597008124821757,9.27144626212955,4.127100651682181,0.2239271164435914,-1.515948578726436
6.538547312255754,0.7619400836466116,9.31271726864637,4.111941165894916,-0.08386317382760629,-1.3827047198842388
6.54616671309222,0.7611014519083356,9.353836680305319,4.098114118696074,-0.38507052207947107,-1.2483007222833529
6.553777727611304,0.7572507466875409,9.39481782149228,4.085631111473241,-0.6803118799592396,-1.113143458148603
6.561350235078179,0.7504476278879485,9.435674132607012,4.0744996768917545,-0.9703404848771257,-0.9778415500672485
6.568854711357059,0.7407442230391772,9.47641912937593,4.064721261391082,-1.256029855108548,-0.8431749252586151
6.57626215358745,0.7281839244880917,9.51706634198984,4.056289512138496,-1.5383492591584698,-0.7100549188394338
6.583543992832331,0.712800431896507,9.557629237111225,4.049188962950101,-1.818330786481046,-0.5794746939078405
6.590671997151296,0.6946171240316965,9.598121126740725,4.043394216011023,-2.097028693431152,-0.4524504268154264
6.597618168391613,0.673646837097385,9.638555068900835,4.038869711742868,-2.3754723711919192,-0.32995455843862853
6.604354636762587,0.6498921133854658,9.678943766018264,4.0355701661584815,-2.6546150421256893,-0.2128433900167124
6.6108535578964425,0.623345962964209,9.71929946767985,4.033441732258314,-2.935281067474083,-0.10178231773187159
6.617087017526084,0.5939931522894681,9.759633885002433,4.032423909080996,-3.2181154426826026,0.0028270738602694037
6.623026949048979,0.5618119978626421,9.799958124093243,4.0324521798195985,-3.503539545669207,0.10091316007121748
6.6286450690276055,0.52677660240595,9.840282645891438,4.033461311420311,-3.7917173628456013,0.19278849791625335
6.633912835051665,0.488859428777494,9.880617259005641,4.035389196399473,-4.082536142931526,0.2791872353511086
6.6388014293394395,0.44803406734817874,9.920971150969635,4.038181068752984,-4.3756046633357855,0.36128173293692994
6.643281770012921,0.4042780207148209,9.961352961657164,4.0417938860823535,-4.6702710548184205,0.4406759495145617
6.647324550220069,0.3575753101666367,10.001770900517988,4.046200645577499,-4.965660520085412,0.5193751609668982
6.650900303321735,0.30791870496578255,10.042232906973762,4.051394397187168,-5.260731484969153,0.5997338605226923
6.653979490371393,0.25531139011609105,10.082746850945634,4.057391735792395,-5.55434697700387,0.6843859286885232
6.656532604272554,0.19976792034605234,10.123320768303557,4.06423559507928,-5.845356589362093,0.7761630407235165
6.658530283476015,0.1413143544524314,10.16396312425435,4.071997225486515,-6.132683475958108,0.8780085250681969
6.659943427020539,0.07998751969285033,10.204683096509214,4.080777310737197,-6.415410572782521,0.9928943256715477
6.660743302217468,0.01583341396502512,10.245490869616587,4.090706253993913,-6.692860679549811,1.1237483210870949
6.660901636357118,-0.051095192830472994,10.286397932156525,4.101943737204784,-6.964666081718119,1.2733981213933727
6.660390684428814,-0.12074185364765418,10.327417369528574,4.114677718418718,-7.230824873994569,1.444535821842846
6.659183265892337,-0.19305010238759987,10.36856414671276,4.129123076637146,-7.491742841409553,1.639706324371756
6.657252764868461,-0.2679675308016954,10.409855377479131,4.145520139880864,-7.748261438696607,1.86132003489633
6.654573089560444,-0.34545014518866146,10.451310578877939,4.164133340229827,-8.001673896568482,2.111689250852208
6.651118588108557,-0.4254668841543463,10.492951912280237,4.185250232738349,-8.253732652776414,2.393086537422073
6.646863919267013,-0.5080042106821104,10.53480441460762,4.20918109811257,-8.5066521092734,2.7078229322389658
6.641783877160193,-0.5930707317748445,10.576896225588746,4.23625932743496,-8.76311117569224,3.05834391849584
6.635853169842444,-0.6807018435317669,10.619258818863095,4.266842766619918,-9.026260247261462,3.447341710872465
6.629046151407127,-0.7709644460043815,10.661927246529293,4.301316183728643,-9.29973728722808,3.877883424923281
6.621336506947083,-0.8639618188766623,10.70494040836658,4.340095017977876,-9.587697656328551,4.3535560639190125
6.612696888758316,-0.9598387954399479,10.748341358546359,4.383630578617066,-9.894862366875046,4.878630890507516
6.603098500803917,-1.0587874191086983,10.79217766433253,4.432416887522142,-10.226589632924808,5.4582516149486375
6.59251062661283,-1.1610533154379463,10.83650183320775,4.4869994036716285,-10.588975013055686,6.09865291614769
6.5809000934584505,-1.2669430655685032,10.881371827244466,4.547985932833106,-10.988986136930663,6.80741812059228
6.568230662802765,-1.37683292693781,10.926851686572798,4.616060114039028,-11.434638956691618,7.593787385622624
6.554462333533388,-1.491179316504726,10.973012287713187,4.691997987895254,-11.935223560037794,8.469030374380983
6.5395505403683405,-1.610531552105104,11.01993226759214,4.776688291639064,-12.501588529110286,9.446899867575196
6.52344522484729,-1.7355474373962068,11.06769915050853,4.871157290314816,-13.146492959720861,10.544184260449244
6.506089750473328,-1.8670123669934153,11.116410723411677,4.976599132919309,-13.885033141042472,11.781375678439614
6.487419626803394,-2.00586269840384,11.166176714740871,5.094412889703705,-14.735143563872521,13.183462690406177
6.4673609998193555,-2.1532141340425652,11.217120843637908,5.226247516607766,-15.71815326041187,14.780834244393581
6.44582885847893,-2.310395666646684,11.269383318803985,5.374055859051702,-16.85933595792665,16.61022771890345
6.4227249018124635,-2.47898902622595,11.323123877394503,5.540158136240737,-18.188300539503416,18.715534141450075
6.397935011550204,-2.6608720316209844,11.37852545875691,5.727313477655238,-19.738874472737262,21.148015997042464
6.371326291233994,-2.858260776348357,11.435798593533463,5.938793637625662,-21.547730401591025,23.9649503590848
6.342743683470511,-3.0737380803642673,11.49518652990972,6.17844314121651,-23.65017958028818,27.22458321769547
6.312006302666868,-3.310239876167149,11.556970961321886,6.450688973393465,-26.06988297967523,30.972979611563787
6.278903903905197,-3.5709387059639015,11.62147785105582,6.760418769509103,-28.79593990336875,35.21379132887507
6.243194516845557,-3.8588981049975892,11.689082038750911,7.1125566827978535,-31.734735226754925,39.8434704187661
