th1 (rad),w1 (rad/s),th2 (rad),w2 (rad/s),a1 (rad/s^2),a2 (rad/s^2)
4.405645078645669,2.160966633566284,1.962074686829628,0.29116370221535925,9.900057593254699,1.5265252340740494
4.427254744981332,2.2599672094988312,1.9649863238517815,0.30642895455609975,10.185888901737153,2.0850232708115004
4.44985441707632,2.361826098516203,1.9680506133973426,0.32727918726421473,10.48486818518947,2.6666510973083932
4.473472678061483,2.4666747803680975,1.9713234052699846,0.35394569823729866,10.796052638389611,3.2695797406965683
4.498139425865164,2.574635306751994,1.9748628622523576,0.3866414956442643,11.117990355506869,3.8911988427845516
4.523885778932684,2.6858152103070627,1.9787292772088003,0.4255534840721098,11.448628927568466,4.527962828116569
4.550743931035754,2.8003014995827473,1.9829848120495215,0.4708331123532755,11.78521926336727,5.175225148860692
4.578746946031582,2.91815369221642,1.9876931431730542,0.5225853638418825,12.124217853398264,5.827065361962593
4.607928482953746,3.0393958707504027,1.992918996811473,0.5808560174615084,12.461191994067375,6.476116089842265
4.638322441661249,3.1640077906910764,1.9987275569860883,0.645617178359931,12.790733898877184,7.113399524025557
4.66996251956816,3.291915129679848,2.0051837287696874,0.7167511736001866,13.106391028335468,7.7281858939560175
4.702881670864959,3.4229790399632027,2.0123512405056894,0.7940330325397468,13.400621201246873,8.307888987623585
4.737111461264591,3.5569852519756715,2.0202915708310867,0.8771119224159827,13.66478188905656,8.838016025984157
4.772681313784347,3.693633070866237,2.0290626900552464,0.9654920826758242,13.889163296703224,9.302190531594922
4.809617644493009,3.8325247038332693,2.0387176108820046,1.0585139879917733,14.063074164692848,9.682266838371888
4.847942891531342,3.973155445480198,2.0493027507619224,1.155336656375492,14.17498752504429,9.958553164633766
4.887674445986144,4.1149053207306405,2.0608561173256774,1.2549221880218298,14.212750886853758,10.11015648205367
4.92882349919345,4.257032829599178,2.0734053392058955,1.3560237528423664,14.163861702234637,10.115456807334748
4.971393827489441,4.398671446621525,2.086965576734319,1.4571783209157139,14.015804903987036,9.952711439730223
5.015380541955657,4.538829495661395,2.1015373599434763,1.556705435313016,13.75644547405984,9.600781867425532
5.0607688369122705,4.676393950401994,2.1171044142966067,1.6527132539872713,13.374466184495143,9.039968649114234
5.10753277641629,4.810138612246945,2.1336315468364795,1.7431129404784136,12.859839572174312,8.25293365667298
5.155634162538759,4.938737007968688,2.1510626762412635,1.8256422770451435,12.204324259692804,7.225685419587195
5.205021532618447,5.060780250565616,2.169319099011715,1.8978991312410154,11.401978705694024,5.948601971096503
5.255629335124103,5.174800037622556,2.188298090324125,1.9573851509519804,10.449689329374534,4.4174654996153695
5.307377335500328,5.279296930916301,2.2078719418336448,2.0015598059481343,9.347712803677755,2.6344819950258707
5.360170304809491,5.372774058953079,2.227887539893126,2.027904625898393,8.100231562411066,0.6092537472975161
5.413898045399021,5.453776374577189,2.2481665861521103,2.0339971633713683,6.715914426584824,-1.6403403979205031
5.468435809144793,5.520935518843038,2.268506557785824,2.017593759392163,5.208458518523681,-4.08742507121957
5.523645164333224,5.5730201040282745,2.2886824953797458,1.9767195086799674,3.597063734195014,-6.6956694208261975
5.579375365373506,5.608990741370224,2.3084496904665452,1.9097628144717054,1.9067592549816523,-9.419227656422942
5.635465272787209,5.628058333920041,2.3275473186112623,1.815570537907476,0.1684690497397862,-12.203250162507844
5.691745856126409,5.629743024417439,2.345703023990337,1.6935380362823975,-1.5813195443309043,-14.9851476855244
5.748043286370583,5.61392982897413,2.362638404353161,1.5436865594271536,-3.3014196317661813,-17.69676219455147
5.8041825846603246,5.580915632656468,2.378075269947433,1.3667189374816389,-4.947439018223476,-20.267511944430556
5.85999174098689,5.531441242474233,2.3917424593222494,1.1640438180373334,-6.473920461504095,-22.628429288077356
5.915306153411632,5.466702037859192,2.4033828975026226,0.9377595251565598,-7.837020019494493,-24.716812652409885
5.9699731737902235,5.388331837664247,2.412760492754188,0.690591398632461,-8.997472799070826,-26.48100937703161
6.023856492166866,5.298357109673539,2.4196664067405127,0.4257813048621449,-9.923471350291829,-27.884695437432995
6.076840063263601,5.199122396170621,2.423924219789134,0.14693435048781495,-10.59302154244285,-28.90998604190017
6.1288312872253075,5.093192180746192,2.425393563294012,-0.14216550993118676,-10.995378276164468,-29.558837752891804
6.179763209032769,4.983238397984548,2.4239719081947,-0.4377538874601048,-11.131304404004336,-29.852478860150285
6.229595593012615,4.871925353944504,2.419594369320099,-0.7362786760616076,-11.012109315712985,-29.828965068835057
6.2783148465520595,4.7618042607873745,2.412231582559483,-1.0345683267499581,-10.657648919282499,-29.53930110137116
6.325932889159933,4.655227771594549,2.4018858992919836,-1.3299613377636696,-10.093641116206157,-29.042798101813997
6.372485166875879,4.5542913604324875,2.388586285914347,-1.6203893187818097,-9.34872621734985,-28.402396937617816
6.4180280804802035,4.460804098258989,2.372382392726529,-1.9044132881579878,-8.45167230296482,-27.680584311469765
6.462636121462793,4.3762873752293405,2.353338259844949,-2.1812191312726856,-7.429017521114861,-26.93631773290322
6.506398995215087,4.301997200018192,2.3315260685322223,-2.4505823086017178,-6.303298798723135,-26.223132960673315
6.549418967215269,4.238964212030961,2.307020245446205,-2.712813638208451,-5.091881831615391,-25.588399085827685
6.591808609335579,4.188045393714807,2.2798921090641207,-2.968697629066728,-3.8063081043536404,-25.073548774695517
6.633689063272727,4.149982312671271,2.2502051327734534,-3.2194331168136836,-2.4520204698255172,-24.715050330835208
6.6751888863994395,4.125462107973015,2.2180108016053164,-3.4665836201220355,-1.0283151273236202,-24.5458883490609
6.71644350747917,4.115178956699779,2.183344965404096,-3.7120425036126443,0.47161581298574695,-24.597354992722444
6.7575952970461675,4.119895114829637,2.1462245403679696,-3.9580160535398687,2.060649923653972,-24.900996891806006
6.798794248194464,4.140501614066177,2.106644379832571,-4.207026022457929,3.7577515480440744,-25.490586434923635
6.8401992643351255,4.178079129546617,2.0645741196079914,-4.461931886807165,5.587999903932495,-26.403959405355252
6.881980055630591,4.233959128585942,2.01995480073992,-4.725971480860718,7.582444458659697,-27.6844337748567
6.924319646916451,4.309783573172539,1.9726950859313128,-5.002815818609285,9.777331750838178,-29.381201259004587
6.967417482648176,4.407556890680921,1.92266692774522,-5.296627831199331,12.211703100984343,-31.5473682571476
7.011493051554985,4.529673921690764,1.8697006494332267,-5.612101513770806,14.921255783484456,-34.23281802231426
7.056789790771893,4.678886479525609,1.8135796342955186,-5.954429693993949,17.924132009867538,-37.4659940197359
7.103578655567149,4.858127799624285,1.754035337355579,-6.329089634191308,21.189971123860875,-41.21269114728875
7.152159933563391,5.070027510862894,1.690744441013666,-6.741216545664195,24.575853846982977,-45.28916847018181
7.20286020867202,5.315786049332724,1.623332275557024,-7.194108230366013,27.701966585434562,-49.19165737100793
7.256018069165347,5.59280571518707,1.551391193253364,-7.686024804076093,29.73663497063226,-51.79937219983123
7.311946126317218,5.890172064893393,1.474530945212603,-8.204018526074405,29.11452479562785,-50.98252041923884
7.370847846966152,6.1813173128496715,1.392490759951859,-8.713843730266793,23.45829352935256,-43.48900498724257
7.432661020094648,6.415900248143197,1.305352322649191,-9.148733780139219,10.509870521925684,-26.22973025385531
7.49682002257608,6.520998953362454,1.2138649848477987,-9.411031082677772,-9.150575652703605,-0.0415559975207474
7.562030012109704,6.429493196835418,1.119754674021021,-9.41144664265298,-29.812064431443147,27.164474687167374
7.626324944078059,6.131372552520987,1.025640207594491,-9.139801895781305,-44.06774808451523,45.22220544484917
7.687638669603269,5.690695071675835,0.934242188636678,-8.687579841332814,-49.43218461180424,50.85915194892036
7.744545620320027,5.196373225557792,0.8473663902233498,-8.178988321843612,-48.602738483133095,47.93713699774327
7.796509352575605,4.710345840726461,0.7655765070049136,-7.699616951866179,-45.10655441752718,41.36935573799356
7.8436128109828696,4.259280296551189,0.6885803374862518,-7.285923394486243,-41.08715668544944,34.09634173451724
7.886205613948381,3.848408729696695,0.6157211035413894,-6.944959977141071,-37.45038000244598,27.332926375793562
7.924689701245349,3.4739049296722353,0.5462715037699787,-6.671630713383135,-34.46398229664995,21.41670838281239
7.959428750542071,3.129265106705736,0.4795551966361473,-6.457463629555011,-32.13823253514646,16.338110552239048
7.990721401609129,2.8078827813542713,0.4149805603405972,-6.294082524032621,-30.39964289935192,11.979596620811488
8.018800229422672,2.503886352360752,0.352039735100271,-6.174286557824506,-29.15889346499229,8.208045787959446
8.043839092946278,2.2122974177108294,0.29029686952202594,-6.092206099944912,-28.333806711749784,4.905522690143351
8.065962067123387,1.9289593505933316,0.2293748085225768,-6.043150873043478,-27.854902258869117,1.9766017196682575
8.08525166062932,1.6504103280046403,0.168943299792142,-6.023384855846795,-27.664761160496084,-0.6523522055239888
8.101755763909367,1.3737627163996793,0.10870945123367406,-6.029908377902035,-27.7155319752398,-3.0360912951613
8.115493391073363,1.0966073966472814,0.04841036745465371,-6.060269290853648,-27.96615632803452,-5.2135129856809
8.126459465039837,0.8169458333669362,-0.012192325453882769,-6.112404420710456,-28.379832696571107,-7.210195346433299
8.134628923373507,0.5331475064012251,-0.07331636966098734,-6.18450637417479,-28.921853820083953,-9.040366689700173
8.13996039843752,0.24392896820038557,-0.13516143340273523,-6.2749100410717915,-29.557835711228506,-10.708426362380818
8.142399688119523,-0.05164938891189952,-0.19791053381345314,-6.3819943046956,-30.252341693907134,-12.21019481468247
8.141883194230404,-0.3541728058509709,-0.2617304768604091,-6.504096252842425,-30.967927509422317,-13.534086832119876
8.138341466171894,-0.663852080945194,-0.32677143938883335,-6.639437121163624,-31.6646648893777,-14.66240021623434
8.131702945362443,-0.980498729838971,-0.3931658106004696,-6.786061123325967,-32.300225646151176,-15.57289761550045
8.121897958064054,-1.3035009863004827,-0.4610264218337293,-6.941790099480972,-32.83061434887273,-16.240825735270064
8.108862948201049,-1.63180712978921,-0.530444322828539,-7.104198356833673,-33.211613890523324,-16.641454276334628
8.092544876903156,-1.9639232686944432,-0.6014863063968757,-7.270612899597019,-33.40094559507569,-16.753118950517003
8.072905644216211,-2.2979327246452,-0.6741924353928459,-7.438144089102189,-33.36104094089938,-16.560618892324378
8.04992631696976,-2.631543134054194,-0.7485738762838678,-7.603750278025433,-33.062184153006335,-16.05866281981991
8.023610885629218,-2.9621649755842574,-0.8246113790641222,-7.764336906223631,-32.485638844412804,-15.254912357982676
7.993989235873375,-3.2870213640283854,-0.9022547481263585,-7.916886029803458,-31.626258872395933,-14.172082467087256
7.961119022233091,-3.603283952752345,-0.9814236084243931,-8.05860685447433,-30.494052854040966,-12.848578809866817
7.925086182705567,-3.9082244812927547,-1.0620096769691365,-8.187092642572999,-29.11426302990614,-11.337313329524777
7.88600393789264,-4.199367111591816,-1.1438806033948665,-8.300465775868247,-27.525740844076285,-9.702634703748451
7.8440102667767215,-4.474624520032579,-1.226885261153549,-8.397492122905732,-25.777716012305532,-8.015679325787527
7.799264021576396,-4.732401680155634,-1.3108601823826063,-8.477648916163607,-23.925382520679577,-6.348789071280894
7.7519400047748395,-4.97165550536243,-1.3956366715442423,-8.541136806876416,-22.024966733561442,-4.7698464297596015
7.702223449721215,-5.1919051726980445,-1.4810480396130066,-8.588835271174013,-20.129024752089475,-3.3373773482843125
7.650304397994234,-5.393195420218939,-1.5669363923247468,-8.622209044656856,-18.2826181433114,-2.0970698948860984
7.596372443792045,-5.576021601652053,-1.6531584827713153,-8.643179743605717,-16.520780884869648,-1.0800243290684137
7.540612227775524,-5.7412294105007495,-1.7395902802073724,-8.6539799868964,-14.867398219398446,-0.30269481276628957
7.483199933670517,-5.889903392694734,-1.8261300800763365,-8.657006935024064,-13.335356441521444,0.23179763997469247
7.424300899743569,-6.023256957109949,-1.9127001494265772,-8.654688958624318,-11.927649973364858,0.5314531114410947
7.364068330172469,-6.142533456843597,-1.9992470390128203,-8.649374427509906,-10.639065990157281,0.6127738928173467
7.3026429956040335,-6.24892411674517,-2.0857407832879193,-8.643246688581733,-9.45809030566672,0.49815417535964446
7.240153754436582,-6.343505019801837,-2.1721732501737367,-8.638265146828138,-8.36875650817603,0.21356855998161578
7.176718704238564,-6.427192584883597,-2.2585559016420182,-8.636129461228322,-7.3522578939307435,-0.21328087969193618
7.112446778389728,-6.500715163822905,-2.3449171962543014,-8.63826227002524,-6.38823252455352,-0.7543077080030369
7.047439626751499,-6.56459748906844,-2.4312998189545536,-8.64580534710527,-5.45570213074821,-1.3818986034208445
6.981793651860815,-6.619154510375922,-2.5177578724256064,-8.659624333139478,-4.533692371814133,-2.0693528948465514
6.9156021067570554,-6.664491434094063,-2.604354115757001,-8.680317862087943,-3.601588317928387,-2.7909907354441605
6.848957192416115,-6.700507317273347,-2.6911572943778808,-8.708227769442384,-2.6392908108278945,-3.522019831070917
6.781952119243381,-6.726900225381626,-2.7782395720723048,-8.743447967753093,-1.6272425811732238,-4.238246529946462
6.714683116989565,-6.743172651193358,-2.865674051749836,-8.785830433052558,-0.5463924778315558,-4.915711490291892
6.647251390477631,-6.748636575971674,-2.9535323560803612,-8.834987547955476,0.6218349388627411,-5.530326750618472
6.579765024717915,-6.742418226583047,-3.041882231559916,-8.890290815461661,1.8954973979904735,-6.057591443542456
6.512340842452084,-6.723463252603143,-3.1307851397145323,-8.950866729897086,3.2919529187117225,-6.472467408518803
6.4451062099260525,-6.690543723416026,-3.220293807013503,-9.015591403982274,4.827470576117246,-6.749501632470682
6.378200772691892,-6.642269017654853,-3.3104497210533257,-9.08308642030698,6.516571271433388,-6.863286042055546
6.311778082515344,-6.577103304940519,-3.4012805852563956,-9.151719280727535,8.37104896234025,-6.789341068685817
6.246007049465939,-6.493392815317117,-3.492797778063671,-9.219612691414394,10.398650394162186,-6.5054903117744605
6.181073121312768,-6.389406311375495,-3.5849939049778152,-9.284667594532138,12.601438846024557,-5.993751487964664
6.117179058199014,-6.2633919229152495,-3.6778405809231365,-9.344605109411784,14.973938078007128,-5.242696994978994
6.0545451389698615,-6.113652542135179,-3.7712866320172544,-9.397032079361574,17.501244445660344,-4.2501341323506745
5.993408613548509,-5.938640097678575,-3.8652569528108702,-9.43953342068508,20.157396795969312,-3.025828312098451
5.9340222125717235,-5.737066129718881,-3.959652287017721,-9.469791703806065,22.904382090344455,-1.593864556539068
5.876651551274534,-5.508022308815437,-4.0543502040557815,-9.485730349371455,25.692195312369996,0.005849423533104977
5.82157132818638,-5.251100355691737,-4.149207507549496,-9.485671855136124,28.460326534770214,1.7174442316357559
5.7690603246294625,-4.966497090344035,-4.244064226100858,-9.468497412819767,31.140887796929935,3.470703381282517
5.719395353726022,-4.655088212374736,-4.3387492002290555,-9.433790379006942,33.66331866780886,5.184564216734215
5.672844471602275,-4.318455025696647,-4.433087104019125,-9.3819447368396,35.960267029687046,6.772271548767506
5.629659921345309,-3.958852355399776,-4.526906551387522,-9.314222021351926,37.973918874558876,8.14755773518889
5.590071397791311,-3.5791131666541873,-4.620048771601041,-9.232746444000037,39.6618552242515,9.230920105575645
5.554280266124769,-3.1824946144116724,-4.712376236041042,-9.14043724294428,41.001530286088745,9.954960189122081
5.522455319980652,-2.772479311550785,-4.803780608470484,-9.04088764105306,41.992712847927876,10.267888119883251
5.494730526865144,-2.352552183071506,-4.894189484881015,-8.938208759854227,42.657651598632626,10.134643867102023
5.471205005034429,-1.9259756670851798,-4.9835715724795575,-8.836862321183206,43.039192974811066,9.535534702484522
5.451945248363577,-1.495583737337069,-5.07194019569139,-8.74150697415836,43.19746499701321,8.462697313748025
5.436989410990207,-1.0636090873669368,-5.159355265432973,-8.65688000102088,43.20595150106671,6.9149519887044395
5.4263533201165375,-0.6315495723562697,-5.245924065443182,-8.587730481133836,43.14779664108102,4.891678231188375
5.420037824392975,-0.20007160594545953,-5.33180137025452,-8.538813698821953,43.113040522760286,2.386227878130805
5.418037108333521,0.23105879928214335,-5.41718950724274,-8.514951420040644,43.19726413950324,-0.6208262664990135
5.420347696326342,0.6630314406771758,-5.502339021443146,-8.521159682705633,43.501874504607784,-4.168536166031052
5.426978010733114,1.0980501857232536,-5.587550618270202,-8.562845044365943,44.13599558054177,-8.32256956878476
5.437958512590346,1.5394101415286714,-5.6731790687138615,-8.64607074005379,45.21955120846238,-13.182224894854851
5.453352614005633,1.9916056536132951,-5.759639776114399,-8.77789298900234,46.88633110702208,-18.886475030157847
5.473268670541766,2.460468964683516,-5.847418706004423,-8.966757739303917,49.28385079212515,-25.615453125838286
5.497873360188601,2.9533074726047674,-5.937086283397463,-9.2229122705623,52.56174495506419,-33.576897526377195
5.527406434914648,3.4789249221554095,-6.029315406103086,-9.558681245826072,56.82762730778609,-42.94944520633715
5.562195684136203,4.047201195233271,-6.124902218561346,-9.988175697889444,62.0181859507087,-53.711401222200564
5.6026676960885355,4.667383054740358,-6.224783975540241,-10.52528971011145,67.56424498314948,-65.18690117702742
5.649341526635939,5.343025504571853,-6.330036872641355,-11.177158721881725,71.6150849769889,-74.98001184533844
5.702771781681657,6.059176354341742,-6.441808459860173,-11.926958840335109,69.61788693013955,-76.99875632363371
5.763363545225075,6.755355223643138,-6.561078048263524,-12.696946403571445,53.30347031201061,-59.9957194295285
5.830917097461506,7.2883899267632435,-6.688047512299239,-13.29690359786673,15.567638736640932,-14.207300149149416
5.903800996729139,7.444066314129653,-6.821016548277906,-13.438976599358226,-33.98339282756223,47.32149738472366
5.978241659870435,7.104232385854031,-6.955406314271488,-12.96576162551099,-68.2851776974752,87.9564337346538
6.049283983728976,6.421380608879279,-7.085063930526598,-12.08619728816445,-76.52685038404753,93.7353260825263
6.113497789817768,5.656112105038803,-7.205925903408242,-11.148844027339187,-70.42122244789607,81.07085069267275
6.170058910868156,4.951899880559842,-7.317414343681634,-10.33813552041246,-61.07391117113124,64.89456175659107
6.219577909673754,4.341160768848529,-7.420795698885758,-9.689189902846548,-52.69579369576991,50.57761596819303
6.262989517362239,3.81420283189083,-7.5176875979142235,-9.183413743164618,-46.120193407850714,38.97985427258931
6.301131545681148,3.353000897812323,-7.6095217353458695,-8.793615200438724,-41.18868097386321,29.714274260441748
6.334661554659271,2.941114088073691,-7.697457887350256,-8.496472457834306,-37.565309678932714,22.221553526886993
6.364072695540008,2.565460991284364,-7.7824226119286,-8.274256922565437,-34.9472398811949,16.03022711926387
6.389727305452852,2.2159885924724145,-7.8651651811542544,-8.113954651372799,-33.09884925451788,10.78841742365057
6.411887191377576,1.8850000999272356,-7.946304727667982,-8.006070477136292,-31.842278359052226,6.244275488206601
