th1 (rad),w1 (rad/s),th2 (rad),w2 (rad/s)
0.7517591002573482,-3.064394619734935,2.281013757452808,2.391078414460612
0.7211151540599988,-3.0992985441137235,2.3049245415974142,2.224398263101781
0.6901221686188616,-3.14036450055055,2.327168524228432,2.0550588249415696
0.658718523613356,-3.187404019063413,2.347719112477848,1.8822637963268347
0.6268444834227219,-3.240235865495183,2.3665417504411166,1.7052655855279524
0.5944421247677701,-3.2986774876664207,2.383594406296396,1.523368595770395
0.5614553498911059,-3.3625357838696477,2.3988280922541,1.335934360522158
0.5278299920524094,-3.4315973140230325,2.4121874358593214,1.1423886421672633
0.4935140189121791,-3.5056180852158425,2.423611322280994,0.9422304696738747
0.45845783806002066,-3.584313089601409,2.433033626977733,0.735042953699946
0.42261470716400656,-3.6673458442885285,2.4403840565147323,0.5205055682963527
0.3859412487211213,-3.7543182711768504,2.445589112197696,0.2984074242322785
0.3483980660093528,-3.844761349323126,2.4485731864400186,0.06866088476191037
0.3099504525161215,-3.9381270606682155,2.4492597952876376,-0.16868529722775297
0.27056918190943935,-4.033782216298142,2.44757294231536,-0.4134342915487885
0.23023135974645792,-4.131004777377586,2.443438599399872,-0.6652320252817003
0.18892131197268205,-4.228983255002794,2.436786279147055,-0.9235616372905601
0.14663147942265412,-4.3268196721406955,2.4275506627741494,-1.1877425708197802
0.10336328270124716,-4.42353639131409,2.4156732370659517,-1.456935118356022
0.059127918788106255,-4.518086857584026,2.4011038858823914,-1.730150899349269
0.013947050212265992,-4.609369995402619,2.383802376888899,-2.006269303387193
-0.0321466497417602,-4.696247662162628,2.363739683855027,-2.2840594075986433
-0.07910912636338649,-4.777564244343244,2.3408990897790405,-2.5622063374617863
-0.12688476880681893,-4.852167232737171,2.3152770264044227,-2.839340558735975
-0.17540644113419063,-4.918927476185422,2.286883620817063,-3.114068240317724
-0.22459571589604485,-4.976757820015985,2.255742938413886,-3.385000675528308
-0.2743632940962047,-5.024628996540285,2.2218929316586027,-3.6507808280446206
-0.32460958406160756,-5.06158193682824,2.1853851233781563,-3.910105378739553
-0.37522540342988997,-5.086736079611882,2.146284069590761,-4.161741155681576
-0.4260927642260088,-5.0992937130605425,2.104666658033945,-4.4045354672101364
-0.4770857013566142,-5.098540840737733,2.0606213033618435,-4.637420546761381
-0.5280711097639915,-5.08384546010767,2.0142470978942297,-4.85941297533084
-0.5789095643650682,-5.054654436861411,1.9656529681409214,-5.069609500745237
-0.6294561087336823,-5.0104903214329335,1.914956873133469,-5.267181067804935
-0.6795610119480117,-4.950949469658981,1.8622850624554197,-5.451367075587626
-0.7290705066446015,-4.875702693533831,1.8077713916995435,-5.621471871810618
-0.7778275335799398,-4.784499385397395,1.7515566729814374,-5.776865277735619
-0.8256725274339138,-4.677175642510892,1.6937880202040811,-5.916988520847324
-0.8724442838590227,-4.553666390705999,1.634618134995608,-6.041366357850897
-0.9179809477660827,-4.414020899904113,1.5742044714170988,-6.149625432824
-0.9621211567651239,-4.258420451404441,1.5127082170888588,-6.241518088790335
-1.0047053612791683,-4.087196325993307,1.4502930362009554,-6.316950012492575
-1.0455773245391013,-3.900845817961147,1.3871235360760297,-6.376009341150195
-1.0845857827187129,-3.7000437339201,1.3233634426645278,-6.418994310454704
-1.1215862200579139,-3.4856468867819945,1.2591734995599808,-6.446436286406374
-1.1564426889257338,-3.25868949146658,1.194709136695917,-6.459115184232623
-1.1890295838403995,-3.02036810335716,1.130117984853591,-6.458064866645248
-1.219233264873971,-2.7720157409771504,1.0655373361871385,-6.444567089339477
-1.2469534222837424,-2.515065966196153,1.0010916652937438,-6.420133805183554
-1.272104081945704,-2.2510087829506937,0.9368903272419082,-6.386478970652457
-1.294614169775211,-1.9813410785844854,0.8730255375353837,-6.345482214006008
-1.3144275805610557,-1.7075148261123805,0.8095707153953237,-6.299147639604347
-1.3315027288221795,-1.4308863158332292,0.7465792389992802,-6.249561533244289
-1.3458115919805118,-1.1526692997391508,0.6840836236668374,-6.19885276312289
-1.3573382849779034,-0.8738941977376469,0.6220950960356085,-6.149159292655343
-1.3660772269552799,-0.5953745669478356,0.560603503109055,-6.102603556428774
-1.3720309726247581,-0.3176810255757123,0.4995774675447673,-6.061278655367979
-1.3752077828805154,-0.04112188457107058,0.4389646809910875,-6.027246556111147
-1.375619001726226,0.2342710329300413,0.378692215429976,-6.002548855526554
-1.3732762913969256,0.5087534652541217,0.3186667268747105,-5.989230267846747
-1.3681887567443844,0.7828790990762134,0.258774424196243,-5.989374826005661
-1.3603599657536223,1.0575118143479376,0.1988806759361864,-6.005154816749007
-1.3497848476101428,1.3338422308184728,0.13882912776869633,-6.038892573725985
-1.3364464253019581,1.6134105888667092,0.07844020203143648,-6.093135201892875
-1.320312319413291,1.8981370273625737,0.01750885001250773,-6.17074164881769
-1.3013309491396654,2.190358197371375,-0.04419856647566917,-6.274979369632981
-1.2794273671659517,2.4928645706613715,-0.10694836017199899,-6.409622296599784
-1.254498721459338,2.808923015832717,-0.17104458313799684,-6.579029076665462
-1.2264094913010108,3.142248534960918,-0.23683487390465147,-6.7881526502706775
-1.1949870059514016,3.496846033161216,-0.30471640040735826,-7.042373201193221
-1.1600185456197893,3.876555846299327,-0.37514013241929045,-7.346925679843752
-1.121252987156796,4.283969325941432,-0.44860938921772797,-7.7054592585195305
-1.0784132938973816,4.7180955375271365,-0.5256639818029233,-8.116864727496438
-1.0312323385221103,5.169817482327878,-0.6068326290778877,-8.569016712510557
-0.9795341636988315,5.614323415850881,-0.6925227962029933,-9.028257314904135
-0.9233909295403226,6.002272320570071,-0.7828053693520346,-9.42699657057511
-0.863368206334622,6.2596334008982355,-0.8770753350577857,-9.663184463424294
-0.8007718723256396,6.3150784952242365,-0.9737071796920286,-9.637904182793237
-0.7376210873733973,6.1533021736431985,-1.070086221519961,-9.32887358358026
-0.6760880656369653,5.836731867180904,-1.1633749573557635,-8.820093286236544
-0.6177207469651563,5.457756285302063,-1.2515758902181289,-8.235735668632042
-0.5631431841121357,5.083662422419362,-1.3339332469044494,-7.664844622015656
-0.512306559887942,4.74558449404112,-1.410581693124606,-7.1470040598569815
-0.46485071494753083,4.451829746369446,-1.4820517337231758,-6.691093654136826
-0.4203324174838364,4.200651527924427,-1.548962670264544,-6.292836126985088
-0.3783259022045921,3.9870462031589837,-1.6118910315343948,-5.943973607439566
-0.3384554401730023,3.805590488729966,-1.6713307676087905,-5.636005536820948
-0.3003995352857026,3.651423229349155,-1.727690822977,-5.36142034244434
-0.2638853029922111,3.5204783031408016,-1.7813050264014434,-5.113938819428305
-0.22868051996080307,3.4094484224614123,-1.8324444145957264,-4.888417446557116
-0.19458603573618893,3.315670042543338,-1.8813285890612976,-4.6806637431501965
-0.16142933531075554,3.236999276869319,-1.9281352264927996,-4.48725359592672
-0.12905934254206236,3.171701226883712,-1.9730077624520668,-4.305377724730066
-0.09734233027322524,3.1183572575022063,-2.0160615396993675,-4.13272156691135
-0.06615875769820317,3.0757885862307925,-2.057388755368481,-3.967375433541889
-0.03540087183589525,3.042992897552604,-2.0970625097039,-3.807770106641036
-0.0049709428603692055,3.0190906949087846,-2.1351402107703104,-3.652633293106653
0.02521996408871864,3.003278662483685,-2.171666543701377,-3.5009630579270836
0.055252750713555496,2.9947880327625462,-2.2066761742806476,-3.3520149757688538
0.08520063104118096,2.992846724324931,-2.2401963240383362,-3.2053000722313554
0.11512909828443027,2.9966448079941697,-2.27224932476065,-3.060590620817239
0.14509554636437197,3.005303680015286,-2.3028552309688224,-2.917930533249706
0.17514858316452483,3.01785015124699,-2.3320345363013195,-2.7776464977649225
0.20532708467699473,3.033197441051235,-2.3598110012789686,-2.6403553163980837
0.2356590590875071,3.050135676862423,-2.3862145544429496,-2.506962281281407
0.2661604158561313,3.0673347748194706,-2.4112841772557636,-2.3786452020284212
0.296833763604326,3.0833623160945995,-2.435070629276048,-2.256819183212719
0.327667386765272,3.0967180703799935,-2.457638821108175,-2.1430787445592983
0.35863456746907196,3.10588509586816,-2.479069608553768,-2.039116507269439
0.38969341842775357,3.1093949993118737,-2.499460773626462,-1.9466212793761488
0.42078736842087233,3.105902339041701,-2.5189269864202237,-1.8671624394364534
0.4518463918112893,3.094260861147842,-2.5375986108145883,-1.802071200777628
0.48278900042276773,3.073592896817893,-2.5556193228223645,-1.7523316725778266
0.5135249293909466,3.043343300221588,-2.5731426395481427,-1.7184948316882902
0.5439583623931625,3.003310929739828,-2.590327587865026,-1.7006262693835934
0.5739914716905609,2.953653618676121,-2.6073338505588617,-1.698294204773177
0.6035280078773221,2.8948662429549947,-2.6243167926065936,-1.7105986564187008
0.632476670306872,2.8277351047209787,-2.6414227791707807,-1.7362370325386016
0.6607540213540818,2.7532747055959987,-2.658785149496167,-1.7735968785477203
0.6882867684100418,2.672654618034821,-2.676521118281644,-1.8208638876622143
0.71501331459039,2.5871244382374585,-2.6947297571582665,-1.8761327997870234
0.7408845589727645,2.4979438805351566,-2.7134910851561367,-1.9375102531446304
0.7658639977781161,2.4063233174800844,-2.732866187687583,-2.0032014297342213
0.789927230952917,2.313377931312408,-2.752898201984925,-2.0715757208108103
0.813061010266041,2.2200965413175973,-2.773613959193033,-2.141209947799504
0.835261975679217,2.1273244213139244,-2.795026058671028,-2.210910401338294
0.8565352198923563,2.035758194135827,-2.8171351626844108,-2.2797168368058625
0.8768928018337145,1.9459502210953321,-2.8399323310524696,-2.346892544167115
0.8963523040446678,1.858319726074693,-2.8634012564941407,-2.4119048155414844
0.9149355013054148,1.7731680796289757,-2.8875203046495557,-2.4743997780130886
0.9326671821017045,1.6906960758753249,-2.9122643024296866,-2.534174873959637
0.9495741428604577,1.6110215369115286,-2.9376060511692828,-2.591151458756676
0.965684358229573,1.5341960808170927,-2.9635175657568493,-2.645349193576775
0.981026319037744,1.460220330498635,-2.989971057692617,-2.6968632278050673
0.9956285223427304,1.3890571935689295,-3.0169396899706675,-2.7458446301396164
1.0095190942784196,1.320643102802194,-3.0443981362720636,-2.7924841431437404
1.0227255253064416,1.2548972812585788,-3.072322977703501,-2.8369990853636873
1.0352744981190274,1.191729201442033,-3.100692968557138,-2.879623081319591
1.0471917901334478,1.1310444610123236,-3.129489199370334,-2.9205982344860253
1.058502234743571,1.072749314398347,-3.1586951817151943,-2.9601693465835184
1.0692297278875547,1.0167540931524772,-3.188296875181029,-2.998579807815095
1.0793972688190794,0.9629757279080154,-3.2182826732591803,-3.036068822033516
1.0890270260981596,0.9113395583353462,-3.2486433614795156,-3.0728696777924447
1.0981404216815132,0.8617805891495287,-3.27937205825744,-3.1092088241193414
1.1067582275730083,0.8142443228154529,-3.3104641464986337,-3.1453055547152546
1.1149006708011628,0.7686872746560277,-3.3419172020457864,-3.181372144125193
1.122587543547723,0.7250772542608593,-3.373730923487038,-3.217614313474362
1.1298383160903316,0.6833934785375017,-3.405907066621782,-3.254231931630499
1.1366722508757066,0.6436265662416559,-3.4384493859380867,-3.2914198805429975
1.1431085165381232,0.605778450989947,-3.4713635847435165,-3.329369031618897
1.1491663010480226,0.5698622391415856,-3.5046572750597056,-3.3682672939522917
1.1548649234394386,0.5359020300471782,-3.5383399479992286,-3.408300705600758
1.1602239437399104,0.5039327085128674,-3.572422955055236,-3.4496545463656094
1.1652632708250392,0.4739997124227889,-3.606919500518892,-3.4925144550070324
1.1700032679492671,0.4461587717961449,-3.6418446450689625,-3.537067535670302
1.1744648556672286,0.4204756085841559,-3.6772153204256655,-3.5835034374859225
1.1786696117530702,0.3970255786230422,-3.7130503548005245,-3.632015387583998
1.1826398675393006,0.3758932276213738,-3.7493705086763645,-3.682801150614051
1.1863987998155143,0.3571717209658767,-3.786198520182505,-3.7360638764360163
1.189970517025173,0.3409620913169447,-3.823559158946865,-3.7920127806713837
1.1933801379383426,0.3273722269189313,-3.8614792867535788,-3.8508635784496614
1.1966538602075318,0.3165154952818954,-3.8999879225380756,-3.9128385574122664
1.1998190151603507,0.30850885879359063,-3.9391163081121983,-3.978166128378835
1.2029041037482866,0.3034702875106285,-3.9788979693959865,-4.047079626414178
1.205938806623393,0.3015152055579203,-4.019368765660128,-4.11981504533527
1.2089539586789722,0.302751615967385,-4.060566916113481,-4.196607267397997
1.211981474838646,0.3072734283468495,-4.102532988787461,-4.277684188009398
1.2150542091221144,0.31515135831729174,-4.145309830667554,-4.36325792316677
1.2182057227052874,0.3264205726425332,-4.188942409899222,-4.453512016717344
1.2214699284317128,0.3410640201797692,-4.233477530066396,-4.54858323339839
1.2248805686335105,0.3589901295563384,-4.27896336240038,-4.6485361454901035
1.2284704699290738,0.38000330895579865,-4.325448723855281,-4.75332834243431
1.2322705030186318,0.40376553886641836,-4.372982007279624,-4.862763823836577
1.236308158407296,0.4297474753043974,-4.42160964551799,-4.976432197432498
1.24060563316034,0.4571681788552221,-4.471373967492315,-5.093632091071453
1.245177314948892,0.48492433061062773,-4.5223102884030295,-5.2132793405642195
1.2500265582549983,0.5115132489174917,-4.574443081808671,-5.333804929403863
1.2551416907441733,0.5349598893718378,-4.62778113110271,-5.453055314271481
1.2604912896378917,0.5527666067280002,-4.682311684245424,-5.568219147002945
1.2660189557051718,0.5619147375952329,-4.737993875715453,-5.675818172966901
1.2716381030811241,0.5589551829547923,-4.794752057445122,-5.771811154343953
1.277227654910672,0.5402233958981479,-4.852470168988562,-5.8518576735248375
1.2826298888696535,0.5021924105027974,-4.91098874572381,-5.911760024290524
1.2876518129746815,0.44193030918072335,-4.970106345966716,-5.948038753623676
1.2920711160664886,0.35756666061406817,-5.029586733502953,-5.9585155098255775
1.2956467826726292,0.24862922604935905,-5.089171888601208,-5.942720601881326
1.2981330749331228,0.11612777095844204,-5.148599094620021,-5.90196577127523
1.2992943526427072,-0.03765337303227506,-5.207618752332773,-5.839037949972562
1.2989178189123844,-0.2095803596928476,-5.266009131832499,-5.757618962155799
1.296822015315456,-0.3961674293926478,-5.323585321454057,-5.661627821362831
1.2928603410215294,-0.5940074185641968,-5.380201599667685,-5.554669679540712
1.2869202668358874,-0.8000573386074439,-5.435748296463092,-5.439688962411309
1.278919693449813,-1.0117710149171792,-5.490145186087204,-5.3188301464476195
1.2688019833006412,-1.2271145186140557,-5.54333348755168,-5.193453069948332
1.2565308381145006,-1.4445123558299955,-5.595268018251164,-5.064236166221674
1.2420857145562008,-1.662764783270148,-5.6459103799133805,-4.931313532277449
1.2254580667234993,-1.8809625396466179,-5.695223515236155,-4.7944119168870705
1.206648441327033,-2.098412646520617,-5.743167634405026,-4.652971035738324
1.1856643148618269,-2.314580344593437,-5.789697344762409,-4.506241954236286
1.1625185114158925,-2.529047416367303,-5.834759764304772,-4.353364299657668
1.1372280372522194,-2.7414849276197493,-5.878293407301349,-4.193425544549388
1.109813187976022,-2.951637687781639,-5.920227662746843,-4.025506127765732
1.0802968110982056,-3.1593177148891116,-5.9604827240245,-3.848713815920372
1.0487036339493145,-3.364404244889415,-5.998969862183704,-3.6622100693749573
1.0150595915004204,-3.566848114972197,-6.0355919628774535,-3.465230577141881
0.9793911103506984,-3.766678566713466,-6.070244268648873,-3.2571017124866395
0.9417243246835637,-3.9640106058493516,-6.102815285773739,-3.037254507216456
0.9020842186250702,-4.159050987789066,-6.133187830845904,-2.805237896137819
0.8604937087471795,-4.352100630459971,-6.161240209807282,-2.5607335007869185
0.8169727024425797,-4.543550723773558,-6.186847544815151,-2.303575188082189
0.7715371952048441,-4.733868907992536,-6.209883296695973,-2.0337781799787615
0.7241985061249188,-4.923570493352429,-6.23022107849576,-1.7515847709120884
0.6749628011913945,-5.11316762976797,-6.247736926204881,-1.4575369119616046
0.6238311248937148,-5.303086490179005,-6.262312295324498,-1.1525901420832585
0.5708002599919247,-5.493539008532427,-6.273838196745331,-0.8382883378354393
0.5158648699066004,-5.6843322640520215,-6.282221080123685,-0.5170233046655166
0.4590215472660802,-5.874597497416264,-6.287391313170341,-0.19240392718822402
0.40027557229191757,-6.062427301619289,-6.289315352442223,0.13025135772305557
0.3396512992757247,-6.244434075242618,-6.288012838864993,0.44332247669135166
0.2772069585232985,-6.415301053582852,-6.2835796140980795,0.736306008851791
0.21305394798747,-6.567502574897872,-6.276216554009562,0.9955072930450397
0.14737892223849125,-6.691506316520972,-6.266261481079111,1.20446510628265
0.08046385907328153,-6.77683936285979,-6.254216830016285,1.3456619705507897
0.012695465444683626,-6.8141993541375765,-6.240760210310777,1.4037730113650502
-0.055446528096692135,-6.798165110906515,-6.226722480197126,1.3697870218269725
-0.12342817920575729,-6.729282774399121,-6.213024609978857,1.2441940703700731
-0.1907210069497485,-6.61420210708811,-6.200582669275156,1.0372761884403319
-0.2568630280206296,-6.463622880626941,-6.190209907390753,0.7661112695668941
-0.321499256826899,-6.289236193366914,-6.182548794695084,0.44999517024346547
-0.38439161876056815,-6.101219612778707,-6.1780488429926494,0.10657912441949713
-0.44540381488835523,-5.907044256309086,-6.176983051748454,-0.25011058808054515
-0.5044742574514461,-5.711415480365472,-6.179484157629259,-0.6099724239201519
-0.5615884122551009,-5.516800243275887,-6.185583881868461,-0.9662188198884668
-0.6167564146878598,-5.324093538093582,-6.195246070067346,-1.3145088350916345
-0.6699973500687956,-5.1331989390769195,-6.208391158418262,-1.6521667265510138
-0.7213293394595648,-4.94345915223288,-6.224912825683773,-1.9775953225244325
-0.7707639309818936,-4.753947935628967,-6.244688778909017,-2.289878688520809
-0.8183034103381832,-4.563656910673638,-6.2675875657942255,-2.5885314399199433
-0.8639399794449196,-4.371609750800815,-6.293472880193425,-2.8733499466519117
-0.9076560769529278,-4.176928468979757,-6.322206379659944,-3.1443297923218303
-0.9494253616427254,-3.9788687159775624,-6.353649677583162,-3.4016241312365034
-0.989214048802501,-3.7768350542715146,-6.387665918895527,-3.645525890218695
-1.026982399345216,-3.5703831634231697,-6.424121177797714,-3.876462697558515
-1.0626862309794478,-3.359213426059522,-6.462885804773299,-4.094997429989033
-1.096278365240043,-3.1431588760261344,-6.503835779073189,-4.301829893697535
-1.1277099540003044,-2.9221697039650376,-6.546854078010164,-4.497796826562003
-1.1569316510399548,-2.6962961692073946,-6.591832046275784,-4.683868411792023
-1.1838946127320287,-2.4656717145244804,-6.638670730393704,-4.861139993993913
-1.2085513298772734,-2.2304982485804494,-6.687282130333643,-5.030817764019253
-1.230856312363078,-1.9910359317546547,-6.737590307973836,-5.1941968396388285
-1.2507666716806245,-1.747600398350876,-6.789532276370224,-5.352629377104016
-1.2682426756641332,-1.5005712236849273,-6.843058570141264,-5.50747903432515
-1.2832483879009824,-1.2504166505881185,-6.898133360484516,-5.660056200356779
-1.2957525544068635,-0.9977411201093636,-6.954733922488083,-5.811525914743935
-1.3057299656079573,-0.7433638095176724,-7.012849181635523,-5.962777579761876
-1.313163603703134,-0.4884375154164925,-7.072476957433142,-6.114243284518854
-1.318047978857299,-0.23461624245413282,-7.13361939027833,-6.265651954437376
-1.3203941412818403,0.015726475531562922,-7.196275909822703,-6.415714046158217
-1.3202368765265247,0.2592437455418962,-7.260433050284286,-6.561753826079328
