th1 (rad),w1 (rad/s),th2 (rad),w2 (rad/s)
1.7020994975863466,-0.500581944028515,1.4357467372021004,-0.055395143481434525
1.6970936781460615,-0.5952939585868854,1.4351927857672861,-0.06047103581347662
1.6911407385601926,-0.6904596427624055,1.4345880754091513,-0.06473335927944777
1.6842361421325687,-0.7861471378886241,1.4339407418163568,-0.06806029091819878
1.6763746707536824,-0.8824172307590832,1.4332601389071749,-0.07034293739819414
1.6675504984460916,-0.9793216555126746,1.4325567095331928,-0.07148831066941003
1.657757281890965,-1.0769011391975047,1.4318418264264987,-0.07142274173503148
1.64698827049899,-1.1751831544953437,1.4311275990091483,-0.07009578975671711
1.6352364389540366,-1.2741793478949424,1.4304266411115811,-0.06748469404872855
1.6224946454750873,-1.37388262085827,1.4297517941710938,-0.06359939964280753
1.6087558192665046,-1.4742638570412954,1.4291158001746658,-0.058488160246265034
1.5940131806960915,-1.5752683125130245,1.428530918572203,-0.05224368237972543
1.5782604975709613,-1.6768117203935025,1.4280084817484058,-0.04500971790982868
1.5614923803670262,-1.7787762084266672,1.4275583845693074,-0.036987936067923846
1.5437046182827596,-1.881006188957639,1.4271885052086282,-0.028444808557158988
1.5248945563931833,-1.9833044551802166,1.4269040571230567,-0.019718123200040957
1.505061511841381,-2.0854288021091154,1.4267068758910564,-0.011222607739805143
1.48420722382029,-2.1870895780522335,1.4265946498136584,-0.0034540071778116537
1.4623363280397677,-2.287948649457462,1.4265601097418803,0.003009165059955283
1.439456841545193,-2.3876203098059166,1.4265902013924798,0.0075070610414107565
1.4155806384471337,-2.485674657344099,1.4266652720028938,0.00930397480864576
1.3907238918736926,-2.5816438804594686,1.4267583117509803,0.007598596744821915
1.3649074530690979,-2.675031701234923,1.4268342977184285,0.001539504165216342
1.3381571360567486,-2.7653259284314635,1.4268496927600807,-0.00975410001350363
1.310503876772434,-2.852013675762543,1.4267521517599457,-0.02716698468936723
1.2819837400148086,-2.9345983559366076,1.426480481913052,-0.05155908780511817
1.2526377564554425,-3.0126171426955395,1.425964891035001,-0.0837352278446005
1.2225115850284871,-3.085657298193093,1.425127538756555,-0.12441572395074284
1.191655012046556,-3.1533696827596795,1.4238833815170475,-0.1742104912342998
1.1601213152189593,-3.215477954180513,1.4221412766047046,-0.23359895504794195
1.1279665356771542,-3.271782419066388,1.4198052870542253,-0.30291751024765906
1.0952487114864904,-3.3221581460122023,1.4167761119517486,-0.3823553392649342
1.0620271300263684,-3.3665476627889133,1.4129525585590992,-0.47195837546583846
1.0283616533984792,-3.404949195177252,1.4082329748044409,-0.5716402627476529
0.9943121614467066,-3.4374018462841964,1.4025165721769643,-0.6811984924393224
0.9599381429838647,-3.463969302137456,1.395704587252571,-0.8003335888025911
0.9252984499624901,-3.484723587781589,1.3877012513645453,-0.9286692647134821
0.8904512140846742,-3.499730146516862,1.3784145587174104,-1.0657718017264144
0.8554539126195055,-3.5090351582379555,1.3677568407001461,-1.211167404947429
0.820363561037126,-3.5126556349521056,1.355645166650672,-1.3643568222920992
0.7852370046876049,-3.5105724961989053,1.342001598427751,-1.5248270053190176
0.7501312797256159,-3.502726570126136,1.3267533283745607,-1.6920599687238547
0.7151040140243545,-3.48901729750564,1.3098327286873221,-1.8655392579840744
0.6802138410492982,-3.4693038278718755,1.2911773361074814,-2.044754566337418
0.6455208027705794,-3.4434081716372233,1.2707297904441073,-2.2292050746014493
0.6110867210542072,-3.4111200897114,1.2484377396980928,-2.418402046052061
0.5769755201570932,-3.372203445647815,1.2242537192375722,-2.6118711171114386
0.543253485700615,-3.3264038024363183,1.198135008066458,-2.8091546006649097
0.5099894476762519,-3.2734571101449745,1.1700434620598088,-3.009813973440305
0.47725487657480214,-3.213099400360944,1.1399453223254057,-3.2134325567130038
0.44512388257119273,-3.1450774820770193,1.1078109967582757,-3.4196182198304843
0.41367310775042254,-3.069160728505176,1.0736148145599709,-3.6280057331788726
0.38298150046537077,-2.985154165773679,1.0373347572281821,-3.838258161549793
0.353129958807634,-2.8929132358388046,0.9989521756126842,-4.05006640678315
0.3242008264492459,-2.7923608224141616,0.9584515115448528,-4.263145662867029
0.2962772182251043,-2.683507415718656,0.9158200549161825,-4.4772271179124274
0.2694421440679177,-2.5664756612341115,0.8710477837370582,-4.692042707717023
0.24377738745557662,-2.4415309896919553,0.8241273566598879,-4.907300088080686
0.21936207755865705,-2.3091205327091435,0.775054355779081,-5.1226442718267515
0.1962708722315656,-2.1699230054991694,0.7238279130608135,-5.337601666318344
0.17457164217657392,-2.0249124888690035,0.67045189639763,-5.551501784237174
0.15432251728788388,-1.875438676708727,0.6149368785552582,-5.763372177448311
0.1355681305207966,-1.7233244730769508,0.5573031567807751,-5.971804072302897
0.1183348857900271,-1.5709777082355343,0.49758511605774614,-6.17479125789882
0.10262510870767176,-1.4215056850567194,0.43583720347875793,-6.369555071021078
0.08841005185710457,-1.2788078164282775,0.37214165276854716,-6.552385920261754
0.0756219736928218,-1.147602785423576,0.3066177935659296,-6.718556952844165
0.06414594583858603,-1.0333267679223253,0.23943222403748796,-6.862392805411402
0.053812678159362776,-0.9418305890668472,0.17080829598337394,-6.977589837567885
0.044394372268694304,-0.8788273086688975,0.10103239760769508,-7.057855789515354
0.03560609918200533,-0.8491177549512737,0.030453839712541536,-7.097839245788027
0.027114921632492593,-0.8557437336783911,-0.04052455274533874,-7.094160222325205
0.018557484295708682,-0.8993286003764626,-0.11146615496859079,-7.046209756425853
0.009564198291944057,-0.977867979351377,-0.18192825253284933,-6.9563836050680825
-0.0002144815015697136,-1.0870801928001979,-0.25149208858353017,-6.829616940217248
-0.011085283429571692,-1.2211901067567528,-0.31978825798570265,-6.672393128902039
-0.02329718449713922,-1.373857750038974,-0.38651218927472303,-6.4916035676150825
-0.03703576199752896,-1.5389698399121994,-0.45142822495087387,-6.293615503561369
-0.052425460396650955,-1.7111451565024884,-0.5143643799864875,-6.083724210329754
-0.06953691196167584,-1.885950385656308,-0.5752016220897851,-5.865976391522246
-0.08839641581823893,-2.059906253099133,-0.6338613860050075,-5.64324944970703
-0.10899547834923026,-2.230379132978779,-0.6902938805020779,-5.41745856354548
-0.13129926967901806,-2.3954314189023815,-0.7444684661375327,-5.18979724386013
-0.1552535838680419,-2.5536738900256317,-0.796366438576134,-4.960958574849601
-0.1807903227682982,-2.7041395379582305,-0.84597602432463,-4.731315650785701
-0.2078317181478805,-2.8461838627865657,-0.8932891808324871,-4.501057909978032
-0.23629355677574618,-2.9794095394845055,-0.9382997599322674,-4.270288442865722
-0.2660876521705912,-3.103610748905228,-0.9810026443609247,-4.039089990838102
-0.2971237596596435,-3.218732162083019,-1.0213935442693056,-3.8075672333769273
-0.3293110812804737,-3.3248382278495954,-1.0594692166030748,-3.5758718081149126
-0.3625594635589697,-3.422089347763977,-1.095227934684224,-3.3442151661019626
-0.39678035703660947,-3.510722417483333,-1.1286700863452437,-3.1128731746047236
-0.4318875812114428,-3.59103395762938,-1.1597988180912908,-2.882185435057986
-0.4677979207877366,-3.66336463002697,-1.1886206724418706,-2.652551571482012
-0.5044315670880063,-3.728084354363467,-1.2151461881566907,-2.4244262169385085
-0.541712410631641,-3.7855775351823815,-1.2393904503260758,-2.198314030358993
-0.5795681859834648,-3.8362281106902905,-1.2613735906296657,-1.9747657677501518
-0.6179304670903677,-3.880404272787483,-1.2811212483071672,-1.7543761727050102
-0.6567345098182426,-3.9184428104529148,-1.2986650100342174,-1.5377842092995029
-0.6959189379227717,-3.950633124500551,-1.3140428521272125,-1.325675906006272
-0.7354252691677772,-3.9772010803330393,-1.3272996111872752,-1.1187897814928838
-0.7751972799711075,-3.998293037782355,-1.3384875090022041,-0.9179244489233307
-0.8151802103489311,-4.013960654621479,-1.3476667534914375,-0.7239475105978596
-0.8553198168951459,-4.024147428952873,-1.354906228597416,-0.5378042315235165
-0.8955612911846746,-4.028678435498121,-1.3602842709126512,-0.36052371255652865
-0.9358480755396559,-4.027255296891604,-1.3638895080382165,-0.1932194135479249
-0.976120628508572,-4.019459026111027,-1.3658217021736958,-0.03708003431670426
-1.0163152187696822,-4.0047637999147945,-1.3661925025168629,0.10665379381767517
-1.0563628567688301,-3.9825646846689056,-1.3651259645786862,0.2367314073893688
-1.0961885036155192,-3.9522214594325566,-1.3627586505047924,0.35195562845015715
-1.1357107182098447,-3.913118615589701,-1.3592390942202908,0.4512678438991612
-1.1748419043657417,-3.864738248695574,-1.3547264157812993,0.5338496707288626
-1.2134892868526974,-3.806738311790447,-1.3493879190740106,0.5992301090389394
-1.2515566699706018,-3.7390246987357862,-1.3433956179836213,0.6473814085025142
-1.2889469169579597,-3.6618035616502107,-1.3369218038985962,0.6787840809976182
-1.3255649525744617,-3.575601733502496,-1.33013396308862,0.6944438532013745
-1.3613209699094866,-3.481248640552246,-1.3231895245566063,0.6958515587484175
-1.396133456315009,-3.379821382859467,-1.316231008969122,0.6848891347514207
-1.4299316701436036,-3.272562945448998,-1.3093821176216078,0.6636969436806915
-1.4626572995980935,-3.160788773863384,-1.302745148184801,0.634525234467306
-1.4942651873367274,-3.0457975536990123,-1.296399895840128,0.5995933082571263
-1.5247231628737175,-2.928798413522936,-1.2904039627575568,0.5609745251917189
-1.5540111470089468,-2.810860929412146,-1.2847942175056395,0.5205166129911654
-1.5821197563030682,-2.692888564148972,-1.2795890513757278,0.4797982043425808
-1.609048641944558,-2.5756120906401874,-1.274791069332302,0.4401164361020048
-1.6348047628509599,-2.4595975944087716,-1.270389904971282,0.4024974860649499
-1.6594007387950476,-2.345263463052391,-1.2663649301106323,0.36772158639892283
-1.6828533734255715,-2.232901650895833,-1.262687714246643,0.3363553159051696
-1.7051823899345298,-2.1226997977842195,-1.2593241610875914,0.30878587032403676
-1.7264093879123719,-2.014762041270303,-1.256236302384351,0.2852538860295133
-1.746557008325075,-1.9091273761896732,-1.253383763524056,0.265882921814481
-1.7656482820869717,-1.8057851304934698,-1.250724934305911,0.250704797349982
-1.7837061333919064,-1.7046875736321245,-1.2482178863324112,0.23968068647744314
-1.8007530091282278,-1.6057599181575173,-1.2458210794676368,0.2327182596338341
-1.816810608309803,-1.5089080819300158,-1.2434938968712985,0.22968535693701186
-1.831899689129103,-1.4140246005706123,-1.2411970433019284,0.23042072981503708
-1.8460399351348091,-1.320993055697383,-1.238892836003778,0.23474237123948083
-1.8592498656917829,-1.229691338911355,-1.2365454122913833,0.2424539002044715
-1.8715467790808964,-1.1399940193908191,-1.2341208732893385,0.2533493981062662
-1.8829467192748046,-1.0517740324833886,-1.2315873793082759,0.2672170260932172
-1.8934644595996386,-0.9649038617411932,-1.2289152090473436,0.2838416897949913
-1.9031134982170506,-0.8792563487966321,-1.2260767921493938,0.30300696375340136
-1.911906061705017,-0.7947052343253465,-1.2230467225118598,0.324496442852496
-1.9198531140482704,-0.711125508429112,-1.2198017580833347,0.3480946514723953
-1.9269643691325615,-0.6283936291816405,-1.2163208115686108,0.37358761189091844
-1.9332483054243779,-0.5463876528711819,-1.2125849354497016,0.4007631504308121
-1.9387121819530897,-0.4649873077782738,-1.2085773039453935,0.4294110018580085
-1.9433620550308723,-0.38407403439754045,-1.2042831939268135,0.45932275857398264
-1.9472027953748476,-0.3035310082294406,-1.1996899663410736,0.4902917003690823
-1.950238105457142,-0.22324315613076892,-1.194787049337383,0.5221125322251754
-1.9524705370184496,-0.1430971733242854,-1.189565924015131,0.554581051324713
-1.9539015087516924,-0.06298154521688314,-1.184020113501884,0.5874937596056673
-1.9545313242038613,0.01721342407939097,-1.1781451759058272,0.6206474345595288
-1.9543591899630675,0.09759557637453886,-1.171938701560232,0.6538386682407841
-1.953383234199322,0.1782708584053766,-1.1654003148778243,0.6868633824393516
-1.9516005256152682,0.2593432775667787,-1.1585316810534307,0.7195163265075581
-1.9490070928396004,0.34091485766093693,-1.1513365177883552,0.7515905633119481
-1.945597944262991,0.4230855987824483,-1.1438206121552357,0.7828769481072058
-1.9413670882751664,0.5059534462106454,-1.1359918426741635,0.8131636047362985
-1.9363075538130599,0.589614273891048,-1.1278602066268006,0.8422354033965569
-1.9304114110741495,0.6741618887723775,-1.119437852592835,0.8698734442391441
-1.9236697921864256,0.7596880629299428,-1.1107391181504436,0.895854551265323
-1.9160729115571262,0.8462826010444143,-1.1017805726377903,0.9199507813357923
-1.907610085546682,0.9340334513983259,-1.0925810648244323,0.9419289536215791
-1.8982697510326987,1.0230268690673716,-1.0831617752882166,0.9615502055157582
-1.888039482342025,1.113347640367472,-1.073546273233059,0.9785695819356951
-1.8769060059383502,1.2050793777957107,-1.063760577413702,0.9927356661462597
-1.8648552121603932,1.2983048945663944,-1.0538332207522394,1.0037902618373373
-1.8518721632147292,1.393106667243658,-1.043795318133866,1.0114681383631556
-1.8379410965422927,1.4895673937035503,-1.0336806367502345,1.0154968540460165
-1.823045422605257,1.5877706514382783,-1.0235256682097742,1.0155966766249565
-1.8071677160908743,1.6878016576535677,-1.0133697014435246,1.011480625809524
-1.7902896995143387,1.7897481271700242,-1.0032548951854294,1.002854671217371
-1.7723922182426384,1.8937012160803188,-0.9932263484732557,0.9894181307713023
-1.7534552060818351,1.9997565274131548,-0.9833321671655427,0.9708643313637095
-1.7334576408077036,2.1080151382999226,-0.9736235238519056,0.9468816172931975
-1.7123774894247044,2.2185845843832235,-0.9641547076789737,0.9171548254473562
-1.6901916435808721,2.3315797037727646,-0.9549831594245002,0.8813673933011762
-1.6668758465431446,2.447123196093691,-0.9461694854914884,0.8392043317587129
-1.6424046145822078,2.5653456871619205,-0.9377774421739012,0.7903563866991703
-1.6167511577105886,2.6863850000375087,-0.9298738783069096,0.7345258399966726
-1.5898873077102136,2.8103842102498278,-0.9225286199069429,0.6714345744544687
-1.5617834656077152,2.9374878965291926,-0.9158142741623982,0.6008352616308136
-1.5324085866424233,3.06783577672357,-0.9098059215460901,0.5225268424213695
-1.5017302288751877,3.201552630592858,-0.9045806531218764,0.4363758712815644
-1.4697147025692592,3.3387330509904563,-0.9002168944090607,0.3423457909973774
-1.4363273720593546,3.4794191419109763,-0.8967934364990869,0.2405367770661001
-1.401533180640245,3.623568839734653,-0.8943880687284259,0.1312393682372199
-1.3652974922428984,3.7710121848660987,-0.8930756750460537,0.015005510488971682
-1.3275873703942374,3.9213928502921176,-0.8929256199411639,-0.10725946662289719
-1.2883734418913162,4.074092977095282,-0.8939982146073929,-0.23418169151414436
-1.2476325121203633,4.228141591584885,-0.8963400315225344,-0.36378163407245656
-1.2053510962045144,4.382111599545705,-0.899977847863259,-0.4933233953660568
-1.1615299802090573,4.534018671041914,-0.9049110818169195,-0.619171135345131
-1.1161897934986382,4.681247693771694,-0.9111027931703708,-0.7366915468783728
-1.0693773165609213,4.820547100206095,-0.9184697086391546,-0.8402625802566848
-1.0211718455588603,4.948141967263678,-0.9268723344417215,-0.9234637941091255
-0.9716904258862236,5.060011222789835,-0.9361069723828127,-0.9795150894122888
-0.9210903136583252,5.152338239754453,-0.9459021232769356,-1.0019773434295003
-0.8695669312607807,5.222073558454384,-0.9559218967112306,-0.9856247328044605
-0.8173461956762368,5.267467006086128,-0.9657781440392752,-0.927278348036166
-0.7646715256153755,5.288387220212598,-0.9750509275196368,-0.8263311595710758
-0.7117876534132496,5.286297970487197,-0.9833142391153477,-0.6847665539685093
-0.6589246737083776,5.263893115367112,-0.9901619046550327,-0.5066643238142753
-0.6062857425547065,5.224527440984342,-0.9952285478931755,-0.2973873448786553
-0.5540404681448631,5.1716351436606685,-0.998202421341962,-0.06272689378746282
-0.5023241167082564,5.108284057656585,-0.9988296902798367,0.19177324106676302
-0.4512412761316905,5.0369227137592,-0.9969119578691691,0.4612230379995101
-0.4008720489940985,4.959300298834782,-0.9922997274891739,0.7415445383485031
-0.35127904600575066,4.876503878845275,-0.9848842821056889,1.0294583350884197
-0.30251400721729793,4.789056312604176,-0.9745896987548047,1.3223787420300976
-0.25462344409125615,4.697033693876073,-0.9613659113345038,1.6182778589807791
-0.2076531071524954,4.600178630146328,-0.945183132744696,1.9155543880848884
-0.16165132085103212,4.497998831530752,-0.9260275888638472,2.212924095284139
-0.11667133253572459,4.389848372997431,-0.9038983479110058,2.5093370091778624
-0.07277284880575027,4.274992844972729,-0.8788049778192272,2.8039202905114946
-0.030022920356022977,4.1526609877605525,-0.8507657749141122,3.095943088160118
0.011503689521582552,4.022085515219388,-0.8198063440325111,3.3847989710520867
0.05172454467377643,3.8825354217867005,-0.7859583543219902,3.67000165092959
0.09054989889164344,3.733341544855686,-0.7492583378126944,3.951190119752011
0.1278833143402003,3.5739167267551024,-0.7097464366151742,4.228139739578907
0.16362248160775134,3.403771684643619,-0.6674650392193852,4.50077611507733
0.19766019845418753,3.222527703772128,-0.6224572780686118,4.76918868407237
0.2298854754919088,3.029927561252256,-0.5747653912278882,5.033640820493615
0.26018475110443134,2.825846718171591,-0.524428983022952,5.294572767444916
0.2884432182861473,2.6103078715337116,-0.4714832553485029,5.552592760744759
0.3145462970014844,2.3835035592596716,-0.4159573277410553,5.808450044879351
0.3383813325940811,2.1458338285134326,-0.35787282729226183,6.06298082425224
0.3598396708792154,1.8979691858075065,-0.29724301904973943,6.317014193839341
0.3788193627372905,1.640953207547209,-0.234072877111346,6.571219536045495
0.3952288948127626,1.3763639095250482,-0.16836068175089103,6.825870104123232
0.40899253390801305,1.1065566190675757,-0.10010198070965871,7.080491519301449
0.4200581000986888,0.8350091922034376,-0.029297065516644225,7.33336449364591
0.4284081920207232,0.5667730310195191,0.044036579419814884,7.580871560436591
0.4340759223309184,0.30898244372097117,0.11984529502418079,7.816742616958088
0.43716574676812814,0.07126707466480209,0.19801272119376168,8.031396464703061
0.4378784175147762,-0.13425872793378937,0.2783266858407923,8.211806134318788
0.4365358302354383,-0.29391730306585584,0.3604447471839802,8.342540242998004
0.43359665720477975,-0.3947127619745199,0.4438701496139602,8.408546054189543
0.42964952958503455,-0.4276939058329224,0.5279556101558557,8.399424548446529
0.42537259052670534,-0.39113707411576015,0.611949855640321,8.313495384210029
0.42146121978554774,-0.2916382485983918,0.6950848094824214,8.159142055770403
0.4185448372995638,-0.1421917075973215,0.7766762300401254,7.952261230188566
0.4171229202235906,0.041626612162186716,0.856198842342011,7.711345240241822
0.4175391863452125,0.2452249592097141,0.9333122947444292,7.45302687966713
0.41999143593730964,0.45696792105262374,1.0078425635411006,7.18978022965347
0.4245611151478359,0.6685728264821197,1.0797403658376352,6.929661590952268
0.4312468434126571,0.8746161617540892,1.149036981747158,6.677138468170861
0.439993005030198,1.0717766577517156,1.2158083664288666,6.43418160980623
0.45071077160771517,1.2581468686209079,1.2801501825269288,6.201207053844219
0.46329224029392424,1.4327171840885864,1.342162253065371,5.977756836652185
0.47761941213481013,1.595026512328244,1.4019398214318928,5.762944231638991
0.4935696772580926,1.7449400616372057,1.4595692637482827,5.555726149098759
0.5110190778744647,1.8825139994703624,1.5151265252392703,5.355060695361352
0.5298442178691682,2.0079159488965947,1.5686771321928838,5.159992607073142
0.5499233773581342,2.1213799420885713,1.6202770582636152,4.969694956796782
