th1 (rad),w1 (rad/s),th2 (rad),w2 (rad/s),a1 (rad/s^2),a2 (rad/s^2)
3.772221539107922,-1.9525376225454822,1.9251828552794679,0.013068842950756578,5.219448603705681,-4.099594733248505
3.752696162882467,-1.9003431365084253,1.9253135437089755,-0.027927104381728473,5.06265671067658,-4.412700641063803
3.7336927315173827,-1.8497165694016595,1.9250342726651581,-0.07205411079236651,4.912125530475948,-4.7089900073198985
3.715195565823366,-1.8005953140969,1.9243137315572345,-0.1191440108655655,4.766529444361044,-4.989441063316618
3.697189612682397,-1.7529300196532895,1.9231222914485788,-0.1690384214987317,4.62460630876039,-5.254923468497558
3.679660312485864,-1.7066839565656857,1.9214319072335915,-0.22158765618370727,4.485156196347328,-5.506210533971346
3.662593472920207,-1.6618323946022124,1.9192160306717545,-0.27664976152342075,4.347039974165932,-5.7439915604313105
3.645975148974185,-1.6183619948605532,1.9164495330565203,-0.33408967712773385,4.209177821557633,-5.968884015607657
3.6297915290255793,-1.576270216644977,1.913108636285243,-0.3937785172838104,4.070547746491588,-6.181445334748827
3.6140288268591294,-1.535564739180061,1.9091708511124048,-0.45559297063129867,3.9301841259502406,-6.3821841723340835
3.598673179467329,-1.4962628979205588,1.904614921406092,-0.5194148123546395,3.78717627238476,-6.5715709677483884
3.583710550488123,-1.4583911351967112,1.8994207732825454,-0.5851305220321233,3.6406670123332967,-6.750047714747801
3.569126639136156,-1.4219844650733782,1.8935694680622241,-0.6526309991796013,3.4898512537274877,-6.918036846312398
3.5549067944854222,-1.3870859525361032,1.887043158070428,-0.7218113676427254,3.333974514037311,-7.0759491644842285
3.5410359349600613,-1.35374620739573,1.8798250443940008,-0.7925708592875677,3.172331381226,-7.224190760131288
3.527498472886104,-1.3220228935834701,1.871899335801125,-0.8648127668888805,3.004263882652058,-7.363168881014998
3.5142782439502693,-1.2919802547569497,1.8632512081322363,-0.9384444556990306,2.8291597428342383,-7.493296718536463
3.5013584414027,-1.2636886573286072,1.853866763575246,-1.0133774228843953,2.646450518768088,-7.614997094354195
3.488721554829414,-1.2372241521409264,1.843732989346402,-1.0895273938279373,2.455609610728951,-7.7287050378105855
3.476349313308005,-1.212668056033637,1.8328377154081228,-1.166814444206043,2.256150156787137,-7.8348692537844995
3.4642226327476684,-1.1901065544657656,1.8211695709660625,-1.245163136743888,2.0476228302488235,-7.933952488150727
3.4523215672030108,-1.1696303261632774,1.8087179395986235,-1.3245026616253952,1.8296135706454986,-8.026430804392225
3.440625263941378,-1.1513341904568224,1.7954729129823694,-1.4047669696693175,1.6017412905094972,-8.112791789989421
3.42911192203681,-1.1353167775517274,1.7814252432856763,-1.4858948875692117,1.3636556118248058,-8.193531714921583
3.4177587542612926,-1.1216802214334793,1.7665662944099843,-1.5678302047184276,1.115034697594749,-8.269151666898459
3.406541952046958,-1.1105298744575318,1.7508879923628,-1.6505217213874122,0.8555832553045485,-8.340152688765022
3.3954366533023825,-1.1019740419044863,1.7343827751489258,-1.7339232482750624,0.5850308000644325,-8.407029942896449
3.3844169128833377,-1.096123733903842,1.7170435426661752,-1.817993547704027,0.3031302757771635,-8.470265925382694
3.3734556755442995,-1.0930924311460706,1.698863607189135,-1.902696206957854,0.00965714263997781,-8.53032274951328
3.3625247512328387,-1.0929958597196707,1.6798366451195565,-1.9879994344529868,-0.29559095151063786,-8.587633513714822
3.351594792635642,-1.095951769234777,1.6599566507750267,-2.073875769590135,-0.6127937902946065,-8.642592763966714
3.340635274943294,-1.102079707137723,1.6392178930791255,-2.160301697229802,-0.9421073656716206,-8.695546055244439
3.329614477871917,-1.1115007807944393,1.6176148761068274,-2.247257157782246,-1.2836616746537386,-8.746778611277666
3.3184994700639727,-1.1243373975409767,1.595142304529005,-2.334724943895023,-1.6375573946663633,-8.796503077585724
3.307256096088563,-1.1407129714876403,1.5717950550900548,-2.42268997467088,-2.0038612958058883,-8.844846360270303
3.2958489663736867,-1.1607515844456993,1.547568155343346,-2.511138438273583,-2.382600251031274,-8.891835543499862
3.2842414505292297,-1.184577586956012,1.5224567709606103,-2.600056793708582,-2.7737537123467915,-8.937382883303671
3.2723956746596694,-1.2123151240794798,1.4964562030235244,-2.6894306225416185,-3.177244533340542,-8.981269885684746
3.2602725234188745,-1.2440875694128852,1.4695618967981083,-2.7792433213984657,-3.59292803729346,-9.023130494805606
3.2478316477247455,-1.2800168497858198,1.4417694635841236,-2.8694746263465216,-4.0205792569221,-9.06243344386464
3.2350314792268873,-1.3202226423550407,1.4130747173206584,-2.960098960785168,-4.4598783083013345,-9.098463859082162
3.221829252803337,-1.364821425438054,1.3834737277128066,-3.05108359937599,-4.910393909394978,-9.130304257716368
3.2081810385489566,-1.4139253645320038,1.3529628917190468,-3.1423866419531534,-5.371565114703277,-9.156815145789635
3.1940417849036367,-1.4676410156790365,1.3215390252995154,-3.23395479341105,-5.8426814135040805,-9.176615501377853
3.179365374746846,-1.5260678298140773,1.289199477365405,-3.3257209484248285,-6.3228614313811455,-9.188063525385626
3.1641046964487054,-1.5892964441278887,1.2559422678811567,-3.417601583678685,-6.811030583944933,-9.189238153191669
3.1482117320074265,-1.657406749967338,1.22176625204437,-3.5094939652106016,-7.3058981576210344,-9.17792194551797
3.1316376645077533,-1.7304657315435483,1.1866713123922639,-3.6012731846657813,-7.805934433444932,-9.151586111664624
3.1143330071923176,-1.8085250758779976,1.150658580545606,-3.6927890457824275,-8.30934862237118,-9.10737855692595
3.0962477564335376,-1.8916185621017094,1.1137306900877817,-3.783862831351687,-8.814068538657702,-9.042115979990994
3.0773315708125204,-1.9797592474882864,1.0758920617742649,-3.874283991151597,-9.317723092510084,-8.952281163959737
3.0575339783376374,-2.072936478413387,1.037149221862749,-3.9638068027911944,-9.81762882226413,-8.83402669188442
3.0368046135535036,-2.1711127666360284,0.997511153834837,-4.052147069710038,-10.310781794644607,-8.68318635753895
3.015093485887143,-2.2742205845824746,0.9569896831377367,-4.138978933285427,-10.793856261000906,-8.495295515877974
2.9923512800413183,-2.3821591471924837,0.9155998938048824,-4.223931888444207,-11.263211448129892,-8.26562150683986
2.9685296885693937,-2.4947912616737824,0.8733605749204403,-4.306588103512606,-11.714907764755894,-7.989205074719383
2.943581775952656,-2.6119403393213414,0.8302946938853142,-4.3864801542598,-12.144733502242705,-7.660913382996535
2.9174623725594424,-2.7333876743437684,0.7864298923427162,-4.4630892880897655,-12.548242790433202,-7.275504790702768
2.8901284958160045,-2.8588701022481002,0.7417989994618186,-4.535844335996793,-12.920805137110692,-6.827705024579188
2.8615397947935235,-2.988078153619207,0.6964405561018506,-4.604121386242585,-13.257666347969682,-6.3122937827588474
2.8316590132573314,-3.1206548170989037,0.6503993422394247,-4.6672443240701735,-13.554020027491902,-5.72420019222057
2.8004524650863423,-3.2561950173738228,0.603726898998723,-4.7244863259923795,-13.805088254944673,-5.058604985910076
2.767890514912604,-3.3942458999232694,0.5564820357387992,-4.77507237585148,-14.00620948911843,-4.311046854744306
2.7339480559133715,-3.5343079948144536,0.5087313119802843,-4.818182844398923,-14.15293137083826,-3.4775302607788383
2.698604975965227,-3.675837308522836,0.4605494835362951,-4.852958147006712,-14.241105959497697,-2.5546321597492097
2.6618466028799985,-3.818248368117813,0.41201990206622796,-4.878504468604204,-14.266985145005558,-1.5396056364454056
2.6236641191988204,-3.9609182195678687,0.3632348573801859,-4.893900524968658,-14.227314576815614,-0.4304794173820728
2.584054937003142,-4.103191365336025,0.3142958521304993,-4.898205319142479,-14.11942545384358,0.7738464695534087
2.5430230233497815,-4.244385619874461,0.26531379893907453,-4.890466854446944,-13.941324858753235,2.073507125053563
2.5005791671510367,-4.3837988684619935,0.21640913039460508,-4.869731783196409,-13.69178684667243,3.4675781131932024
2.456741178466417,-4.520716736928718,0.16771181256264098,-4.835056002064477,-13.370447969590453,4.953975529828426
2.4115340110971295,-4.654421216624622,0.1193612525419962,-4.785516246766193,-12.97791200877891,6.529346521624186
2.3649897989308832,-4.784200336712411,0.07150609007433427,-4.720222781549951,-12.515869019026022,8.188947204887667
2.317147795563759,-4.9093590269026715,0.02430386225883476,-4.638333309501074,-11.987232974378799,9.926507932197861
2.2680542052947326,-5.029231356646459,-0.02207947083617598,-4.539068230179096,-11.396300023215458,11.73409089491791
2.217761891728268,-5.143194356878614,-0.06747015313796693,-4.421727321229916,-10.74892544172929,13.601952134095027
2.1663299481594818,-5.250683611295907,-0.1116874263502661,-4.285707799888966,-10.052711905705694,15.518428760354327
2.1138231120465227,-5.351210730352964,-0.15454450434915576,-4.130523512285423,-9.317195124257502,17.469881634555083
2.060311004742993,-5.444382681595539,-0.19584973947200998,-3.955824695939872,-8.554006073128019,19.44073243401576
2.005867177927038,-5.52992274232682,-0.2354079864314087,-3.7614173715997143,-7.776983356202015,21.413639892845005
1.9505679505037696,-5.60769257588884,-0.2730221601474058,-3.547280972671264,-7.002206299510035,23.369860721882393
1.8944910247448812,-5.67771463888394,-0.30849496987411845,-3.31358236545244,-6.247921055126393,25.289834083426705
1.8377138783560418,-5.7401938494352045,-0.34163079352864284,-3.060684024618173,-5.534339805089728,27.154013111547055
1.7803119398616898,-5.795537247486102,-0.37223763377482455,-2.7891438935027026,-4.883307863653394,28.943942988687056
1.7223565673868289,-5.844370326122636,-0.4001290727098516,-2.4997044636158323,-4.31785453451009,30.643554907168333
1.6639128641256025,-5.887548871467737,-0.4251261173460099,-2.193268914544149,-3.8616688229655516,32.2406137514256
1.605037375410925,-5.926165559697393,-0.4470588064914514,-1.8708627770298931,-3.538566842999291,33.72823147641267
1.5457757198139512,-5.9615512281273855,-0.4657674342617503,-1.5335804622657665,-3.372039440635451,35.10634563355423
1.4861602075326774,-5.99527162253374,-0.481103238884408,-1.1825170059302241,-3.384981927344152,36.38306981750053
1.42620749130734,-6.029121441807181,-0.4929284089437102,-0.8186863077552189,-3.5997103193032824,37.575853210300636
1.365916276889268,-6.065118545000214,-0.5011152720212624,-0.44292777565221253,-4.038360326423771,38.71243838153935
1.3052650914392658,-6.105502148264452,-0.5055445497777845,-0.05580339183681904,-4.723749747827474,39.831673549769654
1.2442100699566212,-6.152739645742726,-0.5061025836961527,0.3425133436608775,-5.680767058683686,40.98430697838135
1.182682673499194,-6.209547316329563,-0.5026774502595439,0.752356413444691,-6.9383332497101105,42.233953282012585
1.1205872003358983,-6.278930648826664,-0.495153886125097,1.1746959462648168,-8.531969383455792,43.658455926542736
1.0577978938476318,-6.364250342661222,-0.48340692666244883,1.6112805055302442,-10.5069737563635,45.351846332921525
0.9941553904210195,-6.469320080224858,-0.4672941216071464,2.0647989688594595,-12.922122800634863,47.42695042321506
0.9294621896187709,-6.598541308231206,-0.4466461319185518,2.53906847309161,-15.853537647401824,50.0182538364198
0.8634767765364588,-6.757076684705224,-0.4212554471876357,3.039251011455808,-19.39760590222192,53.28349894636364
0.7959060096894066,-6.951052743727443,-0.3908629370730776,3.5720860009194446,-23.669890648932753,57.39964196908736
0.7263954822521321,-7.187751650216771,-0.3551420770638832,4.146082420610318,-28.79204185396736,62.5417924810328
0.6545179657499645,-7.475672068756444,-0.31368125285778,4.771500345420646,-34.84671883433542,68.81680335231255
0.5797612450624,-7.824139257099799,-0.2659662494035735,5.459668378943772,-41.75250958663229,76.08377915794526
0.501519852491402,-8.241664352966122,-0.21136956561413578,6.220506170523224,-48.952313377759936,83.5117308335873
0.41910320896174075,-8.731187486743721,-0.14916450390890354,7.055623478859097,-54.72394503280281,88.60649733088493
0.3317913340943035,-9.27842693707175,-0.07860826912031257,7.941688452167947,-54.994850400159066,85.54523477593175
0.23900706472358602,-9.82837544107334,0.0008086154013668967,8.797140799927265,-42.66600547763681,64.24566906427926
0.14072331031285262,-10.25503549584971,0.08878002340063955,9.439597490570057,-11.928409328750933,16.503617893123632
0.038172955354355526,-10.374319589137219,0.18317599830634013,9.604633669501293,29.128088951555824,-46.159045632312804
-0.06557024053701667,-10.08303869962166,0.2792223350013531,9.143043213178165,57.817558597363345,-91.47952159561919
-0.16640062753323326,-9.504863113648026,0.3706527671331347,8.228247997221974,63.917432047732056,-104.68868979749007
-0.2614492586697135,-8.865688793170706,0.4529352471053545,7.1813610992470736,56.67282214835527,-98.59994776449926
-0.3501061466014206,-8.298960571687154,0.5247488580978252,6.195361621602081,46.0759618250445,-87.30585924002997
-0.4330957523182921,-7.838200953436709,0.586702474313846,5.322303029201781,36.27383034771413,-76.76098745280437
-0.5114777618526593,-7.475462649959567,0.6399255046058638,4.554693154673737,28.191010517459443,-68.37103531607315
-0.5862323883522549,-7.193552544784973,0.6854724361526012,3.870982801513006,21.72349971339815,-62.05451579913846
-0.6581679138001046,-6.976317547650991,0.7241822641677312,3.2504376435216216,16.560176122455115,-57.40238581286231
-0.7279310892766145,-6.81071578642644,0.7566866406029474,2.6764137853929983,12.412875537986377,-54.00996567871655
-0.7960382471408789,-6.686587031046576,0.7834507784568774,2.1363141286058327,9.0607829568995,-51.546133876489066
-0.8629041174513447,-6.595979201477581,0.8048139197429357,1.6208527898409422,6.345580779507257,-49.75156753991699
-0.9288639094661204,-6.532523393682508,0.8210224476413451,1.1233371144417723,4.157180884382573,-48.422869555595824
-0.9941891434029455,-6.490951584838682,0.8322558187857628,0.639108418885814,2.420297536268824,-47.397726309893905
-1.0590986592513323,-6.466748609475994,0.838646902974621,0.16513115578687498,1.083721943517166,-46.54415014182877
-1.1237661453460923,-6.455911390040822,0.8402982145324898,-0.30031034563141273,0.11205406281591608,-45.75361465715088
-1.1883252592465006,-6.454790849412663,0.8372951110761756,-0.7578464922029216,-0.5206711507684646,-44.93717640438279
-1.2528731677406273,-6.459997560920348,0.8297166461541464,-1.2072182562467495,-0.8358943895559273,-44.02362645518645
-1.3174731433498308,-6.468356504815907,0.817644463591679,-1.647454520798614,-0.8542211146479705,-42.95881019164972
-1.3821567083979898,-6.476898715962387,0.8011699183836928,-2.077042622715111,-0.5979937375888362,-41.70537726195802
-1.4469256955576135,-6.482878653338275,0.7803994921565417,-2.494096395334691,-0.09279286703126985,-40.242371701745704
-1.5117544820909963,-6.483806582008588,0.7554585282031948,-2.8965201123521482,0.6320722394687027,-38.56425566653739
-1.576592547911082,-6.4774858596139016,0.7264933270796733,-3.2821626690175223,1.5439596705915635,-36.67917415232845
-1.641367406507221,-6.462046262907986,0.6936717003894981,-3.648954410540807,2.607971239867436,-34.6064864012813
-1.7059878691363008,-6.4359665505093115,0.65718215628409,-3.99501927455362,3.7884377948797616,-32.37377416006387
-1.770347534641394,-6.398082172560514,0.6172319635385538,-4.318757016154259,5.050518159858686,-30.013652709955924
-1.834328356366999,-6.347576990961927,0.5740443933770112,-4.618893543253818,6.361643509776794,-27.560740097183736
-1.8978041262766183,-6.283960555864159,0.527855457944473,-4.894500944225655,7.692609362735652,-25.04908911800604
-1.9606437318352599,-6.207034462236802,0.4789104485022164,-5.144991835405715,9.01821141419945,-22.510280766071375
-2.022714076457628,-6.116852348094808,0.42746053014815927,-5.370094643066429,10.317415933478522,-19.97225136571551
-2.083882599938576,-6.013678188760022,0.37375958371749496,-5.569817156723585,11.573131525662847,-17.458810023153188
-2.1440193818261766,-5.897946873503394,0.3180614121502591,-5.744405256955116,12.77169654388836,-14.989719087650448
-2.2029988505612104,-5.77022990806451,0.260617359580708,-5.89430244783162,13.902214091303138,-12.581165740514717
-2.2607011496418554,-5.631207767151479,0.20167433510239177,-6.020114105236767,14.955859550071958,-10.24644466721992
-2.31701322731337,-5.481649171650759,0.1414731940500241,-6.122578551908966,15.925262009154475,-7.99669093833432
-2.371829719029878,-5.322396551559215,0.08024740853093443,-6.20254546129231,16.804028978231123,-5.841537901256146
-2.4250536845454698,-5.154356261776903,0.018221953918011326,-6.260960840304872,17.586449953198105,-3.789617414461559
-2.4765972471632387,-4.978491762244922,-0.04438765448503739,-6.298857014449488,18.267383305571666,-1.8488619235065296
-2.526382164785688,-4.795817929189206,-0.10737622462953228,-6.317345633684553,18.842305412185073,-0.026604963567710693
-2.57434034407758,-4.607394875067356,-0.17054968096637782,-6.31761168332023,19.307482456185976,1.6704940581170176
-2.6204142928282534,-4.414320050505496,-0.23372579779958014,-6.30090674273906,19.660214568944287,3.2366548252528013
-2.6645574933333083,-4.217717904816053,-0.29673486522697073,-6.2685401944865315,19.899098914169493,4.667254195474058
-2.7067346723814687,-4.018726915674358,-0.35942026717183606,-6.221867652531791,20.024262267317567,5.959119097997847
-2.7469219415382122,-3.818484293001182,-0.421638943697154,-6.162276461551812,20.037523306479446,7.110781980616079
-2.785106784468224,-3.618109059936388,-0.4832617083126721,-6.091168641745651,19.942458343119817,8.122658387231343
-2.821287875067588,-3.41868447650519,-0.5441733947301286,-6.009942057873338,19.744359378489282,8.997121520978554
-2.85547471983264,-3.221240882720297,-0.604272815308862,-5.9199708426635524,19.45008794991511,9.738464818248003
-2.887687128659843,-3.0267400032211462,-0.6634725237354975,-5.822586194481072,19.067840337331432,10.352758315536551
-2.9179545286920545,-2.836061599847832,-0.7216983856803082,-5.719058611325707,18.60684805760105,10.84761617917293
-2.9463151446905327,-2.649993119271821,-0.7788889717935653,-5.610582449533978,18.07704166536715,11.231900197173413
-2.972815075883251,-2.4692227026181497,-0.834994796288905,-5.498263447562244,17.48870592173253,11.515387115895669
-2.9975073029094323,-2.2943356434008244,-0.8899774307645275,-5.383109576403287,16.85215116994209,11.70842693733443
-3.0204506593434406,-2.1258141317014037,-0.9438085265285604,-5.266025307029943,16.177420372781736,11.821615625736602
-3.0417088006604547,-1.9640399279735863,-0.9964687795988598,-5.147809150772577,15.47404488395111,11.865500245646503
-3.0613491999401905,-1.8092994791340753,-1.0479468711065856,-5.029154148316112,14.750855665279472,11.85032846602922
-3.079442194731531,-1.6617909224812806,-1.0982384125897466,-4.91065086365582,14.015851073988411,11.78584851030438
-3.096060103956344,-1.5216324117413964,-1.147344921226305,-4.792792378552776,13.276117969510269,11.681160619776438
-3.111276428073758,-1.3888712320462937,-1.1952728450118326,-4.675980772355012,12.537799883193081,11.544617248848471
-3.1251651403942207,-1.263493233214363,-1.2420326527353827,-4.560534599866528,11.8061042931685,11.383766601295413
-3.1378000727263644,-1.1454321902826778,-1.2876379987340478,-4.446696933853573,11.085340448159732,11.205332649971727
-3.149254394629191,-1.0345787858010804,-1.3321049680725836,-4.334643607353856,10.378979420546742,11.015224257967034
-3.159600182487202,-0.930788991595613,-1.375451404146122,-4.2244913647741855,9.68972886578471,10.818566197697987
-3.168908072403158,-0.8338917029377659,-1.417696317793864,-4.116305702797206,9.019616077784589,10.619745510769041
-3.1772469894325357,-0.7436955421599201,-1.458859374821836,-4.010108247689516,8.370074163066807,10.422467562518712
-3.184683944854135,-0.659994800529252,-1.4989604572987312,-3.9058835720643286,7.74202736985626,10.229817161950724
