th1 (rad),w1 (rad/s),th2 (rad),w2 (rad/s)
0.23182633003851583,2.1370219393934873,2.213138461080333,1.4771462222616252
0.2531965494324507,2.097335674113651,2.227909923302949,1.3409657858562802
0.27416990617358716,2.0545535285850867,2.241319581161512,1.2061106859076207
0.294715441459438,2.0089973603503513,2.2533806880205884,1.0728013185344891
0.3148054150629415,1.9609782135545344,2.2641087012059335,0.9412344689644909
0.3344151971984869,1.9107950439716874,2.2735210458955786,0.8115825821181878
0.35352314763820375,1.858733742412905,2.2816368717167603,0.6839934298493919
0.3721104850623328,1.8050664422158438,2.2884768060152543,0.5585901370388678
0.3901611494844912,1.750051092632124,2.2940627073856428,0.43547152628962355
0.4076616604108124,1.6939312768729327,2.298417422648539,0.31471273948623424
0.42460097317954176,1.6369362513243388,2.3015645500434014,0.19636609394564897
0.44097033569278515,1.5792811809720646,2.303528210982858,0.08046213126300852
0.4567631475025058,1.521167545336336,2.304332832295488,-0.03298918182630971
0.4719748229558692,1.4627836891509134,2.304002940477225,-0.14399713928560146
0.4866026598473783,1.4043054925517306,2.302562969084369,-0.25258890444937265
0.5006457147728957,1.3458971365831363,2.3000370800398753,-0.35880807459179753
0.5141046861387271,1.2877119412890496,2.296448999293957,-0.46271323104182704
0.5269818055516176,1.2298932554348025,2.291821866983539,-0.564376500886891
0.5392807381059656,1.1725753789068327,2.28617810197467,-0.6638821526368409
0.5510064918950339,1.115884500971108,2.2795392804483017,-0.7613252446094465
0.562165336904745,1.0599396397553353,2.2719260280022073,-0.8568103413513064
0.5727647333022984,1.0048535704839048,2.263357924588694,-0.9504503102054396
0.5828132690071375,0.9507337320796118,2.2538534214866397,-1.0423652072392888
0.5923206063279336,0.8976831037065217,2.243429769414247,-1.1326812591934319
0.6012974373649989,0.8458010446298662,2.2321029568223127,-1.221529945921422
0.6097554478112975,0.795184092388275,2.2198876573630986,-1.3090471859670048
0.6177072887351803,0.7459267156966817,2.2067971855034285,-1.395372626453801
0.6251665558921471,0.6981220197175847,2.1928434592388903,-1.480649037319429
0.6321477760893229,0.6518624023514634,2.178036968865696,-1.565021809075883
0.6386664001128376,0.6072401610037816,2.1623867507749375,-1.64863855267729
0.6447388017228755,0.5643480498857572,2.1459003652481647,-1.7316487996740733
0.650382282221733,0.5232797882955439,2.128583877251424,-1.8142038005709171
0.6556150801046884,0.4841305204963674,2.1104418392457145,-1.896456419118506
0.660456385309652,0.4469972277397497,2.0914772750545296,-1.9785611200792927
0.6649263575870495,0.411979092642934,2.071691663853737,-2.0606740477250587
0.6690461485134789,0.37917781546879575,2.0510849233764863,-2.142953191838774
0.6728379266681669,0.3486978807970531,2.0296553914580984,-2.2255586371675173
0.6763249054761374,0.32064677150594106,2.0073998050864232,-2.308652890930111
0.6795313731911968,0.2951351247454071,1.984313276177122,-2.392401280890667
0.6824827244386509,0.27227682145495696,1.9603892633682154,-2.476972413358312
0.6852054926532004,0.25218899665503874,1.9356195392346323,-2.5625386758475566
0.6877273826197507,0.23499195179882215,1.9099941524761568,-2.649276762468166
0.690077302137739,0.22080894233482898,1.8835013848514752,-2.7373681906384246
0.6922853915610873,0.20976580251482962,1.8561277029450909,-2.8269997643818057
0.6943830495862355,0.2019903543212265,1.8278577053012728,-2.9183639208438543
0.6964029531294478,0.19761152674890814,1.7986740660928342,-3.0116588708108467
0.6983790683969369,0.19675808363900849,1.7685574773847257,-3.107088408301403
0.7003466492333269,0.19955682028710103,1.7374865933017116,-3.204861215229152
0.702342217436198,0.20613003783125994,1.70543798114942,-3.305189420076115
0.7044035178145106,0.21659203576932512,1.6723860869486589,-3.4082860785149065
0.7065694381722039,0.2310442717344541,1.6383032261635098,-3.5143611215570663
0.7088798808895485,0.24956871801847325,1.603159614947939,-3.6236151543724464
0.7113755680697332,0.27221879040383434,1.5669234634042146,-3.736230277230286
0.7140977559737716,0.29900703251690436,1.5295611606319117,-3.8523568315626373
0.7170878262989406,0.3298885094699682,1.4910375923162853,-3.972094647924526
0.7203867113936403,0.3647386119910343,1.4513166458370401,-4.095467003550818
0.7240340975135506,0.40332373620544837,1.410361975801532,-4.22238513359042
0.7280673348756052,0.44526317205273513,1.3681381244656279,-4.352600893399243
0.7325199665961325,0.4899806739228285,1.3246121155316355,-4.485645260679323
0.7374197733353608,0.5366448965820085,1.2797556629248423,-4.620751190115449
0.7427862223011809,0.5840996264598981,1.2335481510236879,-4.75676152202216
0.7486272185657799,0.6307881690068137,1.1859805358034663,-4.892027083889176
0.754935100255848,0.674682060886177,1.1370602649645745,-5.024307776317569
0.7616819208647098,0.713232769785568,1.0868171872013987,-5.150700773286319
0.7688142485625654,0.7433752165420648,1.0353101794685355,-5.267633703011615
0.776248000727986,0.761620069123189,0.9826338424384193,-5.370971835677874
0.783864201419218,0.7642702580852927,0.9289241240816406,-5.456286710168298
0.791506904000071,0.7477760515996985,0.8743612569799576,-5.519305753569755
0.798984664516068,0.7091965601808519,0.81916819944426,-5.556500497003127
0.8060766301178764,0.6466736954930671,0.7636031944742288,-5.565688529456152
0.8125433670728072,0.5597796680247237,0.7079463091796673,-5.546465115229997
0.8181411637530545,0.4496114842336435,0.6524816580273674,-5.500298816918796
0.8226372785953909,0.31858839438971254,0.5974786698581794,-5.430237799943859
0.825823162539288,0.17002140948887443,0.5431762918587408,-5.3403250852358894
0.8275233766341767,0.007599995702616935,0.4897730410063819,-5.234919891766916
0.8275993765912029,-0.16505970441966583,0.43742384208871277,-5.118116550383218
0.8259487795470062,-0.34472099755402885,0.3862426765848806,-4.99336807224709
0.8225015695714659,-0.5286745529433667,0.3363089958624097,-4.8633245623134
0.8172148240420323,-0.7147622902723093,0.2876757502392757,-4.729835498552164
0.8100672011393092,-0.9013259696482164,0.24037739525375407,-4.594047896608955
0.801053941442827,-1.0871225780591387,0.19443691628766452,-4.456543451178045
0.7901827156622356,-1.271234480436794,0.14987148177588405,-4.317477990597569
0.7774703708578677,-1.4529891866462505,0.10669670186990837,-4.176704650903564
0.7629404789914053,-1.6318944861610856,0.06492965536087272,-4.033874328942937
0.7466215341297944,-1.8075895144976826,0.02459091207144335,-3.888513635015524
0.7285456389848175,-1.9798098894776806,-0.014294224278711888,-3.7400834617163645
0.7087475400900407,-2.1483642481331398,-0.051695058895875536,-3.588022043495011
0.6872638976087093,-2.313119517249368,-0.08757527933082565,-3.4317761208520547
0.6641327024362156,-2.473992581874784,-0.1218930405393462,-3.270823192905994
0.6393927766174677,-2.63094642730961,-0.15460127246840613,-3.104687169747111
0.6130833123443716,-2.783989208763467,-0.18564814416587724,-2.932949162703834
0.5852434202567369,-2.9331750083672485,-0.2149776357929156,-2.755254722214668
0.5559116701730644,-3.078605263564662,-0.24253018301506227,-2.5713185528758262
0.5251256175374178,-3.220429997692201,-0.2682433685438205,-2.3809275924171343
0.4929213175604958,-3.3588480572834705,-0.29205264446799184,-2.183943324023259
0.4593328369876611,-3.4941055616412426,-0.3138920777082244,-1.9803042931461967
0.42439178137124867,-3.626491692476267,-0.33369512063968637,-1.7700300223348433
0.388126864446486,-3.7563307819396727,-0.3513954208630348,-1.5532278708209633
0.35056355662708927,-3.8839693772502955,-0.36692769957124444,-1.3301048869617187
0.3117238628545863,-4.009756548199569,-0.38022874844086163,-1.1009873702756867
0.27162629737259064,-4.134015146161398,-0.3912386221436185,-0.8663517032054151
0.23028614591097665,-4.257001033968526,-0.39990213917567263,-0.6268709968362478
0.1877161355712914,-4.378846569858223,-0.4061708491440351,-0.38348308324213853
0.14392766987270916,-4.499484080912807,-0.4100056799764565,-0.1374860275653896
0.09893282906358108,-4.6185452243701866,-0.4113805402521104,0.10933313581682841
0.05274737681987922,-4.7352340192833555,-0.4102872088939421,0.35453376793736346
0.005395036627045664,-4.848176650964319,-0.40674187121456845,0.5948264429212227
-0.043086729882597534,-4.955262342105359,-0.40079360678535625,0.825869021208465
-0.09263935330365114,-5.053509060753237,-0.3925349165732716,1.0421039716561837
-0.1431744439111835,-5.139015467293982,-0.3821138768567098,1.2367264464876224
-0.19456459858412334,-5.207088395256088,-0.36974661239183354,1.4019118271667101
-0.24663548253668421,-5.252641270891018,-0.35572749412016647,1.5294385435362057
-0.2991618952455944,-5.270907896387901,-0.3404331086848044,1.6117663588415416
-0.3518709742094734,-5.258383074717809,-0.324315445096389,1.643436857073497
-0.4044548049566515,-5.213721911245568,-0.307881076525654,1.6224030246370404
-0.45659202406910715,-5.138227241548729,-0.29165704627928357,1.5507473048276574
-0.5079742964845945,-5.0356656529412325,-0.276149573231007,1.4344085183473219
-0.5583309530140068,-4.91146165993033,-0.26180548804753373,1.2819863329411132
-0.6074455696133101,-4.771612971149254,-0.2489856247181226,1.1031202389217034
-0.6551616993248026,-4.621733168345107,-0.23795442232890557,0.9070377595706649
-0.7013790310082537,-4.4664623022929515,-0.22888404473319893,0.70163116899046
-0.7460436540311832,-4.309263767144488,-0.22186773304329432,0.4931002431938869
-0.7891362917026281,-4.152492105974992,-0.21693673061135546,0.2860007850450095
-0.830661212762378,-3.9975932098719955,-0.21407672276090536,0.08349999544336709
-0.870637144861098,-3.8453353952840006,-0.2132417228064717,-0.11231016532536453
-0.909090498813938,-3.69601717315836,-0.21436482445972532,-0.3001233835193762
-0.9460506705455216,-3.5496321103466117,-0.2173660582949191,-0.4791847973816964
-0.9815469916489877,-3.4059900390372677,-0.22215790626873605,-0.6491158286946369
-1.0156068920393604,-3.264801599177198,-0.22864906455568243,-0.8097896614967902
-1.0482549080311323,-3.125734800165263,-0.23674696117065033,-0.9612458506066388
-1.079512256032785,-2.988451393831066,-0.2463594196767167,-1.103633362502019
-1.1093967699710956,-2.8526291869997737,-0.2573957533017369,-1.2371734621663042
-1.1379230618410934,-2.7179747915386736,-0.26976748792339994,-1.3621360528366226
-1.1651028097564802,-2.5842299830399273,-0.28338884845176615,-1.4788249157072186
-1.1909451095868795,-2.45117385066991,-0.2981770976088383,-1.5875686999676468
-1.2154568480935786,-2.31862221948819,-0.31405278460851477,-1.6887155302131045
-1.2386430702884605,-2.18642534373451,-0.3309399399106458,-1.782629812938003
-1.2605073237258055,-2.0544645431935735,-0.3487662380400258,-1.8696903168448984
-1.2810519691577413,-1.9226482364656174,-0.3674631412084748,-1.9502889374093177
-1.3002784515223975,-1.790907679745849,-0.38696603058256795,-2.024829782190816
-1.318187528319856,-1.659192623164004,-0.40721432840447613,-2.093728363610901
-1.3347794545514962,-1.5274670323691188,-0.42815161204058516,-2.1574107837860987
-1.3500541248751874,-1.3957049799712167,-0.4497257198784462,-2.2163128575370012
-1.3640111746748995,-1.263886782646229,-0.4718888484538162,-2.2708791557330916
-1.376650042501362,-1.1319954407910113,-0.4945976400111471,-2.3215619689290534
-1.387969996909272,-1.0000134260025888,-0.5178132597004377,-2.3688201955473116
-1.397970131169298,-0.8679198560151902,-0.5415014616559108,-2.4131181526191647
-1.40664932972945,-0.7356880966117602,-0.5656326431821025,-2.4549242919278007
-1.4140062106955675,-0.6032838356529138,-0.5901818861013804,-2.4947097808426486
-1.4200390490520967,-0.4706636865010543,-0.615128983909807,-2.5329468748105652
-1.4247456859171073,-0.33777439801101145,-0.6404584526579127,-2.570106966133869
-1.4281234298972174,-0.2045527776122346,-0.6661595223192514,-2.6066581392641583
-1.4301689576733398,-0.07092647492163728,-0.692226103711893,-2.6430619935827404
-1.4308782224225562,0.0631841718360665,-0.7186567236477204,-2.6797694071942244
-1.4302463807041956,0.19786295326840325,-0.7454544177196626,-2.717214806241817
-1.4282677511715116,0.33319290800048773,-0.7726265657820808,-2.7558083712347767
-1.4249358220915067,0.4692492756514556,-0.8001846494944286,-2.795925455380917
-1.420243329334992,0.6060896981499955,-0.8281439040482378,-2.8378923170170145
-1.4141824323534922,0.7437409692505427,-0.8565228272184079,-2.881967098727107
-1.4067450226609868,0.8821815507175874,-0.885342498205679,-2.928314862014706
-1.3979232071538108,1.0213190822058666,-0.914625646825826,-2.9769754879031343
-1.3877100163317522,1.1609623062856593,-0.9443954017048574,-3.0278235158075595
-1.3761003932688955,1.3007873582959584,-0.974673636862933,-3.0805197250106935
-1.363092519685936,1.440299435896053,-1.0054788341130398,-3.1344557542334845
-1.3486895253269755,1.5787926966464347,-1.0368233916553746,-3.188695636988324
-1.3329015983605113,1.715314000669006,-1.0687103480252578,-3.2419220492488736
-1.3157484583538213,1.8486397203356553,-1.1011295685177465,-3.292400197527465
-1.2972620611504646,1.9772785868987959,-1.134053570493021,-3.3379776631281324
-1.2774892752814766,2.099515788179373,-1.1674333471243024,-3.3761418606651548
-1.2564941173996829,2.213511604685608,-1.2011947657309539,-3.404154312863668
-1.2343590013528267,2.317458885405995,-1.2352363088595906,-3.4192685900262068
-1.2111844124987667,2.4097866213164174,-1.2694289947598527,-3.4190150211953143
-1.1870865462856026,2.4893754823582057,-1.3036191449718058,-3.401505238847905
-1.1621927914620205,2.5557349196083,-1.3376341973602848,-3.365686470850386
-1.1366354422659375,2.6090917699840555,-1.3712910620687886,-3.3114753371943997
-1.110544524566097,2.6503623567618626,-1.4044058154407326,-3.2397310763511635
-1.0840409009984784,2.6810161100242964,-1.4368031262042442,-3.152078015570029
-1.0572307398982355,2.702871198182975,-1.4683239063599445,-3.050632365540545
-1.0302020279164057,2.717876206938788,-1.49883023001535,-2.937707623800248
-1.0030232658470177,2.7279236038999226,-1.5282073062533525,-2.8155618063323518
-0.9757440298080186,2.7347196728522363,-1.556362924316676,-2.6862208915835155
-0.9483968330794962,2.7397141850552345,-1.5832251332325114,-2.551383398752624
-0.9209996912289439,2.744079101569739,-1.6087389672200376,-2.4123917546762184
-0.8935589002132465,2.7487203961107824,-1.6328628847667999,-2.270248891925099
-0.8660716962521386,2.7543080433540026,-1.655565373686051,-2.1256597822806396
-0.8385286158185986,2.7613129596034596,-1.6768219715088573,-1.979082702801986
-0.810915486222564,2.7700437981348185,-1.696612798536877,-1.8307806381101326
-0.7832150482412159,2.7806798296334403,-1.7149206049179784,-1.6808677493822954
-0.7554082499448815,2.7932983967236464,-1.7317292824118014,-1.5293489029221639
-0.7274752659776451,2.8078967654044384,-1.747022771441023,-1.3761520494515713
-0.6993962983236007,2.82440887425294,-1.7607842919355385,-1.2211541487879236
-0.6711522095810714,2.8427177526691683,-1.7729958334234177,-1.0642016828462253
-0.6427250320543797,2.8626644241561516,-1.78363785025188,-0.9051268410474422
-0.6140983878128182,2.8840540465448004,-1.7926891186623544,-0.7437603550309696
-0.5852578473473702,2.9066599361070127,-1.800126722212664,-0.5799417959467799
-0.5561912479863,2.930226012412303,-1.8059261401721318,-0.41352797570545397
-0.526888987862177,2.9544681020625445,-1.8100614199291865,-0.24439993556492695
-0.4973443068415515,2.9790744578918456,-1.8125054192848358,-0.07246886929260682
-0.46755356226263306,3.0037057861895895,-1.8132301079777617,0.1023187852384263
-0.43751650440073714,3.0279950258439006,-1.8122069201253774,0.2799769448913802
-0.40723655414229815,3.0515470869394767,-1.8094071506764637,0.4604761044857712
-0.3767210832729034,3.073938729063915,-1.804802389631606,0.6437401785683756
-0.34598169598226425,3.094718738369748,-1.7983649878459222,0.8296440035557636
-0.31503450859856674,3.113408544629496,-1.7900685478103646,1.0180115787011856
-0.28390042315227176,3.1295034028021456,-1.7798884320233528,1.2086151509047325
-0.2526053891242503,3.1424742460670783,-1.7678022805143054,1.4011752653511365
-0.2211806466635795,3.151770297309704,-1.7537905278607941,1.595361911470524
-0.18966294369048248,3.156822502467978,-1.737836908746089,1.7907968917719315
-0.1580947186658027,3.1570478211597623,-1.7199289398283697,1.9870575297093445
-0.12652424045420507,3.1518543771956065,-1.7000583645312763,2.1836818120748127
-0.09500569668224901,3.1406474339425015,-1.6782215464105281,2.380175031918788
-0.063599222342824,3.122836117471327,-1.6544197960913403,2.576017960488259
-0.032370861168110734,3.0978407648579034,-1.6286596164864577,2.7706765323945124
-0.0013924535195317007,3.0651007272127266,-1.6009528511625126,2.963612978892171
0.029258553752595565,3.0240824087106244,-1.571316721373591,3.154298291978995
0.059499377839701814,2.9742872762046146,-1.539773738453801,3.3422258497168778
0.08924225060174797,2.915259531422597,-1.5063514799566322,3.526925983915071
0.11839484591597393,2.8465931020240838,-1.4710822201174816,3.707981228734148
0.14686077693621477,2.7679375818458474,-1.43400240783014,3.88504195684424
0.17454015275467324,2.67900273734586,-1.3951519882616976,4.057842092680319
0.20133018012813184,2.5795611990973146,-1.3545735673348944,4.226214594196823
0.227125792119105,2.4694489760771194,-1.3123114213929261,4.390106419014479
0.2518202818798762,2.348563467354218,-1.2684103572027814,4.54959274071717
0.2753059165534184,2.2168587003205302,-1.2229144297956096,4.704890257479147
0.2974745035566237,2.074337595298605,-1.175865527220818,4.8563695370668905
0.3182178795096097,1.9210411408300374,-1.127301831850149,5.004566465266998
0.3374282909179101,1.7570344599864731,-1.0772561671974792,5.150193000307983
0.35499863551777483,1.582389855589351,-1.0257542371943993,5.294147569146827
0.37082253407366833,1.3971670468292046,-0.9728127615029311,5.437525548709997
0.3847942045419604,1.2013909684292312,-0.9184375060158311,5.581630317566485
0.39680811422625273,0.9950277343998603,-0.8626212028401662,5.7279852765321655
0.40675839157025134,0.7779597476914154,-0.8053413500748445,5.878346909412656
0.4145379890471655,0.5499616077858737,-0.746557880980718,6.034718191719525
0.42003760512502425,0.31067969186090616,-0.6862106990635227,6.199360104798519
0.4231444020436333,0.05962053138144441,-0.6242170980155375,6.3747960428682235
0.42374060735744773,-0.20384279207235467,-0.5604691375868552,6.563798376527188
0.42170217943672417,-0.48042960184043376,-0.4948311538215834,6.769336358773611
0.41689788341831985,-0.7708461692450813,-0.42713779023384724,6.994446534787376
0.40918942172586903,-1.0755634906162719,-0.35719332488597344,7.241955525737856
0.3984337868197063,-1.3943892199022931,-0.2847737696285949,7.51393362520282
0.3844898946206834,-1.7256916519557162,-0.2096344333765667,7.8106821741444605
0.3672329781011262,-2.065078042082581,-0.1315276116351221,8.128975418095221
0.3465821976803004,-2.403339496376158,-0.05023785745416989,8.459280042546164
0.32254880271653885,-2.7237528525402395,0.03435494297129174,8.782040483363083
0.29531127419113645,-2.999776537059369,0.12217534780492258,9.06440036720496
0.2653135088205428,-3.196045319791813,0.21281935147697217,9.261293581521405
0.23335305562262465,-3.2769021866213244,0.30543228729218624,9.326699514100644
0.2005840337564114,-3.2227549656642633,0.3986992824331927,9.23549052257795
0.16835648409976878,-3.043527934506687,0.4910541876589722,9.001281537742384
0.1379212047547019,-2.7747673192177835,0.581067003036396,8.670805382915397
0.11017353156252407,-2.4589794797785283,0.66777505686555,8.298713098386921
0.0855837367647388,-2.1296736324123255,0.7507621878494193,7.9266070902086465
0.06428700044061554,-1.8069455045933283,0.8300282587515058,7.5778340725498365
0.04621754539468226,-1.5003689074093884,0.9058065994770041,7.261884275766187
0.031213856320588373,-1.2132372205954676,0.978425442234666,6.980287123703586
0.019081484114633698,-0.9456805865173445,1.0482283134717019,6.730795910992834
0.009624678249460252,-0.6964716206455057,1.1155362725816302,6.509732261994297
