th1 (rad),w1 (rad/s),th2 (rad),w2 (rad/s)
4.781346401192434,2.2539990375396424,5.689209218670332,-2.6959664515483945
4.80388639156783,2.404322932955533,5.662249554154847,-2.7736779036889785
4.827929620897385,2.5599320631418507,5.634512775117957,-2.862127298385063
4.853528941528804,2.721386387707414,5.6058915021341065,-2.9619537630557433
4.880742805405879,2.889155217058312,5.576271964503549,-3.073632221964681
4.909634357576461,3.063522262871956,5.545535642283903,-3.1973346496273227
4.940269580205181,3.2444398149373312,5.513562295787629,-3.332718315353183
4.9727139783545535,3.4313141394010187,5.480235112634097,-3.478615635420696
5.007027119748564,3.6227073115321766,5.44544895627989,-3.6326047370377084
5.043254192863886,3.8159579075462062,5.409122908909513,-3.7904643207458038
5.0814137719393475,4.0067682459275,5.371218265702055,-3.945580665436496
5.121481454398623,4.188893509332079,5.33176245904769,-4.088498974973236
5.163370389491944,4.354191196731171,5.290877469297958,-4.206986110562664
5.206912301459256,4.4933750638082905,5.248807608192331,-4.287094248856475
5.2518460520973385,4.597695553905858,5.205936665703766,-4.315544203735505
5.2978230076363975,4.661275522754591,5.1627812236664115,-4.283051442451089
5.344435762863943,4.683132752593531,5.119950709241901,-4.187230496751007
5.391267090389879,4.667694169379615,5.0780784042743905,-4.03338547001639
5.437944032083675,4.623392148725798,5.037744549574227,-3.8325929602390283
5.484177953570933,4.560173039959728,4.999418619971837,-3.5982301946484454
5.52977968397053,4.487241149978625,4.9634363180253525,-3.34280569191779
5.5746520954703165,4.411813534783366,4.930008261106175,-3.076190610841209
5.61877023081815,4.338859291949623,4.8992463549977625,-2.805226227768058
5.662158823737646,4.271409147938173,4.871194092720082,-2.534135170243782
5.704872915217027,4.211048910188391,4.845852741017644,-2.265198096182728
5.746983404318911,4.158381411823476,4.823200760055817,-1.9993939896848372
5.788567218437146,4.113381654756368,4.803206820158969,-1.736897122488838
5.82970103498471,4.07564240049846,4.78583784893408,-1.4774251037658477
5.870457458989695,4.044532893688646,4.771063597896422,-1.220468283753319
5.910902787926582,4.019296345514196,4.758858915058889,-0.9654352045102578
5.9510957513817235,3.999107035282062,4.7492045630137865,-0.7117423638649762
5.9910868217345445,3.98310195965034,4.742087139375137,-0.4588684197009484
6.030917841331048,3.970397053741523,4.737498455178128,-0.2063861810358259
6.070621811868463,3.9600944916571774,4.73543459336777,0.04601915471305629
6.110222756785035,3.9512852206994173,4.7358947849149,0.2985403438875082
6.149735608992029,3.9430493643717455,4.738880188353775,0.5512439681806149
6.189166102635746,3.934456164080912,4.744392628035581,0.8040701253261592
6.2285106642765555,3.924564516093234,4.752433329288843,1.0568350541154001
6.2677563094374875,3.9124247629460114,4.763001679829997,1.3092363011461323
6.306880557066948,3.8970821297888985,4.776094042841458,1.5608603117076036
6.345851378364837,3.8775820014900475,4.791702645958534,1.8111924587449617
6.384627198379738,3.8529770828974566,4.809814570545983,2.0596295590575275
6.423156969208712,3.822336353628012,4.830410866136559,2.305494895905401
6.461380332744993,3.7847556105734825,4.853465815095612,2.548055693861794
6.4992278888507276,3.739369282296033,4.87894637203423,2.786542891579143
6.536621581673688,3.685363099711387,4.906811800950021,3.0201729445891656
6.573475212670802,3.6219871192599404,4.937013530395913,3.2481712748554887
6.609695083863402,3.548568521723737,4.969495243144468,3.4697968766617966
6.645180769080639,3.4645235560983703,5.004193211911086,3.6843674984903703
6.6798260046416225,3.369367967701393,5.04103688689599,3.8912847557095067
6.713519684318636,3.26272524693907,5.079949734453085,4.090058496049485
6.746146936788027,3.1443320631369507,5.12085031941358,4.28032974493742
6.777590257419397,3.014040308668797,5.1636536168629545,4.461891605578731
6.807730660506085,2.8718152725751684,5.208272532918742,4.634707582467134
6.836448813231836,2.717729587689394,5.254619608743413,4.798926937794888
6.86362610910873,2.5519527455768647,5.302608878121362,4.954896875935533
6.889145636564499,2.3747361405640603,5.352157846880717,5.1031715757123335
6.91289299797014,2.186393776120207,5.40318956263784,5.244518342802844
6.934756935731341,1.9872789307870846,5.4556347460658685,5.3799214195511915
6.954629725039212,1.7777572249720799,5.50943396026138,5.510584245511122
6.9724072972889335,1.5581766479429928,5.564539802716491,5.637931181934944
6.987989063768364,1.3288352014955689,5.620919114535841,5.763609861060572
7.00127741578332,1.0899469185262527,5.6785552131464465,5.889495344552498
7.012176884968582,0.8416071808428223,5.737450166591971,6.017697091694847
7.02059295677701,0.5837586084759863,5.79762713750892,6.150569201304507
7.02643054286177,0.316159540149576,5.859132829521966,6.29072323379955
7.029592138263266,0.038358666931121,5.922040061859961,6.441040639195185
7.029975724932577,-0.25031756631437047,5.986450468251912,6.604677472581903
7.027472549269434,-0.5507523277300292,6.052497242977731,6.785045931027283
7.021965025992134,-0.8639771488911063,6.1203477022880035,6.985742153417377
7.013325254503222,-1.1910188276002676,6.190205123822177,7.210362274318545
7.001415066227219,-1.532576565383361,6.262308746565362,7.462100459238989
6.9860893005733855,-1.8883949982260622,6.3369297511577525,7.742943355327237
6.967205350591125,-2.2561204822343184,6.414359184711025,8.052163463918449
6.944644145768781,-2.629363347092639,6.49488081935021,8.383716003179993
6.918350512297855,-2.9947882300749735,6.57871797938201,8.722264671273049
6.888402629997105,-3.3287223868044777,6.6659406260947405,9.038459681053864
6.855115406129061,-3.5956299603986435,6.7563252229052795,9.286635930737393
6.819159106525074,-3.7534901910876,6.8491915822126535,9.411820864638576
6.781624204614198,-3.7702096744217233,6.943309790859039,9.371748250059664
6.743922107869981,-3.6438963038085683,7.0370272733596355,9.164104492843723
6.707483144831896,-3.407212478132887,7.128668318288073,8.832075739593662
6.673411020050567,-3.108649107272512,7.216989075684009,8.438809823927127
6.642324528977842,-2.78994065776706,7.301377173923281,8.03727701787146
6.6144251224001716,-2.476982245405785,7.381749944101995,7.658781601639784
6.589655299946114,-2.1821397957771698,7.4583377601183924,7.316695331442315
6.567833901988342,-1.9095577059852893,7.531504713432816,7.013868628595489
6.548738324928489,-1.6592760371598745,7.601643399718771,6.748184593562808
6.53214556455689,-1.4296107690157394,7.669125245654399,6.5156709950739335
6.517849456866733,-1.2183439889546297,7.734281955605138,6.311992748477546
6.5056660169771865,-1.023260711823422,7.797401883089914,6.1330799490410595
6.495433409858952,-0.8423620990608458,7.8587326825803245,5.975342215043568
6.487009788868344,-0.6739285405158363,7.918486104730761,5.835700573538522
6.480270503463185,-0.5165175972386092,7.976843110466146,5.711546975853904
6.475105327490799,-0.36893673992133535,8.033958580224684,5.600681194303958
6.471415960091585,-0.2302089241521831,8.089965392167723,5.501246264662931
6.469113870850063,-0.09953868344107994,8.144977854814353,5.411670534465503
6.468118484015653,0.023718370254833157,8.199094560159008,5.330618581657799
6.4683556677182015,0.1400818915913125,8.252400745975585,5.256950853383198
6.469756486634115,0.24996914399030057,8.304970254509417,5.1896909905057775
6.4722561780740175,0.35371381437264204,8.356867164414474,5.127999588404808
6.475793316217744,0.4515818436289152,8.408147160298522,5.071153202421645
6.480309134654033,0.5437847772499615,8.458858692322739,5.018527558675062
6.485746982426533,0.6304910648547739,8.50904396790949,4.969584100701176
6.492051893075081,0.7118356558191501,8.558739808916501,4.923859159062283
6.499170249633272,0.7879281637629285,8.607978400507124,4.880955165167801
6.507049531270901,0.8588598097929675,8.656787952158801,4.8405334414257535
6.515638129368831,0.9247093038278014,8.705193286573058,4.8023081902195655
6.524885222407109,0.9855477841603305,8.753216368475254,4.76604137767988
6.534740700248713,1.041442906181739,8.800876782252052,4.73153826821953
6.54515512931053,1.0924621502985812,8.848192164934247,4.6986434151960665
6.556079750813516,1.138675404986053,8.895178599086208,4.667236954109536
6.5674665048633765,1.1801568722170568,8.941850968627303,4.637231079112815
6.579268073585547,1.2169863379168693,8.988223279418431,4.608566612522089
6.591437936964716,1.249249848498563,9.034308945543652,4.581209601332714
6.603930435449701,1.2770398349776044,9.080121041556978,4.555147895102399
6.616700833799477,1.3004547278596361,9.125672520508003,4.53038767645659
6.6297053810780735,1.3195981083408295,9.170976397272568,4.506949929346404
6.642901362161481,1.3345774439457212,9.216045896566031,4.4848668415094055
6.656247136600939,1.3455024593408467,9.260894564981125,4.464178146871873
6.669702161194348,1.3524831956850127,9.305536346449845,4.444927421502225
6.683226993151198,1.355627814668701,9.349985620664867,4.427158353890784
6.696783271297885,1.3550402066664766,9.394257204203775,4.410911017588558
6.71033367336455,1.3508174665951749,9.43836631437966,4.396218182435569
6.723841848030502,1.343047306600632,9.482328496204016,4.383101710588707
6.737272321096508,1.3318054820144694,9.526159513309903,4.371569096067462
6.750590375916653,1.3171533164171778,9.569875204270577,4.361610222109143
6.763761909080825,1.2991354231330483,9.61349130649167,4.3531944294356535
6.776753263312156,1.2777777336668124,9.657023250786025,4.346268010205882
6.789531040648824,1.2530859574924071,9.700485930888084,4.340752265830836
6.802061900223748,1.2250446105098207,9.743893453546391,4.336542289871982
6.814312346328847,1.1936167588428857,9.787258876445112,4.333506656716129
6.8262485139172755,1.15874462704757,9.830593943012273,4.331488208242628
6.837835960187752,1.120351211113209,9.873908825094698,4.330306128872683
6.849039472298884,1.078343012412237,9.917211886383425,4.329759478247207
6.859822902423006,1.03261396486946,9.960509481165897,4.329632304605132
6.8701490420717,0.9830505612720479,10.003805804211948,4.3297003864995345
6.879979547684421,0.9295380955272609,10.047102808076943,4.329739544599841
6.8892749286396935,0.8719678292347882,10.090400203522941,4.329535332456394
6.897994606932041,0.8102447712828882,10.133695556847506,4.328893764687641
6.90609705464487,0.7442956412995512,10.176984494494382,4.327652588930806
6.913540011057865,0.6740764886788442,10.22026102038369,4.3256924753491965
6.920280775944653,0.5995793772917037,10.263517945137181,4.3229474085330954
6.9262765697175706,0.5208375388977425,10.306747419222512,4.319413543738968
6.931484945106548,0.43792845691620086,10.349941554659901,4.315155848328916
6.93586422967571,0.3509744683038793,10.393093113143191,4.310311994210355
6.939373974358749,0.26014065490713906,10.436196233085294,4.305093187783291
6.94197538090782,0.16563001564146,10.479247164963127,4.2997818958508285
6.943631681064235,0.06767613800424027,10.522244983921635,4.294726714068228
6.944308442444277,-0.033466210059419216,10.565192251062317,4.290334889805831
6.943973780343683,-0.13753199714401798,10.608095599960375,4.2870632187074715
6.942598460372243,-0.24425770532884805,10.65096623214745,4.28540815952261
6.940155883318955,-0.353393318347666,10.693820313742677,4.285896045824865
6.936621950135478,-0.46471394474327926,10.736679274200926,4.2890742224614185
6.931974810688046,-0.5780306287256026,10.77957001642554,4.295503818205492
6.92619450440079,-0.6932000654249002,10.822525054607594,4.305754710937595
6.919262503746541,-0.8101331139930478,10.86558260171697,4.320403076494968
6.911161172606611,-0.9288021726154374,10.908786632481918,4.3400317628655465
6.901873150880457,-1.0492476309020053,10.952186950110574,4.365233617349423
6.891380674571437,-1.1715837411160566,10.995839286284069,4.396617828192237
6.879664837160276,-1.296004350477701,11.03980546456599,4.434819330004725
6.866704793655499,-1.4227890176547642,11.084153657866038,4.48051136521031
6.852476903478951,-1.5523101062593652,11.12895877151814,4.534421390329462
6.836953802416358,-1.685041517148565,11.174302985421436,4.597350663896535
6.820103387244872,-1.8215698001048937,11.220276492060401,4.6701980504390015
6.801887689243824,-1.9626084828203085,11.26697847256479,4.753988820768697
6.782261604415621,-2.1090165752698082,11.314518360772478,4.849909519268442
6.761171438662923,-2.261822344882212,11.363017455965162,4.959350291538273
6.738553215214101,-2.4222535855108793,11.412610958880544,5.083956384286963
6.7143306793589925,-2.591775648718321,11.463450522723413,5.225690750195635
6.68841292287181,-2.772138299666975,11.515707430225369,5.386909592109035
6.66069153987514,-2.9654316244182217,11.56957652614646,5.570451761982539
6.631037223630958,-3.174148929069117,11.625281043766284,5.779740083774528
6.599295734340267,-3.4012490638658437,11.68307844460403,6.018885485134323
6.565283243701609,-3.6501980881251526,11.743267299455374,6.292768095086838
6.528781262820358,-3.9249426295354186,11.806194980406243,6.607032078852049
6.489531836525003,-4.2297080185356455,11.872265301194764,6.967849740705364
6.447234756339647,-4.568390547564008,11.941943798601818,7.381139473796178
6.401550850864007,-4.943069080734324,12.01575519333978,7.85058251003974
6.352120160056664,-5.350738955551305,12.094261018440177,8.373191606855901
6.298612770501151,-5.776887176061267,12.177992934508737,8.930496308375417
6.240843898740539,-6.18498260121775,12.26729789759249,9.474008049362947
6.178994072728361,-6.505791628938153,12.36203797808612,9.910311472818577
6.11393615643898,-6.644101829473582,12.461141092814305,10.110128656773185
6.047495138144244,-6.528257161061126,12.562242379382036,9.976573192708956
5.982212566533633,-6.177723299037545,12.662008111309126,9.53799215047645
5.920435333543257,-5.6955344218078094,12.75738803281389,8.936448395696663
5.863479989325179,-5.18599863317265,12.846752516770858,8.313861238761802
5.811620002993452,-4.706556353154994,12.929891129158475,7.746794083211846
5.764554439461902,-4.2757733479871485,13.007359069990594,7.258621660190201
5.7217967059820305,-3.8935579096517188,13.079945286592496,6.847737976926089
5.682861126885514,-3.5535053371423615,13.148422666361757,6.5044648178765
5.6473260735140896,-3.2481288169244267,13.213467314540521,6.218068467930491
5.614844785344845,-2.9706344221512895,13.275647999219826,5.979048342600761
5.585138441123332,-2.7153407130526244,13.335438482645834,5.779606070525136
5.557985033992806,-2.4776366628536453,13.393234543351086,5.613514216328294
5.53320866736427,-2.253815207865061,13.44936968551437,5.475836239398854
5.510670515285619,-2.0408988000273363,13.504128047908358,5.362648722349947
5.4902615272853454,-1.836491263734837,13.557754535131858,5.270807234524166
5.4718966146479975,-1.638661501911096,13.6104626074771,5.197759902075384
5.4555099996288865,-1.445855577813131,13.662440206497854,5.141401825009938
5.441051443850755,-1.2568316929151706,13.713854224747953,5.099961697664384
5.428483126921604,-1.0706128546785803,13.764853841724596,5.071913057248295
5.417776998374818,-0.8864528689861759,13.81557297229708,5.055904284377158
5.408912469684957,-0.7038121215711574,13.86613201514085,5.050703088643507
5.401874348469245,-0.5223402709157018,13.916639046027285,5.055152544787191
5.396650945760088,-0.34186345169043586,13.967190571475157,5.068136789593831
5.3932323112431835,-0.16237392278234042,14.017871939371096,5.088555278422052
5.39160857201536,0.015979658424114224,14.068757492155317,5.115305063741538
5.391768368599601,0.19290293751071017,14.119910542792732,5.147270913211362
5.393697397974709,0.36796890468552423,14.171383251924846,5.1833232365266815
5.397377087021564,0.5406343381026026,14.223216484290113,5.222323738895803
5.4027834304025895,0.7102603119647091,14.27543972167907,5.263138471063714
5.409886033522237,0.8761369305307047,14.328071106389707,5.304657525245615
5.418647402827544,1.0375118634557676,14.381117681642163,5.345820084006717
5.429022521462102,1.1936216399112785,14.43457588248223,5.3856429465527995
5.440958737861214,1.3437240879601429,14.488432311947758,5.423250141224636
5.454395978740815,1.4871298766446264,14.542664813360004,5.457900901250828
5.469267277507262,1.6232309214193,14.597243822372512,5.489013235190232
5.485499586721455,1.7515235101940538,14.652133954724414,5.516180623372758
5.503014821823396,1.8716244085608007,14.707295760958141,5.539180011431099
5.521731065909004,1.9832788599396778,14.762687561072452,5.5579701738144545
5.541563854508401,2.0863602067833646,14.818267262810597,5.572680546503458
5.562427456576234,2.1808616884077385,14.873994068275632,5.583591612749667
5.584236073460311,2.2668816853721556,14.92982998440313,5.591108713398745
5.606904890314033,2.3446041766582177,14.985741071537117,5.595731636247163
5.630350932080615,2.4142764029658905,15.041698387899588,5.598022477063646
5.654493696110274,2.4761856925221033,15.097678612670224,5.598574087311682
5.679255553035495,2.5306371562938175,15.153664353543341,5.597981010885413
5.704561924598433,2.5779335752138426,15.209644163652195,5.59681426989737
5.7303412603505715,2.618358365493394,15.26561230635117,5.595600791350989
5.756524844005505,2.6521620893259854,15.32156831426468,5.594807754348009
5.783046464898765,2.6795526251616395,15.37751639180816,5.594831732210869
5.809841991150382,2.700688848012454,15.433464709130268,5.595992225437462
5.836848879630506,2.7156774991571093,15.489424631384642,5.598529025002204
5.864005654622077,2.7245728351258616,15.545409921634665,5.602602790722795
5.891251382973336,2.727378619366783,15.601435949541893,5.608298248668016
5.918525169167004,2.7240520358065408,15.657518932028573,5.615629476816211
5.945765689525069,2.7145091425146815,15.713675226796735,5.624546834912652
5.972910780950215,2.6986315303626336,15.769920695145862,5.634945183757537
5.999897096253842,2.676273894767154,15.826270146983438,5.646673117899332
6.026659835201514,2.647272261371636,15.882736878162431,5.6595429961612504
6.05313255781523,2.611452625594209,15.939332308124044,5.673341593269771
6.079247084071172,2.568639771141152,15.996065724056741,5.687841213238917
6.1049334817825835,2.5186660260057434,16.05294413618913,5.702811103890739
6.1301201420426406,2.461379700063155,16.109972247228036,5.718028996709889
6.154733939043272,2.3966529312177847,16.167152537195136,5.733292573243808
6.17870046835545,2.3243886528145485,16.224485462927575,5.74843063536467
6.2019443548835955,2.2445263892687817,16.281969769281222,5.763313738988129
6.224389618776283,2.1570465944215913,16.339602906671104,5.777864045910094
6.245960084720499,2.061973271372344,16.397381547130205,5.79206416172724
6.266579817434223,1.959374654826127,16.455302188747478,5.805964762985922
6.286173563982484,1.8493617962218127,16.51336183637734,5.819690875073993
6.304667181944701,1.7320849643968768,16.57155874512808,5.833446742683387
6.3219880315886705,1.607727854257513,16.629893212554915,5.847519333228569
6.338065310131245,1.4764996750265713,16.6883684058872,5.862280624758087
6.352830306881511,1.338625259379751,16.74699121213478,5.878188946904138
6.366216559475308,1.1943333864870351,16.805773101603823,5.895789759552025
6.378159893340179,1.0438435380821351,16.86473099919934,5.915716363642309
6.388598328721001,0.8873513015266993,16.923888162835766,5.938691138557772
6.397471841736268,0.7250125941579074,16.983275074221343,5.965527990616837
6.404721967677847,0.5569268082802374,17.04293035412751,5.997136780336678
6.410291235760649,0.3831188676444693,17.102901721930877,6.0345305784595356
6.414122424437094,0.20352004801388715,17.16324702771547,6.078836690513641
6.416157624917233,0.017947252747448905,17.224035394620607,6.131312495409505
6.416337097444707,-0.17391974061044985,17.2853485195747,6.193367270474571
6.414597900038602,-0.3725637169089592,17.347282192279447,6.266591318648359
6.410872262869513,-0.5786589274613343,17.40994810546593,6.352793845356287
6.4050856735948996,-0.7931042637132764,17.473476043919494,6.45405107492652
6.3971546309577665,-1.017061257227785,17.538016554668758,6.572765866167826
