th1 (rad),w1 (rad/s),th2 (rad),w2 (rad/s),a1 (rad/s^2),a2 (rad/s^2)
3.946294840954094,2.8868645162994024,6.118349003969152,0.3984108655790168,6.712598715222758,-1.4671372783069365
3.9751634861170877,2.95399050345163,6.1223331126249425,0.38373949279594743,6.754097234757046,-2.065862222889469
4.004703391151604,3.0215314757992005,6.126170507552902,0.36308087056705274,6.799118562899645,-2.6899198434866394
4.034918705909596,3.0895226614281968,6.129801316258573,0.33618167213218636,6.849182411025369,-3.339256511441542
4.065813932523878,3.1580144855384504,6.133163132979894,0.30278910701777095,6.906097861078398,-4.013852707069364
4.0973940773792625,3.2270754641492343,6.136191024050072,0.2626505799470773,6.9719950606618495,-4.713769369827337
4.1296648320207545,3.2967954147558527,6.138817529849543,0.21551288624880394,7.049359776053911,-5.439206711181461
4.162632786168313,3.367289012516392,6.140972658712031,0.16112081913698933,7.141071867093267,-6.190577175891994
4.196305676293477,3.4386997311873246,6.142583866903401,0.0992150473780694,7.250449166902996,-6.96859442585319
4.2306926736053505,3.5112042228563545,6.143576017377182,0.029529103119537492,7.381298770851741,-7.774380486528472
4.265804715833914,3.585017210564872,6.143871308408377,-0.04821470174574723,7.537978377674304,-8.609593573509274
4.301654887939563,3.660396994341615,6.143389161390919,-0.13431063748084,7.725471096468059,-9.476579644036494
4.338258857882979,3.737651705306295,6.1420460550161105,-0.22907643392120494,7.94947805012825,-10.378551432860881
4.375635374936041,3.817146485807578,6.139755290676899,-0.33286194824981374,8.216534176066414,-11.319799659675605
4.413806839794117,3.899311827568242,6.136426671194401,-0.4460599448465698,8.534153838135937,-12.305942230432002
4.452799958069799,3.984653365949601,6.131966071745935,-0.5691193671508898,8.911014165827076,-13.344218517975262
4.492646491729295,4.073763507607872,6.126274878074426,-0.7025615523306424,9.357185279208993,-14.44383696665158
4.533384126805374,4.167335360399962,6.1192492625511195,-0.8469999219971582,9.884417391920095,-15.616384780538928
4.575057480409374,4.266179534319162,6.110779263331148,-1.0031637698025475,10.506494450840254,-16.876307172511897
4.617719275752566,4.371244478827565,6.100747625633122,-1.1719268415276665,11.239660883256176,-18.241458206434835
4.6614317205408415,4.483641087660127,6.089028357217845,-1.3543414235920148,12.103118934805668,-19.733710897447907
4.706268131417443,4.604672277008183,6.075484942981925,-1.551678532566494,13.119572432864187,-21.37958144297289
4.752314854187524,4.735868001336825,6.05996815765626,-1.7654743469962229,14.315745413521622,-23.210752321120733
4.799673534200893,4.879025455472041,6.042313414186298,-1.9975818702074302,15.722704489663851,-25.264233879633593
4.8484637887556135,5.036252500368679,6.022337595484223,-2.250224209003766,17.375609392163888,-27.58160923274625
4.8988263137593,5.210008594290318,5.999835353394185,-2.5260403013312285,19.312102439977775,-30.206215516194643
4.950926399702203,5.4031296186900954,5.974574950380873,-2.828102456493175,21.567722306691472,-33.17594104231634
5.004957695889104,5.61880684175701,5.946293925815941,-3.1598618669163385,24.165114782655074,-36.507036254493066
5.061145764306674,5.860457989583561,5.914695307146777,-3.5249322294612693,27.09078730154093,-40.160073356024775
5.119750344202509,6.131365862598971,5.879445984852165,-3.926532963021517,30.247954784661076,-43.971897735305234
5.181064002828498,6.433845410445581,5.84018065522195,-4.366251940374569,33.36691619563098,-47.52752423190158
5.245402456932954,6.7675145724018915,5.796518135818204,-4.841527182693585,35.85169216313357,-49.942462773607915
5.313077602656973,7.126031494033227,5.748102863991268,-5.340951810429664,36.57099421804846,-49.56813291779465
5.384337917597305,7.491741436213712,5.6946933458869715,-5.836633139607611,33.73797019405383,-43.82686571372061
5.459255331959442,7.82912113815425,5.636327014490895,-6.274901796744817,25.34640471061485,-29.840798201106473
5.5375465433409845,8.082585185260399,5.573577996523447,-6.573309778755881,10.81086813459166,-6.772159272870843
5.618372395193589,8.190693866606315,5.507844898735888,-6.64103137148459,-6.862255272047219,21.079904116011637
5.700279333859652,8.122071313885844,5.441434585021042,-6.430232330324474,-21.75757997682032,45.22713934839333
5.78150004699851,7.904495514117641,5.377132261717797,-5.977960936840541,-29.724199198265342,59.622713191108645
5.860545002139687,7.607253522134988,5.317352652349392,-5.381733804929454,-31.12282176344436,64.61532997339269
5.936617537361037,7.296025304500544,5.263535314300097,-4.735580505195528,-28.659917200679228,63.94292830106923
6.009577790406042,7.0094261324937515,5.216179509248142,-4.096151222184836,-24.698600845791805,60.925141666939254
6.07967205173098,6.762440124035834,5.1752179970262935,-3.486899805515443,-20.54263589261242,57.414943765275865
6.1472964529713385,6.557013765109709,5.140348998971139,-2.9127503678626843,-16.74197448157417,54.20289458910065
6.212866590622435,6.389594020293968,5.111221495292512,-2.3707214219716777,-13.46843987730017,51.53598491952404
6.276762530825375,6.254909621520967,5.087514281072796,-1.8553615727764372,-10.736709637963774,49.42688914707411
6.339311627040585,6.147542525141329,5.068960665345031,-1.361092681305696,-8.50775761751669,47.8007699858213
6.4007870522919985,6.062464948966162,5.055349738531974,-0.883084981447483,-6.731702924187813,46.55765122736739
6.46141170178166,5.995147919724284,5.046518888717499,-0.4175084691738092,-5.363448052435725,45.59670168387809
6.521363180978903,5.941513439199927,5.042343804025761,0.0384585476649717,-4.366919066480861,44.824592048849986
6.580778315370902,5.897844248535118,5.042728389502411,0.48670446815347157,-3.7148051368508828,44.157679591751396
6.6397567578562535,5.860696197166609,5.047595434183946,0.9282812640709855,-3.3866863792914232,43.522125587818586
6.69836371982792,5.826829333373695,5.056878246824656,1.3635025199491715,-3.3667287471373384,42.85358517883715
6.756632013161656,5.793162045902322,5.070513272024148,1.792038371737543,-3.6414197499231467,42.09704839988723
6.814563633620679,5.75674784840309,5.0884336557415235,2.2130088557364154,-4.197539265711524,41.20695700272836
6.87213111210471,5.714772455745974,5.110563744298887,2.625078425763699,-5.020454052838273,40.147531995841995
6.92927883666217,5.664567915217591,5.136814528556524,3.026553745722119,-6.092784700601429,38.89317710265574
6.985924515814346,5.603640068211577,5.167080066013745,3.415485516748676,-7.393474304866826,37.428812532303276
7.041960916496461,5.529705325162909,5.201234921181232,3.789773642071709,-8.897271800572549,35.75001394489941
7.097257969748091,5.440732607157184,5.2391326576019495,4.147273781520703,-10.574625227827,33.86286807285991
7.1516652958196625,5.334986354878914,5.280605395417156,4.485902462249301,-12.39196244021789,31.783498359902385
7.205015159368451,5.211066730476735,5.3254644200396495,4.803737445848325,-14.312321549100549,29.53725290007594
7.257125826673219,5.067943514985729,5.373501794498133,5.0991099748490845,-16.29628244414603,27.157577544555373
7.307805261823076,4.904980690544269,5.424492894246624,5.370685750294638,-18.303143720487814,24.684617661077873
7.356855068728519,4.721949253339391,5.47819975174957,5.617531926905417,-20.29228417412414,22.163604644797584
7.404074561261913,4.5190264115981496,5.534375071018625,5.839167973353392,-22.224642075191245,19.64309206822529
7.449264825377894,4.296779990846237,5.592766750752158,6.035598894035645,-24.064237199323724,17.173115488512483
7.4922326252863565,4.056137618853,5.653122739692515,6.2073300489207694,-25.779650974445396,14.803361398613202
7.532794001474887,3.7983411091085455,5.715196040181723,6.3553636629069015,-27.345372542833342,12.581443285105488
7.570777412565972,3.524887383680212,5.778749676810792,6.481178095757956,-28.742918025192335,10.551391960237686
7.606026286402774,3.2374582034282886,5.843561457768371,6.586692015360333,-29.961641353051693,8.75246780940947
7.638400868437057,2.937841789897772,5.909428377921975,6.674216693454428,-30.999179760965003,7.2183901068319605
7.667779286336035,2.6278499922881218,5.976170544856519,6.746400594522747,-31.861513651983547,5.97705210203709
7.694057786258917,2.3092348557682865,6.043634550801746,6.806171115543118,-32.562663531597686,5.050753116767117
7.7171501348166,1.9836082204523096,6.111696261957178,6.856678646710789,-33.12408803035173,4.4569363970398825
7.736986217021123,1.6523673401487922,6.180263048424286,6.901248010681188,-33.57387819088838,4.209380688765849
7.7535098904226105,1.3166285582399084,6.249275528531098,6.943341817568847,-33.945856856728184,4.319759019502402
7.76667617600501,0.9771699896726266,6.318708946706787,6.98653940776387,-34.27868243746647,4.799449317940151
7.776447875901736,0.6343831652979619,6.388574340784426,7.034533900943272,-34.61501774828057,5.661449201745646
7.782791707554716,0.28823298781515616,6.458919679793858,7.091148392960728,-35.000746753574695,6.9221895057784515
7.785674037432868,-0.0617744797205908,6.529831163723466,7.1603702880185125,-35.48408173294312,8.602914461690265
7.7850562926356615,-0.416615297050022,6.60143486660365,7.246399432635415,-36.11414966745847,10.730018423909257
7.7808901396651615,-0.7777567937246067,6.673898860930005,7.353699616874508,-36.93817422300494,13.33314325047133
7.773112571727915,-1.1471385359546562,6.74743585709875,7.487031049379221,-37.9954736635273,16.438652958822985
7.761641186368369,-1.527093272589929,6.822306167592542,7.65141757896745,-39.304805387756375,20.053786062177533
7.7463702536424695,-1.920141326467493,6.898820343382217,7.851955439589226,-40.83853010126504,24.132514465415213
7.727168840377795,-2.3285266274801435,6.9773398977781085,8.093280584243377,-42.47210764222248,28.507099822986575
7.703883574102993,-2.7532477039023684,7.058272703620542,8.378351582473243,-43.89160218608023,32.76082159214155
7.67635109706397,-3.1921637257631708,7.142056219445275,8.705959798394659,-44.44357707000525,36.0188014653799
7.644429459806338,-3.6365994964632233,7.229115817429221,9.066147813048458,-42.95243818590179,36.68875995348283
7.608063464841705,-4.066123878322241,7.319777295559706,9.433035412583287,-37.682894725387435,32.39380497444036
7.567402226058483,-4.442952825576115,7.414107649685539,9.756973462327691,-26.9249112904491,20.756252057604073
7.522972697802722,-4.712201938480606,7.511677384308816,9.964535982903731,-10.676098367783288,1.6947821871376227
7.475850678417916,-4.818962922158439,7.611322744137853,9.981483804775108,7.634556258086573,-20.213863654364463
7.427661049196332,-4.742617359577574,7.7111375821856045,9.779345168231464,22.49625006229943,-37.58960736895886
7.380234875600556,-4.51765485895458,7.808931033867919,9.403449094541875,30.641170633941517,-46.14226901532989
7.33505832701101,-4.211243152615165,7.902965524813339,8.942026404388576,32.79406935935856,-46.97345312700521
7.292945895484858,-3.883302459021579,7.9923857888572245,8.472291873118523,31.440699726412216,-43.47316678888132
7.254112870894643,-3.5688954617574566,8.07710870758841,8.03756020522971,28.64087432210955,-38.37225566548505
7.218423916277068,-3.282486718536361,8.157484309640708,7.653837648574859,25.532180134066095,-33.12527382307533
7.185599049091705,-3.0271649171957002,8.234022686126456,7.322584910344106,22.609068934958994,-28.32291592157429
7.155327399919748,-2.8010742278461103,8.307248535229897,7.039355751128363,20.037145041210174,-24.127885118035053
7.127316657641287,-2.6007027774340084,8.377642092741182,6.798076899948012,17.83893515234826,-20.525550551599622
7.101309629866947,-2.422313425910526,8.445622861740661,6.592821394432016,15.983177408600577,-17.441067243086447
7.077086495607841,-2.2624816518245203,8.51155107568498,6.418410722001151,14.423481137256646,-14.78812459404646
7.054461679089596,-2.118246840451954,8.575735182904992,6.270529476060687,13.113636170275669,-12.486980938076854
7.033279210685077,-1.987110478749197,8.638440477665599,6.145659666679918,12.012823712833397,-10.469690562744244
7.013408105897585,-1.8669822416208632,8.699897074332398,6.040962761052476,11.086679788132567,-8.680387238573026
6.994738283481376,-1.7561154437395377,8.760306701942923,5.954158888666745,10.306778126978076,-7.07392665243427
6.977177129043981,-1.653047662469757,8.81984829082959,5.883419622142402,9.649600102427877,-5.614215313414808
6.960646652419284,-1.5565516614454782,8.878682487051014,5.827277469008254,9.095408850709378,-4.272723047606644
6.945081135804829,-1.4655975729383843,8.936955261741097,5.784550238532187,8.627167231370505,-3.0273383821771658
6.930425160075445,-1.3793259006246792,8.994800764126419,5.754276854710415,8.229524443282468,-1.8615965003279693
6.916631901069199,-1.2970306561918545,9.052343532673524,5.735660889707136,7.88785264336609,-0.7642647974003411
6.90366159450728,-1.2181521297581936,9.109700141570595,5.728018241733133,7.587304293869827,0.27074290500126913
6.891480073209698,-1.1422790868194954,9.166980323987927,5.730725670783145,7.3118685016391005,1.2441613734673038
6.880057282341504,-1.0691604018031045,9.224287580695758,5.743167284517818,7.043426943708745,2.1509345687329304
6.869365678323473,-0.998726132366017,9.281719253540937,5.764676630205147,6.760849418374007,2.9796370870366915
6.859378416999813,-0.931117638182277,9.339366019842988,5.794473001075514,6.439230224599283,3.711920187512076
6.8500672406179905,-0.8667253359362842,9.397310749853743,5.831592202950635,6.049452426108609,4.322249606667802
6.841399987258628,-0.8062308116751981,9.455626671883248,5.874814699017312,5.558372423461223,4.778334888011679
6.833337679141875,-0.7506470874405858,9.51437481887342,5.922598047897429,4.9300185360596345,5.042781466613245
6.82583120826747,-0.7013469020799895,9.573600799352395,5.973025862563562,4.128240104666579,5.07655664104351
6.81881773924667,-0.6600645010333237,9.63333105797803,6.023791428973997,3.1211366803841765,4.844729219135683
6.812217094236337,-0.628853134229482,9.69356897226777,6.072238721165354,1.8872303132755492,4.32447479368565
6.805928562894042,-0.6099808310967265,9.754291359479422,6.11548346910221,0.42265541038679794,3.5144496040567814
6.799828754583075,-0.6057542769928586,9.815446194170445,6.150627965142777,-1.2522676969940782,2.443455378398615
6.793771211813146,-0.6182769539627994,9.876952473821872,6.175062518926763,-3.089463793391386,1.1753300218562694
6.787588442273518,-0.6491715918967133,9.93870309901114,6.186815819145326,-5.014930908682109,-0.19301944522471445
6.7810967263545505,-0.6993209009835344,10.000571257202592,6.184885624693079,-6.93712969863643,-1.5419484240866344
6.774103517344715,-0.7686921979698987,10.062420113449523,6.169466140452212,-8.760787673993203,-2.7463042173378107
6.7664165953650155,-0.8563000747098308,10.124114774854045,6.142003098278835,-10.402600181318391,-3.6950451385037004
6.7578535946179175,-0.9603260765230147,10.185534805836832,6.105052646893798,-11.804270032775788,-4.307427405218063
6.748250333852687,-1.0783687768507726,10.24658533230577,6.061978372841617,-12.939350810038832,-4.541276197493762
6.7374666460841794,-1.207762284951161,10.307205116034186,6.016565610866679,-13.812871923341755,-4.392082861265585
6.725389023234668,-1.3458910041845784,10.367370772142854,5.972644782254023,-14.455280345009491,-3.8849147411764755
6.711930113192823,-1.4904438076346733,10.427097219965393,5.933795634842259,-14.913611141851495,-3.0628348133274974
6.6970256751164765,-1.6395799190531883,10.486435176313815,5.9031672867089835,-15.242721453788437,-1.975382277111262
6.680629875925945,-1.7920071335910728,10.545466849180904,5.883413463937871,-15.498429553844803,-0.6693715917183591
6.662709804590034,-1.9469914291295207,10.604300983820282,5.876719748020688,-15.73323916195387,0.817219471824192
6.643239890298739,-2.1043238207490593,10.66306818130049,5.884891942738929,-15.99448549568719,2.458574451182912
6.622196652091248,-2.264268675705931,10.721917100727879,5.909477687250758,-16.32433962908028,4.242387947252774
6.599553965334189,-2.427512071996734,10.781011877600386,5.951901566723286,-16.7610523519374,6.170137304071764
6.575278844614221,-2.595122595516108,10.84053089326762,6.013602939764004,-17.340947630907994,8.257037618589145
6.54932761865906,-2.768532071825188,10.900666922665259,6.096173315949896,-18.10086132693121,10.532246765209619
6.521642297940808,-2.9495406850945,10.961628655824757,6.201495783601992,-19.08089031568669,13.039717556838209
6.492146891089863,-3.140349588251367,11.023643613660777,6.331892959170374,-20.327437291364472,15.839970495607503
6.460743395207349,-3.3436239611650116,11.086962543252481,6.490292664126449,-21.896585145054665,19.012954115851084
6.427307155595699,-3.5625898126155584,11.151865469893746,6.68042220528496,-23.857765081495522,22.66198379768593
6.391681257469544,-3.8011674634305135,11.218669691946596,6.907042043261819,-26.297363955001156,26.91829976052279
6.353669582835239,-4.064141102980525,11.287740112379215,7.176225040867046,-29.321004960723965,31.94456893714069
6.313028171805433,-4.357351152587764,11.359502362787886,7.495670730238453,-33.05086244199081,37.93246120328033
6.269454660279555,-4.687859777007672,11.43445907009027,7.874995342271257,-37.608384199656555,45.08126448403605
6.222576062509479,-5.063943619004237,11.513209023512983,8.325807987111617,-43.05804519650365,53.52417472662814
6.171936626319436,-5.494524070969273,11.5964671033841,8.861049734377898,-49.253039150869334,63.120649361210084
6.116991385609743,-5.987054462477967,11.68507760072788,9.49225622799,-55.451522973894484,72.931946859593
6.057120840984963,-6.541569692216911,11.780000163007779,10.22157569658593,-59.47485376976222,80.0587691840884
5.991705144062793,-7.136318229914534,11.882215919973639,11.022163388426813,-56.33419642535211,77.72809686027334
5.920341961763648,-7.699660194168055,11.992437553857908,11.799444357029547,-37.89970299814013,54.80092662046999
5.843345359821967,-8.078657224149456,12.110431997428202,12.347453623234246,0.5262223212351527,4.839466747786935
5.762558787580472,-8.073395000937104,12.233906533660544,12.395848290712115,45.72667549739815,-53.913255495545734
5.681824837571101,-7.6161282459631225,12.357865016567665,11.856715735756657,72.8684956666396,-87.49484296949004
5.6056635551114695,-6.887443289296726,12.47643217392523,10.981767306061757,76.71854666120099,-89.26801027819889
5.536789122218503,-6.120257822684716,12.586249846985849,10.089087203279767,69.38467048450019,-76.16153996218925
5.475586543991655,-5.426411117839715,12.687140719018647,9.327471803657875,60.11679124795163,-60.77479578823479
5.421322432813258,-4.825243205360199,12.780415437055225,8.719723845775528,52.13398106648569,-47.331358800989754
5.373070000759656,-4.303903394695341,12.86761267551298,8.24641025776563,45.971573562659934,-36.41800614177722
5.330030966812703,-3.844187659068742,12.950076778090637,7.882230196347858,41.412039509113846,-27.643619397754975
5.291589090222015,-3.4300672639776035,13.028899080054115,7.605794002370308,38.12197661558661,-20.495926228885182
5.257288417582239,-3.0488474978217375,13.10495702007782,7.400834740081456,35.81231074463666,-14.548014233943952
5.226799942604021,-2.690724390375371,13.178965367478634,7.255354597742016,34.26030929703039,-9.481648347314016
5.199892698700268,-2.348121297405067,13.251518913456055,7.160538114268876,33.298206470742144,-5.0692070201579
5.176411485726217,-2.0151392326976456,13.323124294598744,7.109846044067297,32.79725084240952,-1.1521257616560046
5.156260093399241,-1.6871667242735504,13.394222755039417,7.098324786450736,32.6539221054994,2.3758804310474186
5.139388426156505,-1.3606275032185564,13.465206002903924,7.122083590761211,32.779135472713676,5.580322326360457
5.125782151124319,-1.0328361484914197,13.536426838811536,7.1778868140248155,33.089947725969694,8.49338535033668
5.115453789639405,-0.7019366712317228,13.608205706951784,7.262820667528183,33.5032464530586,11.118707753193142
5.108434422927088,-0.36690420670113677,13.680833913627065,7.374007745060114,33.93118981889362,13.434761854262161
