th1 (rad),w1 (rad/s),th2 (rad),w2 (rad/s),a1 (rad/s^2),a2 (rad/s^2)
3.594812224535932,-2.522310920158493,3.320017619657731,-0.991728057165647,4.638105020219038,-0.9984478737387144
3.569589115334347,-2.475929869956303,3.3101003390860746,-1.001712535903034,4.474109904033235,-1.1078173146122923
3.5448298166347842,-2.4311887709159703,3.3000832137270444,-1.012790709049157,4.299831895512881,-1.192759009942341
3.5205179289256248,-2.3881904519608415,3.289955306636553,-1.0247182991485804,4.116355262851097,-1.2554188305500107
3.4966360244060164,-2.3470268993323304,3.2797081236450674,-1.0372724874540804,3.9247541249152094,-1.2979332568187536
3.473165755412693,-2.3077793580831782,3.2693353987705267,-1.050251820022268,3.726071705482425,-1.3223915633303553
3.450087961831861,-2.270518641028354,3.258832880570304,-1.0634757356555715,3.5213028594700138,-1.33080421208622
3.4273827754215778,-2.235305612433654,3.2481981232137485,-1.0767837777764337,3.31138016608236,-1.3250777485991505
3.405029719297241,-2.20219181077283,3.237430285435984,-1.0900345552624253,3.0971636237001787,-1.306996113523776
3.383007801189513,-2.1712201745358284,3.22652993988336,-1.1031045163976632,2.8794337782702724,-1.2782079870673688
3.361295599444155,-2.1424258367531257,3.215498894719383,-1.1158865962683369,2.6588879733523125,-1.2402195776104998
3.3398713410766234,-2.1158369570196025,3.2043400287567,-1.1282887920444418,2.436139321977194,-1.194392143827531
3.3187129715064274,-2.0914755637998304,3.1930571408362556,-1.140232713482717,2.2117179601733006,-1.1419434891808171
3.297798215868429,-2.069358384198097,3.1816548137014284,-1.1516521483745252,1.9860741395549955,-1.083952674067461
3.277104632026448,-2.0494976428025473,3.170138292217683,-1.1624916751152,1.7595827415299796,-1.0213672386934438
3.2566096555984227,-2.0319018153872475,3.158513375466531,-1.1727053475021343,1.5325488390373745,-0.9550123046633389
3.2362906374445504,-2.0165763269968737,3.1467863219915095,-1.1822554705487678,1.3052139852780902,-0.8856010131697335
3.216124874174582,-2.0035241871440927,3.1349637672860218,-1.191111480680465,1.0777629663437782,-0.8137458529594055
3.1960896323031407,-1.9927465574806549,3.1230526524792173,-1.1992489392100592,0.8503308113815966,-0.739970524901779
3.176162166728334,-1.984243249366839,3.111060163087117,-1.206648644459077,0.6230099068494277,-0.6647220772284528
3.1563197342346654,-1.9780131502983447,3.098993676642526,-1.2132958652313615,0.3958571086595586,-0.5883831234695517
3.136539602731682,-1.974054579211749,3.0868607179902123,-1.219179696466057,0.16890078666484715,-0.5112840223445367
3.1167990569395645,-1.9723655713451005,3.074668921025552,-1.2242925366895023,-0.0578522302378372,-0.43371495495210793
3.0970754012261135,-1.972944093647479,3.0624259956586566,-1.2286296862390234,-0.28440981294924533,-0.35593787977959235
3.0773459602896387,-1.9757881917769713,3.0501396987962663,-1.2321890650368192,-0.5107877786088373,-0.2781983809007217
3.057588078371869,-1.9808960695630597,3.037817808145898,-1.2349710488458265,-0.7370031931593416,-0.20073744995317394
3.0377791176762385,-1.9882661014946532,3.02546809765744,-1.2369784233453582,-0.9630676887665991,-0.1238032587284088
3.017896456661292,-1.9978967783823192,3.0130983134239866,-1.2382164559326423,-1.1889807500487948,-0.047662986933962335
2.9979174888774685,-2.0097865858828072,3.0007161488646603,-1.238693085801982,-1.414722923146978,0.02738523088496675
2.9778196230186404,-2.023933815114277,2.9883292180066405,-1.2384192334931323,-1.6402489066352683,0.10100018423692435
2.9575802848674977,-2.0403363041806295,2.975945025671709,-1.237409231650763,-1.865480493353918,0.1727852540966871
2.9371769218256913,-2.0589911091141686,2.9635709333552014,-1.235681379109796,-2.090299347865226,0.24227585873599397
2.9165870107345495,-2.079894102592821,2.9512141195641033,-1.233258620522436,-2.314539625939624,0.3089267054142245
2.895788069708621,-2.103039498852217,2.938881533358879,-1.2301693534682938,-2.5379804709167737,0.3720989242985981
2.874757674720099,-2.128419303561385,2.9265798398241962,-1.226448364225308,-2.760338457574205,0.4310472222914532
2.8534734816844853,-2.156022688137127,2.9143153561819433,-1.2221378920023933,-2.9812600977305186,0.4849072688732387
2.831913254803114,-2.185835289114432,2.902093977261919,-1.2172888193136608,-3.200314573308358,0.5326836138094209
2.8100549019119696,-2.2178384348475153,2.8899210890687828,-1.2119619831755666,-3.4169869214675224,0.5732385368535673
2.7878765175634945,-2.2520083040621905,2.8778014692370273,-1.206229597807031,-3.630671961246651,0.6052823402117271
2.7653564345228725,-2.2883150236746572,2.865739173258957,-1.2001767744049137,-3.8406693191929,0.6273657113353193
2.742473284286126,-2.326721716866586,2.853737405514908,-1.1939031172915604,-4.046179978319051,0.6378748998351705
2.7192060671174603,-2.3671835166497766,2.8417983743419923,-1.1875243682932086,-4.246304834005798,0.6350305581158894
2.6955342319509623,-2.4096465649898344,2.8299231306590604,-1.1811740627120497,-4.440045783533789,0.6168911774253849
2.671437766301064,-2.4540470228251725,2.81811139003194,-1.175005150937796,-4.626309891940374,0.5813620926566359
2.646897296072812,-2.5003101217445765,2.8063613385225623,-1.1691915300112294,-4.803917153184911,0.526211010804247
2.6218941948553662,-2.5483492932764253,2.79466942322245,-1.1639294199031869,-4.971612288626608,0.4490909183375875
2.596410701922602,-2.5980654161626915,2.783030129023418,-1.159438510719811,-5.128080881750008,0.3475710216549895
2.570430047760975,-2.6493462249801913,2.7714357439162196,-1.1559628005032612,-5.27196992916454,0.2191760563395491
2.5439365855111733,-2.7020659242718366,2.759876115911187,-1.1537710399398657,-5.401912589464167,0.061433858078975584
2.516915926268455,-2.756085050166478,2.7483384055117885,-1.153156701359076,-5.516556539256012,-0.12806947241366787
2.48935507576679,-2.811250615559038,2.7368068384981976,-1.1544373960832126,-5.614594917734167,-0.3516281310856617
2.4612425696111995,-2.8673965647363797,2.7252624645373653,-1.1579536773940693,-5.694798390289849,-0.6113509179021686
2.4325686039638357,-2.924344548639278,2.7136829277634247,-1.164067186573091,-5.756046435020054,-0.9090939842001563
2.403325158477443,-2.9819050129894786,2.7020422558976938,-1.1731581264150925,-5.797355612342697,-1.2463952801412153
2.373506108347548,-3.0398785691129055,2.690310674633543,-1.1856220792165046,-5.817902380968625,-1.6244143242583942
2.343107322656419,-3.0980575929225918,2.678454453841378,-1.2018662224590886,-5.8170380321404975,-2.0438809869748527
2.312126746727193,-3.156227973243997,2.666435791616787,-1.2223050323288371,-5.794293570592417,-2.505056693565569
2.280564466994753,-3.214170908949921,2.654212741293499,-1.247355599264493,-5.7493728890980345,-3.007710786338202
2.248422757905254,-3.2716646378409013,2.641739185300854,-1.2774327071278748,-5.6821333410346595,-3.5511137720471666
2.2157061115268446,-3.328485971251248,2.6289648582295753,-1.3129438448483466,-5.592553750316892,-4.134047908312688
2.182421251814332,-3.384411508754417,2.615835419781092,-1.3542843239314735,-5.480690915126206,-4.754834192528227
2.148577136726788,-3.439218417905679,2.6022925765417773,-1.4018326658567557,-5.346626645961556,-5.411373480359909
2.114184952547731,-3.4926846843652943,2.58827424988321,-1.4559464006603549,-5.190408213826711,-6.101198353961144
2.079258105704078,-3.5445887665035616,2.5737147858766063,-1.5169583841999663,-5.0119856749728156,-6.821531630763371
2.043812218039043,-3.5947086232532897,2.5585452020346064,-1.5851737005076,-4.81114982582388,-7.569347147032933
2.00786513180651,-3.6428201215115283,2.5426934650295303,-1.6608671719779293,-4.587474513546536,-8.34142869213332
1.9714369305913946,-3.6886948666469936,2.526084793309751,-1.7442814588992626,-4.340266718632861,-9.13442366482704
1.9345499819249246,-3.7320975338333224,2.5086419787207586,-1.835625695547533,-4.068527307080659,-9.944889068647358
1.8972290065865913,-3.772782806904129,2.490285721765283,-1.9350745862340066,-3.770924713213191,-10.769328719102027
1.85950117851755,-3.8104920540362612,2.470934975902943,-2.042767873425027,-3.4457831542584523,-11.604221849311426
1.8213962579771874,-3.8449498855788455,2.4505072971686928,-2.1588100919181414,-3.0910863752117494,-12.44604453177608
1.782946759121399,-3.875860749330963,2.4289191962495114,-2.2832705372359023,-2.704497433456709,-13.291286368198426
1.7441881516280893,-3.90290572366553,2.4060864908771524,-2.4161834009178866,-2.283394684784836,-14.136465655837094
1.7051590943914339,-3.9257396705133782,2.3819246568679735,-2.5575480574762577,-1.8249239273778441,-14.978146668119614
1.6659016976863001,-3.9439889097871568,2.356349176293211,-2.707329524157454,-1.3260665809690264,-15.81296276210074
1.6264618085884286,-3.957249575596847,2.3292758810516365,-2.8654591517784613,-0.7837238000240586,-16.637648729004315
1.5868893128324602,-3.965086813597088,2.300621289533852,-3.0318356390685044,-0.19481652248486536,-17.44908511654172
1.5472384446964893,-3.9670349788219363,2.270302933143167,-3.2063264902339217,0.44359836223637,-18.244356136837197
1.50756809490827,-3.962598995199573,2.2382396682408277,-3.3887700516022936,1.134195250061469,-19.02082116706051
1.4679421049562742,-3.951257042698958,2.2043519677248047,-3.578978263272899,1.879229507182019,-19.77619764554213
1.4284295345292846,-3.932464747627138,2.1685621850920755,-3.77674023972832,2.680367833590185,-20.508650201723114
1.3891048870530132,-3.905661069291236,2.1307947826947924,-3.981826741745551,3.53849616000073,-21.216876892500895
1.3500482763601007,-3.870276107691229,2.0909765152773367,-4.19399551067056,4.453499650133074,-21.900178097684204
1.3113455152831883,-3.825741111189898,2.0490365601706313,-4.412997291647402,5.424005699608311,-22.55848644158968
1.2730881041712894,-3.771501054193815,2.0049065872541574,-4.638582156063299,6.4470750702337165,-23.192326320499188
1.2353730936293512,-3.7070303034914778,1.9585207656935244,-4.870505419268291,7.517817584108032,-23.802658189426747
1.1983027905944363,-3.6318521276503977,1.9098157115008414,-5.108532001162558,8.628896012967141,-24.390544290900756
1.1619842693179323,-3.545563167520726,1.8587303914892157,-5.352437444071566,9.769863675527127,-24.95654723110494
1.126528637642725,-3.4478645307654547,1.8052060170485,-5.602002916382616,10.926256683181355,-25.499738860243337
1.0920499923350704,-3.338601963933641,1.7491859878846738,-5.857000304985049,12.078330558752128,-26.016153190709186
1.0586639726957339,-3.2178186583461197,1.6906159848348232,-6.117161836892141,13.19929565679807,-26.496465476719408
1.0264857861122727,-3.085825701778139,1.6294443664659017,-6.382126491659335,14.252875703029067,-26.922630017721385
0.9956275290944913,-2.943296944747848,1.5656231015493085,-6.6513527918365485,15.190012649912125,-27.263190096610902
0.9661945596470127,-2.7913968182487268,1.499109573630943,-6.923984692802658,15.944621345095067,-27.467050677161165
0.9382805914645255,-2.631950604797776,1.4298697267029163,-7.19865519957427,16.42856181707739,-27.455811816279684
0.9119610854165477,-2.4676649866270024,1.3578831747071736,-7.473213317737066,16.52662043405963,-27.115533278265058
0.8872844355502777,-2.302398782286406,1.2831510415298029,-7.744368650519717,16.093512442266444,-26.29036998901208
0.8642604477274136,-2.1414636578637416,1.2057073550246056,-8.007272350409838,14.95690722906443,-24.783145021063657
0.8428458111487762,-1.9918945855730974,1.1256346315205072,-8.255103800620475,12.93290253075566,-22.37123350315577
0.8229268652930453,-1.8625655602655409,1.0430835935143026,-8.478816135652032,9.861527601392456,-18.8479230227456
0.8043012096903899,-1.7639502842516164,0.9582954321577822,-8.667295365879488,5.665815066472244,-14.094517360428629
0.7866617068478737,-1.707292133586894,0.8716224784989873,-8.808240539483775,0.42398536436647544,-8.17047247447339
0.7695887855120048,-1.7030522799432293,0.7835400731041495,-8.889945264228508,-5.57828306204347,-1.379481216676261
0.7525582627125725,-1.758835110563664,0.6946406204618645,-8.903740076395271,-11.862178464303478,5.748284713882237
0.7349699116069359,-1.8774568952066988,0.6056032196979118,-8.84625722925645,-17.860185223649644,12.5869388382778
0.716195342654869,-2.056058747443195,0.5171406474053473,-8.720387840873672,-23.072971759465794,18.608217191294663
0.695634755180437,-2.286788465037853,0.42993676899661054,-8.534305668960725,-27.194632866916987,23.528738841310386
0.6727668705300586,-2.558734793707023,0.3445937123070033,-8.299018280547621,-30.144830750664987,27.335734644260178
0.6471795225929884,-2.860183101213673,0.2616035295015271,-8.02566093410502,-32.01598662999563,30.207546467971127
0.6185776915808516,-3.1803429675136297,0.1813469201604769,-7.723585469425308,-32.988919911710106,32.40094327841456
0.5867742619057154,-3.510232166630731,0.10411106546622383,-7.399576036641163,-33.26327607503348,34.163903625256744
0.551671940239408,-3.8428649273810658,0.030115305099812195,-7.057937000388595,-33.01886726670568,35.6914202635756
0.5132432909655974,-4.173053600048123,-0.040464064904073754,-6.701022797752839,-32.40254546923697,37.11467479785053
0.4715127549651162,-4.497079054740492,-0.10747429288160215,-6.329876049774334,-31.52924875049959,38.50769110950926
0.42654196441771125,-4.812371542245488,-0.1707730533793455,-5.944799138679241,-30.488263494827063,39.8997763514253
0.3784182489952564,-5.117254177193759,-0.23022104476613792,-5.545801375164988,-29.3497415230646,41.28765647545505
0.3272457072233188,-5.410751592424405,-0.2856790585177878,-5.1329248104104375,-28.169379863904524,42.644921087066464
0.27313819129907474,-5.69244539106345,-0.3370083066218922,-4.706475599539773,-26.990657643474155,43.92814274674941
0.21621373738844024,-5.962351967498192,-0.3840730626172899,-4.267194172072278,-25.84459540866402,45.07958905298947
0.15659021771345832,-6.220797921584832,-0.4267450043380127,-3.8163982815423836,-24.74710276524573,46.026448416332286
0.09438223849761002,-6.468268949237289,-0.46490898715343654,-3.356133797379061,-23.693902491999793,46.67634701016224
0.029699549005237122,-6.705207974157287,-0.49847032512722717,-2.8893703272774385,-22.652978126429105,46.908937725038406
-0.03735253073633575,-6.931737755421578,-0.5273640284000015,-2.4202809500270543,-21.554749855210126,46.563853739041114
-0.10666990829055154,-7.147285253973679,-0.5515668379002721,-1.9546424126366433,-20.28118144766003,45.426952336118624
-0.17814276083028832,-7.350097068450279,-0.5711132620266385,-1.500372889275457,-18.65744834007499,43.22048002121327
-0.25164373151479114,-7.536671551851029,-0.5861169909193931,-1.0681680890633243,-16.45433141674654,39.60946046598697
-0.3270104470333014,-7.7012148660184945,-0.5967986718100263,-0.6720734844034546,-13.415554244272846,34.24524502421067
-0.40402259569348636,-7.835370408461223,-0.6035194066540609,-0.3296210341613479,-9.327009319066375,26.870583262122484
-0.4823762997780986,-7.928640501651887,-0.6068156169956743,-0.06091520154012309,-4.132090230203626,17.491130019735927
-0.5616627047946174,-7.969961403953923,-0.6074247690110756,0.11399609865723617,1.943879920126183,6.557356868450023
-0.6413623188341566,-7.950522604752662,-0.6062848080245032,0.1795696673417364,8.351970122614262,-4.979435605877044
-0.7208675448816833,-7.867002903526519,-0.6044891113510859,0.12977531128296596,14.350880046829078,-15.870439081140827
-0.7995375739169485,-7.723494103058228,-0.6031913582382562,-0.028929079528442314,19.281529205912406,-24.989175696901096
-0.8767725149475307,-7.530678810999104,-0.6034806490335406,-0.27882083649745326,22.80873248281123,-31.707110342330132
-0.9520793030575218,-7.302591486170992,-0.6062688573985151,-0.5958919399207545,24.970409448586746,-35.98406182932149
-1.0251052179192317,-7.0528873916851245,-0.6122277767977227,-0.9557325582139694,26.04944098947143,-38.18782582640046
-1.095634091836083,-6.79239298179041,-0.6217851023798624,-1.337610816477974,26.4014845271072,-38.8369601604175
-1.1635580216539871,-6.528378136519338,-0.6351612105446421,-1.7259804180821492,26.339238473400098,-38.41929647053086
-1.2288418030191806,-6.264985751785337,-0.6524210147254637,-2.110173382787458,26.089489442128688,-37.316538382842296
-1.291491660537034,-6.004090857364051,-0.6735227485533383,-2.483338766615881,25.795581921369138,-35.798346858614174
-1.3515325691106743,-5.746135038150359,-0.6983561362194971,-2.8413222352020227,25.536891466891095,-34.04478723141695
-1.408993919492178,-5.490766123481448,-0.7267693585715174,-3.181770107516192,25.349556764260075,-32.173197539008854
-1.4639015807269924,-5.2372705558388475,-0.7585870596466793,-3.5035020829062806,25.242869897589127,-30.260219914561322
-1.5162742862853809,-4.984841856862956,-0.7936220804757421,-3.8061042820518938,25.210679106213384,-28.357283973709364
-1.5661227048540105,-4.7327350658008225,-0.831683123296261,-4.089677121788988,25.23880269945302,-26.50057370781621
-1.6134500555120188,-4.4803470388062925,-0.872579894514151,-4.35468285886715,25.30965042241374,-24.71704077051355
-1.6582535259000817,-4.227250534582155,-0.9161267231028225,-4.601853266572285,25.404996470523784,-23.027799732440872
-1.7005260312459032,-3.9732005698769175,-0.9621452557685454,-4.832131263896694,25.507544042430872,-21.449864255444375
-1.7402580369446723,-3.7181251294526088,-1.0104665684075123,-5.046629906451138,25.60168092400305,-19.996854580611892
-1.7774392882391983,-3.4621083202125784,-1.0609328674720238,-5.246598452257257,25.673660795375774,-18.679063000612324
-1.8120603714413241,-3.205371712258821,-1.1133988519945963,-5.43338908226338,25.711338505568214,-17.503092570278177
-1.8441140885639125,-2.9482583272031384,-1.1677327428172302,-5.608420007966162,25.70352011420083,-16.471164750234124
-1.8735966718359438,-2.69122312606113,-1.2238169428968917,-5.773131655468503,25.638946429004072,-15.580108617580244
-1.9005089030965552,-2.4348336617710893,-1.2815482594515768,-5.928932741644306,25.504906161376194,-14.81999121282535
-1.924857239714266,-2.179784600157327,-1.3408375868680198,-6.077132653772559,25.285474831071177,-14.172330221709009
-1.9466550857158393,-1.9269298518466154,-1.4016089134057454,-6.21885595598965,24.959412874907194,-13.607866239832733
-1.9659243842343055,-1.6773357230975434,-1.463797472965642,-6.354934618387977,24.49786076410389,-13.084002449948073
-1.9826977414652809,-1.4323571154565045,-1.5273468191495219,-6.485774642887458,23.86218631853382,-12.542307957581757
-1.997021312619846,-1.1937352522711662,-1.5922045655783965,-6.611197722463276,23.002721724892517,-11.907001115176373
-2.0089586651425577,-0.963708035022241,-1.6583165428030293,-6.730267733615039,21.859690168602818,-11.08610882425889
-2.0185957454927803,-0.7451111333362128,-1.7256192201391798,-6.8411288218576285,20.368238049719487,-9.977876645092831
-2.0260468568261425,-0.5414287528390179,-1.7940305083577561,-6.940907588308557,18.46971593506318,-8.48539264147651
-2.0314611443545325,-0.3567315934883861,-1.8634395842408418,-7.025761514723322,16.13030136601272,-6.54107891124361
-2.0350284602894164,-0.19542857982825892,-1.933697199388075,-7.091172303835758,13.364689725930353,-4.138261744710346
-2.036982746087699,-0.06178168256895539,-2.0046089224264323,-7.132554921282861,10.25695245231119,-1.3594775798769119
-2.037600562913388,0.04078784195415651,-2.0759344716392607,-7.146149697081631,6.965831575515453,1.6154044407844474
-2.0371926844938466,0.11044615770931104,-2.147395968610077,-7.129995652673786,3.703715916132815,4.53564191290012
-2.0360882229167534,0.1474833168706392,-2.218695925136815,-7.084639233544785,0.6909142822625227,7.138584257574052
-2.034613389748047,0.15439245969326443,-2.2895423174722627,-7.013253390969045,-1.8968125713294075,9.217314768052292
-2.0330694651511143,0.13542433397997036,-2.359674851381953,-6.921080243288523,-3.963425204114228,10.665277027239572
-2.031715221811315,0.09579008193882807,-2.428885653814838,-6.814427473016127,-5.497459939571086,11.481148287271767
-2.0307573209919267,0.04081548254311721,-2.4970299285449995,-6.69961599014341,-6.551741060211566,11.741412533263073
