th1 (rad),w1 (rad/s),th2 (rad),w2 (rad/s)
4.648324860755321,2.4983247722916655,5.726626495739087,2.348952628320619
4.6733081084782375,2.6366595087717672,5.750116022022293,2.2803161712496984
4.699674703565956,2.7758225329693236,5.77291918373479,2.2029262335082676
4.727432928895649,2.9158178605806278,5.794948446069872,2.116264358759188
4.756591107501455,3.0566815632836914,5.816111089657464,2.019816418046446
4.787157923134292,3.198489880943359,5.836309253837928,1.9130730730866816
4.819142821943726,3.3413679022647464,5.855439984568795,1.795529605536519
4.852556500966373,3.485498695195488,5.87339528062416,1.6666850642266313
4.887411487918328,3.631132695831029,5.8900621312664265,1.526040792085427
4.923722814876639,3.7785970492207066,5.905322539187281,1.3730985834171137
4.961508785368846,3.9283044080586116,5.919053525021452,1.2073590347901484
5.000791829449432,4.080760387738981,5.931127115369353,1.0283211592735308
5.041599433326822,4.236568370781148,5.941410326962089,0.8354851453007356
5.083965117034634,4.396429525729365,5.949765178415096,0.628361432992351
5.127929412291928,4.561134560394485,5.95604879274502,0.4064913234107478
5.173540757895872,4.731541571171694,5.960113705979127,0.1694875371964407
5.220856173607589,4.9085309559961345,5.961808581351092,-0.08289192518923025
5.269941483167551,5.0929231887009285,5.9609796620991995,-0.35061587834782615
5.32087071505456,5.285337800442868,5.957473503315721,-0.6331667761450634
5.373724093058988,5.48596224371334,5.95114183555427,-0.9291977030958553
5.428583715496122,5.694189536427628,5.9418498585233115,-1.2360020219632957
5.485525610860398,5.908081242025633,5.929489838303678,-1.548736693497863
5.544606423280654,6.12363671024109,5.9140024713687,-1.8593781431661611
5.605842790383065,6.333939007557101,5.895408689937038,-2.1555217131744118
5.669182180458636,6.528455166700664,5.873853472805294,-2.419436575681649
5.734466732125642,6.6931023847799205,5.849659107048478,-2.6282682339148753
5.801397755973442,6.811958168803625,5.823376424709329,-2.7566585249661357
5.869517337661478,6.871134790399579,5.795809839459667,-2.7825286140161847
5.938228685565474,6.863816231594507,5.767984553319505,-2.6945680407843517
6.006866847881419,6.793558100629409,5.741038872911662,-2.4972215665919686
6.074802428887713,6.673178225711572,5.716066657245742,-2.2092581203955506
6.141534211144829,6.519808117648113,5.693974076041786,-1.8566600333941856
6.20673229232131,6.349517538262906,5.6754074757078445,-1.4647227067647646
6.270227467703939,6.174252758563338,5.660760248640197,-1.0533847850195657
6.3319699952895725,6.001327467003078,5.650226400790001,-0.6362408775830526
6.391983269959603,5.8343047430196755,5.643863992014171,-0.2216280259378845
6.450326317389799,5.674197845605195,5.641647711754792,0.18575220203674503
6.507068295845851,5.520477807477266,5.6435052337751594,0.58343663063049
6.562273073920624,5.371773552863241,5.649339600081464,0.9702193392089862
6.615990809449256,5.226313032110195,5.659041793473554,1.3455354911320754
6.668253939770358,5.08218631162187,5.672497148384874,1.7091041731066485
6.719075802886577,4.937497822874579,5.68958819011594,2.060738100079986
6.768450781115322,4.79045333898631,5.71019557111674,2.400255498442328
6.816355314505185,4.639409662790671,5.734198126101163,2.727452650846447
6.862749411133092,4.482903138861744,5.761472652609628,3.042111463668624
6.907578442521709,4.319665739810001,5.791893767246314,3.344026368631246
6.9507750999198095,4.148633137574855,5.825334030932627,3.6330408493696127
6.992261431295558,3.968946727753893,5.861664439426323,3.9090874299308678
7.031950898573097,3.7799502938211527,5.9007553137256314,4.172227096300478
7.069750401511309,3.581181425336052,5.942477584688636,4.422685468657659
7.105562215764669,3.372357665645681,5.986704439375213,4.660883960651671
7.139285792421126,3.153357493305568,6.03331327898173,4.887464842720436
7.170819367354182,2.9241965359665856,6.082187927408934,5.103309651233803
7.200061332713847,2.6849998184886257,6.133221023921272,5.309550763319019
7.226911330898734,2.4359713389844146,6.186316531554462,5.507576142907594
7.251271044288578,2.1773628700814793,6.241392292983538,5.699027159250922
7.273044672989393,1.9094446772842826,6.298382564576047,5.885788823920383
7.292139119762235,1.6324819931396803,6.357240452815251,6.069970532456636
7.308463939693632,1.3467228661323045,6.417940158139817,6.253873033980714
7.321931168354955,1.0524058690364448,6.480478888479625,6.439933266382669
7.33245522704532,0.7498007775555154,6.544878221143452,6.630631957987532
7.339953234820875,0.43930261125328174,6.611184540723327,6.828338247315792
7.344346260933408,0.12161024960962191,6.679467923196485,7.035049687800157
7.345562363429504,-0.20196485616765886,6.749818420074487,7.251964713866356
7.343542714867827,-0.5290002688179394,6.82233806721315,7.47880260960105
7.338252712179648,-0.8552148977480123,6.8971260933091605,7.712781761381655
7.329700563202168,-1.1734632970307188,6.974253910922977,7.9472302515233615
7.317965930231861,-1.4726371614747127,7.05372621343821,8.170033866002367
7.303239558617114,-1.7370241889571596,7.135426552098234,8.362649084971638
7.285869316727542,-1.9472218512180923,7.21905304294795,8.501163333530544
7.266397098215361,-2.083877477762622,7.3040646762832555,8.561144422638572
7.245558323437734,-2.1342055820643733,7.389676120509641,8.526249825781315
7.2242162676170905,-2.098179191886921,7.474938618767454,8.396430283849668
7.203234475698221,-1.9895735162050652,7.5589029216059505,8.189254041184913
7.183338740536171,-1.8304649454337578,7.6407954620178,7.932555249467388
7.165034091081833,-1.6433792436697992,7.720121014512474,7.654125964894899
7.148600298645135,-1.4460806245011135,7.796662274161423,7.37509439529731
7.1341394924001245,-1.2502616036836598,7.870413218114396,7.108514550761531
7.121636876363288,-1.0625637581585963,7.941498363622011,6.860951108041671
7.111011238781702,-0.8861983617297511,8.010107874702427,6.634734220089557
7.102149255164405,-0.7223168677195302,8.076455216903323,6.429792468547905
7.0949260864872095,-0.5709423708700452,8.140753141588801,6.244857810468532
7.089216662778509,-0.43153570562757493,8.203201719693487,6.078170408881059
7.084901305722233,-0.3033164994229488,8.263983423782298,5.927858390365965
7.0818681407280035,-0.18543555828677816,8.323262007685958,5.792126494871856
7.080013785145136,-0.07706192035683303,8.381183272634678,5.669339058131084
7.079243165941567,0.02257730507532374,8.437876663215988,5.558047341972426
7.079468938992321,0.11418239181586202,8.493457136635712,5.45698911237726
7.080610762910479,0.19837946735361214,8.548027027759485,5.3650755204359
7.082594557584015,0.2757252534311003,8.601677782963844,5.281373163038708
7.0853518101183255,0.34671443879466335,8.65449151459423,5.20508528291764
7.088818954506272,0.4117877723401905,8.706542367423406,5.13553397008168
7.092936832229674,0.47133991377717227,8.757897707124222,5.072144126805737
7.097650231367446,0.5257265943841304,8.80861914839228,5.014429398895496
7.102907497311287,0.5752709152136569,8.858763442381235,4.961980005836473
7.108660206463424,0.6202687518420531,8.9083832424396,4.914452284720889
7.114862893981845,0.66099330340005,8.957527765286809,4.8715597232910275
7.121472827015845,0.6976988525146354,9.006243362519719,4.833065256058984
7.128449815540991,0.7306238104253404,9.05457401508031,4.798774612951681
7.1357560536452445,0.7599931180866029,9.102561761209826,4.768530531129
7.14335598482611,0.7860200650508186,9.150247066521116,4.742207661862495
7.151216185476618,0.8089075762599379,9.197669143139741,4.719708022911734
7.159305261239218,0.828849004024617,9.24486622336886,4.700956861512722
7.167593751279464,0.846028449116416,9.291875791983987,4.685898803514215
7.176054035770628,0.8606206213080492,9.338734780019129,4.674494170383002
7.184660241983709,0.8727902359566713,9.385479721722959,4.666715347982193
7.193388144343276,0.8826909293945494,9.43214687520278,4.662543089585435
7.202215053637222,0.8904636621194748,9.478772306098636,4.661962631060984
7.211119690258417,0.8962345654185777,9.525391932409246,4.664959489313516
7.220082035912602,0.9001121748065066,9.572041527302382,4.671514807053406
7.229083157660668,0.9021839837088881,9.618756675372916,4.681600099496674
7.238104997497756,0.902512245086236,9.665572676367884,4.695171254266136
7.247130119948618,0.9011289500584793,9.712524388910545,4.712161638362225
7.256141409449203,0.8980299252154182,9.759646005294167,4.732474181034002
7.265121708701357,0.8931680199148999,9.806970747104508,4.755972336221337
7.274053388900506,0.8864454089964908,9.85453047046672,4.782469892917628
7.282917842990471,0.8777051242514173,9.902355169395896,4.811719708808913
7.291694894232985,0.8667220601899114,9.950472366483986,4.843401606368343
7.3003621148348845,0.8531938864120601,9.99890638254767,4.877109906037804
7.308894053699005,0.836732547386829,10.047677481608048,4.912341389826326
7.317261379172873,0.816857339839718,10.09680089550631,4.948484892849151
7.3254299525712705,0.7929909121189299,10.146285744434802,4.984814193519969
7.33335986169246,0.7644598880921107,10.196133886370003,5.020486367682306
7.341004460573381,0.7305021052812252,10.246338750046826,5.054548195996184
7.348309481626194,0.6902825579724953,10.296884232006787,5.0859534222583695
7.355212307205918,0.6429199009155657,10.347743766229371,5.113593459226035
7.361641506215074,0.5875246380967504,10.398879700821631,5.136343315300976
7.367516752596042,0.5232487766088832,10.450243133974642,5.153122903945915
7.372749240362131,0.44934477086624475,10.5017743630141,5.162971477890152
7.377242688070793,0.3652292240631766,10.553404077793001,5.165129937885703
7.3808949803114245,0.2705445088591031,10.605055377171858,5.159122759151003
7.383600425400015,0.16520988032552653,10.656646604763369,5.14482909064433
7.3852525242032705,0.04945347749902233,10.708094895669811,5.122532110837584
7.385747058978261,-0.07618169855834635,10.759320216778187,5.0929375866711455
7.384985241992677,-0.21086123662177164,10.8102495926449,5.057156769987801
7.382876629626459,-0.35351095996313986,10.860821160344777,5.0166544841561285
7.379341520026828,-0.5028908885743262,10.910987705186338,4.973169102841535
7.374312611141085,-0.6576822280203314,10.960719396214753,4.928615579359914
7.367735788860882,-0.8165767366287064,11.010005552008352,4.8849846707573805
7.359570021494595,-0.9783586898233378,11.058855398715925,4.8442507552933805
7.3497864345963615,-1.141972257846181,11.10729790626886,4.808297727415341
7.3383667120178995,-1.3065705558239582,11.155380883543014,4.778868434976317
7.32530100645966,-1.4715460008959371,11.203169567892777,4.757539122048018
7.3105855464507,-1.6365442638121828,11.250744959113257,4.745717186334214
7.294220103812578,-1.8014657453498006,11.2982021309766,4.744658641724162
7.27620544635908,-1.9664591809230891,11.345648717393841,4.755500987411916
7.25654085454985,-2.1319119204009294,11.39320372726796,4.77930747254539
7.23522173534584,-2.298440952664693,11.440996801993414,4.817119671916569
7.212237325819194,-2.4668881271946037,11.48916799871258,4.870016548197157
7.187568444547248,-2.6383224766852784,11.53786816419455,4.939179553805072
7.1611852197803945,-2.8140521933070226,11.587259959732602,5.025964703189858
7.133044697847324,-2.995648713856346,11.637519606764501,5.131983882167899
7.10308821070876,-3.184985520186339,11.68883944558618,5.259198944555242
7.071238355506897,-3.384294578692414,11.741431435031732,5.410033328693128
7.037395409719973,-3.5962435993183446,11.795531768318662,5.5875067896584065
7.001432973726789,-3.8240369324615666,11.851406836215247,5.795398721351406
6.963192604402174,-4.071540595608025,11.909360823428761,6.038442681910565
6.922477198446094,-4.3434244110987485,11.969745250247867,6.322544784414628
6.879042954335106,-4.645293883975172,12.032970698092013,6.6549910554504805
6.832590015495354,-4.9837331706453245,12.099520608646518,7.044538653468674
6.7827526837889005,-5.366056311996635,12.169965995181204,7.501114524969593
6.729092120668934,-5.7992738202053635,12.244977140430901,8.0344425233257
6.67109938246688,-6.28714464656754,12.325321565664158,8.650031499901523
6.608227936001205,-6.822980895436235,12.411821880663172,9.339270671603598
6.539998127046842,-7.374551618595053,12.505214587379209,10.058504318650925
6.4662526108608915,-7.860350390260612,12.605799630565718,10.695965731303634
6.3876491069582855,-8.137817239300318,12.712759287878754,11.055154328777258
6.3062709345652825,-8.065144329304296,12.823310831166527,10.940494146895078
6.22561949127224,-7.644058801353779,12.932715772635477,10.355234735730354
6.149178903258702,-7.042431762404188,13.036268119992782,9.531409332715725
6.07875458563466,-6.429620824790723,13.13158221331994,8.700980353787905
6.014458377386752,-5.883275386382086,13.21859201685782,7.968452557965628
5.9556256235229315,-5.4179370308982175,13.298276542437476,7.351831237935339
5.901446253213949,-5.025026714630148,13.371794854816828,6.8380780571288415
5.851195986067648,-4.691292357685983,13.440175635388117,6.40833948449576
5.8042830624907875,-4.404607226171553,13.504259030233074,6.045709693831712
5.760236990229072,-4.155158878464669,13.56471612717139,5.736716940364489
5.718685401444425,-3.9352923914249223,13.622083296575035,5.471019052822054
5.679332477530176,-3.7390726742419087,13.676793487103255,5.240750689980669
5.6419417507877565,-3.561868288408416,13.729200994003062,5.039921769655916
5.606323067903673,-3.400021389241405,13.779600211699622,4.863945740367905
5.572322854011259,-3.250601321180991,13.8282396691033,4.709288157696902
5.539816840799449,-3.1112248546907018,13.87533255068027,4.573208268500599
5.508704592252542,-2.9799263994413803,13.921064633365276,4.453567953273103
5.478905328258128,-2.855065166952842,13.965600312898006,4.348687984401383
5.4503546765886,-2.7352598553241787,14.00908719274202,4.257236866051467
5.423002078035358,-2.6193442148847947,14.051659561402536,4.178141685552061
5.39680863588651,-2.5063387842415747,14.093440978258057,4.110513544080979
5.371745248044094,-2.3954352834752757,14.134546113698867,4.05358256767233
5.347790895209342,-2.2859907443718717,14.175081939375591,4.0066395286605205
5.324930987765623,-2.177528560919888,14.215148334662196,3.9689829447241505
5.303155702156424,-2.0697433801049057,14.254838164109437,3.9398722603880145
5.2824582683553745,-1.9625062913954612,14.294236886713318,3.9184893027935344
5.26283320544142,-1.8558663535061506,14.333421779741252,3.9039114323126594
5.244274541906359,-1.7500444277105507,14.372460894064378,3.895100342167966
5.226774097629253,-1.6454158886877837,14.411411897486058,3.8909099272079035
5.2103199387423755,-1.5424802731149976,14.450320996758137,3.890114802518392
5.194895136011225,-1.441818268904113,14.489222144783321,3.8914580092211373
5.180476953322184,-1.3440392551820093,14.528136724875532,3.8937127773796942
5.167036560770364,-1.2497251613030096,14.56707385264933,3.8957499299656355
5.154539309157334,-1.1593778990870032,14.606031351948985,3.8966007331631674
5.142945530166464,-1.073377445006492,14.644997359280618,3.8955055022315372
5.132211755716399,-0.9919557503478321,14.683952414302933,3.8919410837225374
5.122292198212921,-0.9151885873366907,14.722871825140158,3.8856246513394166
5.113140312339554,-0.8430041361548916,14.761728071653552,3.8764957683519734
5.104710270978005,-0.7752045103338868,14.800493029337073,3.864682130763048
5.096958225874666,-0.7114950704309718,14.839139850644703,3.850456087626949
5.089843275170357,-0.651516350421521,14.877644411520972,3.834188908548985
5.083328111666142,-0.5948743794074579,14.915986300606463,3.8163083391138324
5.077379367872068,-0.5411666138586022,14.954149383997601,3.7972629680244094
5.071967701733482,-0.4900021402389968,14.992122013677845,3.777494953794201
5.067067680331092,-0.4410159689929222,15.029896963215787,3.7574211108245357
5.062657520641163,-0.3938780055826735,15.067471174324032,3.737421368310859
5.058718740585336,-0.3482976739241942,15.10484538800714,3.7178331443515886
5.055235763846094,-0.30402527200318485,15.142023719450656,3.6989500882817663
5.052195511126062,-0.2608510638969451,15.179013220333474,3.6810237880894534
5.049587000487092,-0.2186029467878542,15.215823458214368,3.6642672935289218
5.047400971019213,-0.1771433392107546,15.252466131149657,3.648859584596733
5.045629537627105,-0.13636575537068157,15.288954726995623,3.6349503707864224
5.044265880073398,-0.09619137782837868,15.325304230703487,3.6226648172517253
5.043303966295115,-0.05656582228541293,15.361530878876005,3.612107954969808
5.042738308072261,-0.01745620159313388,15.397651958425703,3.6033686476030518
5.04256374605633,0.021151463726630237,15.433685644901734,3.596523066185705
5.042775260693596,0.059254480204342104,15.469650875563591,3.5916376728321056
5.04336780549564,0.09683537692849484,15.505567252291913,3.5887717442864284
5.044336159264925,0.13386349048406987,15.541454969734778,3.587979481724491
5.0456747941697655,0.17029627394767474,15.577334764552022,3.589311759642241
5.047377756909242,0.20608036599382643,15.613227882148445,3.592817567433803
5.04943856056918,0.24115245487444778,15.649156057822783,3.5985451948020906
5.051850085117924,0.27543996924930136,15.685141509770803,3.6065432080701663
5.054604484810417,0.308861624369458,15.721206941851504,3.616861259799282
5.057693101054111,0.34132784844745107,15.757375554449498,3.629550769490961
5.061106379538586,0.3727411104798213,15.793671062144407,3.64466550890409
5.064833790643384,0.4029961674791962,15.830117717233447,3.6622621218244613
5.068863752318176,0.43198024609839336,15.866740338451692,3.6824006050420497
5.07318355477916,0.45957317101320977,15.903564344502112,3.7051447748102175
5.077779286489291,0.48564745017291144,15.940615792250213,3.7305627411292246
5.08263576099102,0.5100683251185891,15.977921419661506,3.7587274107366135
5.087736444242206,0.5326937930038927,16.015508693768872,3.7897170386042416
5.093063382172245,0.553374605738712,16.053405864154914,3.82361584692416
5.098597128229632,0.5719542508468912,16.091642022624157,3.860514729880534
5.104316670738101,0.5882689182526875,16.130247169922963,3.9005120617886737
5.110199359920628,0.6021474574069337,16.16925229054085,3.9437146252238637
5.1162208344946976,0.613411330123954,16.20868943679309,3.990238674278299
5.122354947795937,0.6218745665164811,16.24859182353587,4.0402111456803524
5.128573693461102,0.6273437349239349,16.288993934992675,4.0937710266282625
5.134847130810342,0.629617942369991,16.329931645258956,4.151070882026951
5.141143310234042,0.6284888907924776,16.371442354079225,4.212278534206093
5.147428199141967,0.6237410274184652,16.413565139421287,4.277578873438972
5.1536656094161515,0.6151518471740742,16.456340928155676,4.34717575518666
5.159817127887893,0.6024924337617596,16.499812685707543,4.421293906317013
5.165842052225511,0.5855283681057689,16.54402562477071,4.5001807122607875
5.171697335906568,0.5640211941566035,16.589027431893317,4.5841076823837525
5.1773375478481345,0.5377307210041556,16.634868508717155,4.673371280462174
5.182714855058176,0.5064185688780765,16.681602221521775,4.768292644738718
5.187779040746957,0.46985355174348514,16.72928514796916,4.869215484378486
5.192477576264392,0.42781975393475624,16.777977302812946,4.976501093812714
5.19675577380374,0.3801285332177394,16.827742313751074,5.090518929617186
5.200557059135917,0.32663620591639103,16.878647503047247,5.21163049015282
5.203823421195081,0.2672698831136471,16.930763807948775,5.3401632616000025
5.206496120026218,0.20206486328927292,16.984165440564777,5.4763701873822175
5.208516768659111,0.1312181376176333,17.038929142438597,5.620368471302412
5.209828950035288,0.055163808044690676,17.095132827151623,5.772049669866451
5.210380588115735,-0.02532282284691327,17.152853323850287,5.930951432056912
5.210127359887266,-0.10898595029461162,17.21216283817086,6.0960810563847145
5.209037500384319,-0.19391141721271704,17.273123648734707,6.265684642107547
5.207098386212192,-0.27731632514424437,17.33578049515578,6.436967265097786
5.20432522296075,-0.355332129462599,17.40015016780676,6.605795498311331
5.2007719016661245,-0.4228420917811023,17.466208122789872,6.766459611259986
