th1 (rad),w1 (rad/s),th2 (rad),w2 (rad/s),a1 (rad/s^2),a2 (rad/s^2)
5.733447088023636,1.3106169635366265,4.517967655625169,-1.9195011765850578,1.5330951580234797,10.692441653346572
5.746553257659003,1.3259479151168614,4.4987726438593185,-1.812576760051592,1.7562632421228357,10.686977091400497
5.759812736810171,1.3435105475380897,4.4806468762588025,-1.7057069891375871,1.9663729510636625,10.701469881123757
5.773247842285552,1.3631742770487263,4.463589806367427,-1.5986922903263496,2.1632375553447383,10.734984321579445
5.786879585056039,1.3848066526021736,4.447602883464163,-1.4913424471105552,2.346665480664746,10.786520076280611
5.8007276515820605,1.4082733074088212,4.432689458993058,-1.3834772463477492,2.516437739036834,10.85502419472416
5.814810384656148,1.4334376847991894,4.41885468652958,-1.2749270044005074,2.6722913542899613,10.9393963411604
5.82914476150414,1.4601605983420891,4.406105416485575,-1.1655330409889035,2.8139073046626097,11.03848932889319
5.843746367487561,1.488299671388715,4.394450086075686,-1.0551481476999716,2.940901937055579,11.151106531152958
5.858629364201448,1.517708690759271,4.383898604598686,-0.943637082388442,3.052821129190305,11.275997361817344
5.873806451109041,1.548236902051174,4.374462233774802,-0.8308771087702685,3.1491367150949316,11.41185175123775
5.889288820129552,1.5797282692021233,4.366153462687099,-0.7167585912578911,3.2292448666695726,11.557294354146542
5.905086102821573,1.612020717868819,4.35898587677452,-0.6011856477164257,3.292466254728317,11.710879095490371
5.921206310000262,1.6449453804161023,4.352974020297356,-0.48407685676152196,3.338047907846071,11.871084569060011
5.937655763804423,1.678325859494563,4.348133251729741,-0.3653660110709218,3.3651667543743047,12.036310740099177
5.954439022399368,1.711977527038306,4.344479591619032,-0.24500290366993005,3.372934877631513,12.20487735685872
5.9715587976697515,1.745706875814621,4.342029562582333,-0.12295413010134285,3.360406540345513,12.375024439772044
5.989015866427898,1.779310941218076,4.34080002128132,0.0007961142963776036,3.326587044568928,12.544915184735705
6.0068089758400784,1.8125768116637653,4.340807982424283,0.12624526614373466,3.2704434893565666,12.712641584406624
6.024934743956716,1.845281246557331,4.342070435085721,0.2533716819878009,3.19091747183555,12.876233035098894
6.043387556422289,1.8771904212756865,4.344604151905599,0.38213401233878985,3.0869397489956016,13.033668154354467
6.062159460635046,1.9080598187656426,4.348425492028986,0.5124706938823345,2.957446838549289,13.182889983997127
6.0812400588227025,1.9376342871511354,4.35355019896781,0.6442995937223057,2.8013994885358144,13.321824694657227
6.1006164016942135,1.9656482820364936,4.359993194905033,0.777517840668878,2.6178028880100768,13.448403840276287
6.120272884514579,1.9918263109165943,4.367768373311722,0.9120018790716409,2.4057284263063528,13.560590135480656
6.140191147623745,2.015883595179658,4.376888392102439,1.0476077804264474,2.1643367372106685,13.656406645975563
6.160349983575542,2.0375269625517647,4.387364469906703,1.184171846886203,1.892901688190587,13.733969193657067
6.18072525320106,2.0564559794336708,4.399206188375564,1.3215115388227736,1.5908348949148363,13.791521685617752
6.201289812995396,2.072364328382819,4.412421303763792,1.459426755678951,1.2577102589616849,13.827473981404648
6.222013456279225,2.0849414309724357,4.427015571320582,1.5977014954929976,0.8932879432237422,13.840441817597755
6.242862870588949,2.093874310404673,4.442992586275512,1.7361059136689752,0.4975371165622882,13.829288214888805
6.263801613692996,2.098849681570296,4.4603536454122015,1.8743987958178632,0.07065671853385767,13.793165702386332
6.284790110508699,2.099556248755635,4.4790976333703805,2.0123304528417263,-0.38690658118931615,13.731558609277393
6.305785672996255,2.095687182943742,4.499220937898798,2.1496460389345002,-0.8744441226709712,13.644324598390508
6.326742544825692,2.086942741717032,4.520717398288143,2.2860892849184054,-1.3909756456565483,13.531734553932113
6.347611972242863,2.0730329852604665,4.543578291137328,2.4214066304577266,-1.9352453202344777,13.394509892586534
6.368342302095467,2.053680532058122,4.567792357441905,2.555351729383592,-2.505724425043267,13.233856351058284
6.388879107416049,2.0286232878076893,4.593345874735741,2.687690292894175,-3.1006216649844496,13.05149332378392
6.409165340294126,1.9976170711578447,4.620222777664683,2.8182052261320143,-3.717902066606308,12.849677893510169
6.429141511005705,1.9604380504917815,4.648404829926003,2.9467020050671158,-4.355315289368072,12.63122282736916
6.448745891510622,1.9168848975981008,4.677871849976674,3.0730142333408073,-5.010434039569033,12.399508014530904
6.467914740486603,1.8667805572024103,4.708601992310082,3.197009313486116,-5.6807030689940765,12.158485109297697
6.486582546058627,1.8099735265124695,4.740572085444943,3.318594164579093,-6.363498985489949,11.912675522758478
6.504682281323752,1.7463385366575699,4.773758027090734,3.437720919806678,-7.056200807278554,11.667162378239999
6.522145666690327,1.6757765285847843,4.808135236288801,3.554392543589078,-7.756270873339276,11.42757760457353
6.538903431976175,1.5982138198513915,4.843679161724692,3.6686683196348135,-8.461345401722967,11.200085971444416
6.554885570174689,1.513600365834162,4.88036584492104,3.7806691793492577,-9.169333693990636,10.991368547830753
6.5700215738330305,1.4219070288942555,4.918172536714533,3.8905828648275653,-9.878524745992442,10.808608752730866
6.584240644121973,1.323121781434331,4.9570783653628085,3.998668952354874,-10.587699867145629,10.65948482158138
6.597471861936317,1.2172447827628747,4.997065054886357,4.105263800570688,-11.296249843454124,10.55217307446025
6.6096443097639455,1.1042822843283335,5.0381176928920635,4.21078553131529,-12.004295190188468,10.495366768498595
6.6206871326072285,0.9842393324264489,5.080225548205217,4.315739199000276,-12.712808073188384,10.498315442005651
6.630529525931493,0.857111251694565,5.12338294019522,4.420722353420332,-13.42373441072232,10.57088935021351
6.639100638448439,0.7228739075873418,5.1675901637294235,4.526431246922467,-14.140114270129105,10.723672583318068
6.646329377524313,0.5814727648860507,5.212854476198648,4.633667972755648,-14.866197537323707,10.968086276454473
6.652144105173173,0.4328107895128136,5.259191155926204,4.743348835520193,-15.607549257933533,11.316539128765713
6.656472213068302,0.27673529693347826,5.306624644281406,4.85651422680785,-16.371133813169113,11.782594736720041
6.659239566037637,0.11302395880178712,5.355189786549484,4.97434017417505,-17.16535710514385,12.381131309582596
6.660369805625654,-0.05862961224965141,5.404933188291235,5.098151487270876,-18.00002754324646,13.128444335407945
6.659783509503158,-0.23862988768211602,5.455914703163944,5.229435930624955,-18.88616349811754,14.042198100097615
6.657397210626336,-0.4274915226632914,5.508209062470193,5.369857911625932,-19.835515979912515,15.14105244051132
6.653122295399704,-0.6258466824624165,5.561907641586453,5.521268436031045,-20.85957157715927,16.443650270896942
6.646863828575079,-0.8344423982340092,5.617120325946764,5.685704938740015,-21.967620141532265,17.966404276760226
6.638519404592739,-1.0541185996493319,5.673977375334164,5.8653689815076175,-23.16316302944455,19.719094875066713
6.627978218596246,-1.2857502299437773,5.732631065149239,6.062559930258285,-24.43742718452101,21.69657967875828
6.615120716296808,-1.5301245017889875,5.793256664451822,6.2795257270458675,-25.75795947701901,23.863799270613132
6.599819471278918,-1.7877040965591777,5.856051921722281,6.518163719751999,-27.04921674233758,26.129743599801163
6.581942430313326,-2.0581962639825537,5.9212335589198,6.779461155750011,-28.16117236977282,28.30468427050099
6.5613604676735005,-2.339807987680282,5.9890281704773,7.06250799845502,-28.822993646805767,30.03617687961617
6.537962387796697,-2.6280379241483396,6.05965325046185,7.362869767251182,-28.586844609553314,30.730040688175038
6.511682008555214,-2.913906370243873,6.133281948134362,7.670170174132932,-26.79230340075974,29.497300366852706
6.482542944852775,-3.18182940425147,6.209983649875691,7.965143177801459,-22.635120393843863,25.24164495886333
6.45072465081026,-3.408180608189909,6.289635081653706,8.217559627390093,-15.477933531329906,17.07742011911763
6.4166428447283606,-3.5629599435032078,6.3718106779276065,8.388333828581269,-5.452425896614396,5.14849476464782
6.381013245293328,-3.6174842024693517,6.455694016213419,8.439818776227748,6.017917962482547,-8.659735598140264
6.344838403268635,-3.557305022844526,6.540092203975696,8.353221420246346,16.558043475787304,-21.18865261983822
6.309265353040189,-3.391724588086653,6.62362441817816,8.141334894047963,24.167523543768656,-29.812472538655978
6.2753481071593225,-3.1500493526489666,6.70503776711864,7.843210168661404,28.278619035175854,-33.85430609765223
6.243847613632833,-2.867263162297208,6.783469868805254,7.504667107684882,29.561232703128884,-34.28563254969614
6.215174982009861,-2.571650835265919,6.858516539882102,7.161810782187921,29.077416409210734,-32.56420979334496
6.189458473657202,-2.2808766711738118,6.930134647703982,6.836168684254471,27.70460856357707,-29.863856551499833
6.1666497069454635,-2.003830585538041,6.998496334546527,6.537530118739472,25.995342445872055,-26.90356728430293
6.146611401090083,-1.7438771610793204,7.063871635733921,6.268494445896443,24.24457754889986,-24.052017658120466
6.12917262947929,-1.5014313855903219,7.126556580192886,6.027974269315238,22.588813672198615,-21.46771674510435
6.114158315623387,-1.2755432488683356,7.186836322886038,5.813297101864195,21.078896167083506,-19.199030093832643
6.101402883134703,-1.0647542871975004,7.24496929390468,5.621306800925868,19.723284160838737,-17.242261023093317
6.090755340262728,-0.867521445589113,7.301182361913939,5.448884190694935,18.51132381704492,-15.572080718542512
6.082080125806836,-0.6824082074186638,7.355671203820888,5.29316338350951,17.42504439459143,-14.156408997635154
6.07525604373265,-0.5081577634727494,7.408602837655983,5.151599293533159,16.44484573727641,-12.963195211606804
6.070174466097923,-0.34370930609998535,7.460118830591314,5.02196734141709,15.552067809510442,-11.963173131164872
6.066737373036923,-0.18818862800488093,7.510338504005485,4.902335610105442,14.730017434319763,-11.130696447145649
6.0648554867568745,-0.04088845366168331,7.55936186010654,4.791028645633985,13.964257866105811,-10.443710161877283
6.064446602220258,0.0987541249993748,7.607272146562879,4.686591544015212,13.242565102156687,-9.883373527738444
6.0654341434702514,0.23117977602094167,7.654138062003032,4.587757808737828,12.55474919125315,-9.433579117306072
6.067745941230461,0.3567272679334732,7.70001564009041,4.493422017564767,11.892434732423924,-9.080478468729321
6.071313213909796,0.47565161525771243,7.744949860266058,4.402617232877474,11.248842676188136,-8.812059441454153
6.076069730062373,0.5881400420195938,7.7889760325948325,4.314496638462932,10.618589929719644,-8.61778939606549
6.081951130482569,0.6943259413167903,7.832120998979462,4.228318744502277,9.997511092734637,-8.488324204204172
6.088894389895737,0.7943010522441366,7.874404186424484,4.143435502460235,9.382501261439048,-8.415277202872469
6.0968374004181785,0.8881260648585271,7.915838541449086,4.0592827304315104,8.771376834043469,-8.391040201431554
6.1057186610667635,0.9758398331989617,7.956431368753401,3.975372328417195,8.162750891360831,-8.408648395816959
6.115477059398753,1.05746734211257,7.996185092037574,3.8912858444590253,7.555920115335994,-8.461681514424583
6.126051732819879,1.1330265432659299,8.035097950482164,3.8066690293147794,6.9507608870626445,-8.544194238332668
6.137381998252538,1.2025341521365562,8.073164640775312,3.7212270869314525,6.347632938055773,-8.65066970262769
6.149407339773903,1.266010481517114,8.110376911644627,3.6347203899051754,5.747289595260733,-8.775990623440535
6.162067444589074,1.3234833774697214,8.146724115543678,3.54696048367077,5.1507942048813815,-8.91542329218323
6.175302278363771,1.3749913195185353,8.182193720380386,3.4578062507489378,4.559442720776105,-9.064610340528043
6.1890521915589565,1.4205857467262963,8.216771782887875,3.3671601473436574,3.9746926987016025,-9.219568816123754
6.2032580490262195,1.4603326737133124,8.250443384361311,3.27496445918242,3.3980990598460488,-9.376690724672976
6.217861375763353,1.494313664311773,8.283193028953136,3.18119755193569,2.8312569959462306,-9.532743787013516
6.232804512406471,1.5226262342712353,8.315005004472493,3.085870114065555,2.275752308789058,-9.684870722696553
6.248030774749183,1.5453837573591258,8.345863705613148,2.9890214068385896,1.7331193360954138,-9.830585893062366
6.263484612322774,1.56271495072008,8.375753919681534,2.890715547907966,1.204806440325577,-9.967768604763931
6.2791117618299745,1.5747630151233356,8.404661075160615,2.7910378618603264,0.6921488510322241,-10.094652778191309
6.294859391981208,1.5816845036336578,8.432571453779218,2.690091334078413,0.19634847521015783,-10.209813016549786
6.310676237017545,1.5836479883857593,8.459472367120002,2.5879932039129154,-0.2815398611340979,-10.312147366885966
6.326512716901402,1.5808325897744182,8.48535229915913,2.484871730244056,-0.7406163933614319,-10.400857245093245
6.3423210427991465,1.573426425840804,8.51020101646157,2.3808631577931236,-1.1801393504921964,-10.475425107984906
6.358055307057555,1.561625032335882,8.534009648039502,2.2761089067132745,-1.5995236062821632,-10.535590505372411
6.373671557380914,1.5456297962730603,8.556770737106635,2.17075300165955,-1.9983358162011693,-10.581325144453656
6.389127855343644,1.5256464381110486,8.57847826712323,2.0649397502150135,-2.3762867766921376,-10.61280755950668
6.4043843197247545,1.5018835703441273,8.599127664625382,1.9588116746199467,-2.733221688398654,-10.630397913696404
6.419403155428196,1.4745513534601409,8.61871578137158,1.8525076954829827,-3.0691089338709867,-10.634613377635382
6.434148668962797,1.443860264121431,8.637240858326411,1.7461615617066288,-3.38402789971308,-10.626104440564106
6.448587271604011,1.4100199851243003,8.654702473943477,1.6399005173009877,-3.6781562894599302,-10.605632422113624
6.462687471455254,1.373238422229701,8.671101479116487,1.5338441930798514,-3.951757291728175,-10.574048371059218
6.476419855677551,1.333720849312419,8.686439921047286,1.4281037093692592,-4.20516689209938,-10.532273465831079
6.489757064170675,1.2916691803914253,8.700720958140979,1.3227809747109485,-4.438781549230876,-10.481280971689173
6.502673755974589,1.2472813648991166,8.713948767888088,1.2179681649940568,-4.653046397153257,-10.422079761895748
6.515146569623581,1.200750900927584,8.726128449538027,1.1137473673750993,-4.848444086976178,-10.35569937440049
6.527154078632857,1.1522664600578223,8.737265923211778,1.0101903736310944,-5.02548434194062,-10.283176550269287
6.538676743233435,1.1020116166384162,8.74736782694809,0.9073586081284015,-5.184694269093154,-10.205543183725045
6.54969685939982,1.0501646739474846,8.756441413029373,0.8053031762911511,-5.32660944769667,-10.123815604469353
6.560198506139295,0.9968985794705179,8.764494444792284,0.7040650202464576,-5.451765797592969,-10.038985109200272
6.570167491934,0.9423809214945882,8.771535094994748,0.6036751691544548,-5.560692218863766,-9.952009659386487
6.5795913011489455,0.8867739993059506,8.777571846686293,0.50415507256059,-5.653903986162379,-9.863806665097997
6.588459041142005,0.8302349594443268,8.782613397411899,0.40551700590961004,-5.731896876023036,-9.775246778999778
6.596761390736448,0.7729159906840964,8.786668567470995,0.30776453811961224,-5.795142002486294,-9.687148629733095
6.604490550643289,0.7149645706592335,8.789746212852192,0.2108930518222813,-5.8440813348733025,-9.600274429332115
6.611640196349882,0.6565237573105005,8.791855143370414,0.11489030752896014,-5.879123871026456,-9.515326394753558
6.618205433922987,0.5977325186002359,8.793004046445704,0.019737043581424557,-5.900642439478135,-9.432943928900022
6.624182759108989,0.5387260942054546,8.793201416881518,-0.07459239570757566,-5.90897110459349,-9.353701511676057
6.629570020051044,0.4796363831595197,8.792455492924441,-0.16812941082433625,-5.904403149621423,-9.27810725668767
6.6343663838826386,0.42059235166330544,8.790774198816198,-0.2609104833912129,-5.8871896136990225,-9.206602094276096
6.638572307399271,0.3617204555263152,8.788165093982286,-0.3529765043339739,-5.857538360140099,-9.139559546768943
6.642189511954534,0.30314507192491424,8.784635328938947,-0.4443720998016633,-5.81561365475987,-9.07728606722675
6.6452209626737835,0.24498893537731553,8.78019160794093,-0.5351449604739308,-5.761536234503494,-9.020021918621909
6.647670852027557,0.18737357303228058,8.774840158336191,-0.6253451796601499,-5.695383848199296,-8.967942576334275
6.649544587757879,0.1304197345502876,8.76858670653959,-0.7150246054234927,-5.6171922527683495,-8.921160643065955
6.650848785103382,0.07424781202260411,8.761436460485356,-0.8042362118541522,-5.526956649584948,-8.879728271708332
6.651591263223608,0.01897824552675463,8.753394098366815,-0.8930334945712355,-5.424633546763534,-8.843640098239055
6.6517810456788755,-0.03526808994088071,8.744463763421104,-0.9814698955536261,-5.310143033787109,-8.812836693253596
6.651428364779466,-0.0883695202787518,8.734649064465568,-1.069598262486162,-5.183371454904968,-8.787208547083903
6.650544669576679,-0.1402032348278015,8.723953081840707,-1.157470347957001,-5.04417446691024,-8.766600609442879
6.6491426372284,-0.1906449794969039,8.712378378361137,-1.2451363540514298,-4.892380465040559,-8.750817409960037
6.647236187433431,-0.23956878414730948,8.699927014820624,-1.3326445281510302,-4.727794357601659,-8.739628790636903
6.644840499591957,-0.2868467277233261,8.686600569539113,-1.4200408160573992,-4.550201665265942,-8.732776284948569
6.641972032314724,-0.3323487443759855,8.672400161378539,-1.507368578906885,-4.359372914627339,-8.729980180862386
6.638648544870964,-0.3759424735222589,8.65732647558947,-1.5946683807155089,-4.155068287299726,-8.730947306272803
6.634889120135742,-0.4174931563952562,8.641379791782315,-1.6819778537782368,-3.9370424754598865,-8.735379575139985
6.630714188571789,-0.45686358114985504,8.624560013244533,-1.7693316495296367,-3.705049682131129,-8.742983330903343
6.62614555276029,-0.4939140779711663,8.606866696749236,-1.85676148283867,-3.4588486896129806,-8.753479520530037
6.6212064119805785,-0.5285025648672961,8.58829908192085,-1.9442962780439703,-3.1982079022899454,-8.766614727963079
6.615921386331905,-0.5604846438901956,8.56885611914041,-2.0319624253236013,-2.9229102506902556,-8.782173089987294
6.610316539893003,-0.5897137463970982,8.548536494887173,-2.1197841562234743,-2.632757822305636,-8.799989111017588
6.604419402429032,-0.6160413246201545,8.52733865332494,-2.20778404733365,-2.327576061628111,-8.819961386590988
6.598258989182831,-0.6393170852364356,8.505260812851603,-2.29598366119956,-2.0072173575310575,-8.842067239170436
6.591865818330467,-0.6593892588117461,8.482300976239607,-2.3844043335912644,-1.6715638110579372,-8.866378265220606
6.585271925742349,-0.6761048969223256,8.458456932903694,-2.4730681162434704,-1.3205289515358527,-8.893076790601729
6.578510876773126,-0.689310186437684,8.433726251741259,-2.561998884149488,-0.9540581444541105,-8.922473233582505
6.5716177749087485,-0.6988507678822251,8.408106262899764,-2.651223616485313,-0.5721274115704089,-8.955024382845949
6.564629267229926,-0.7045720419979292,8.381594026734911,-2.7407738603137726,-0.17474036311427862,-8.991352613569074
6.557583546809947,-0.706319445629072,8.354186288131773,-2.8306873864494633,0.2380770753351328,-9.032266089910275
6.550520352353656,-0.7039386748757207,8.325879414267279,-2.921010047348566,0.6662844717729062,-9.078780038922535
6.543480965604899,-0.6972758301579917,8.296669313793792,-3.011797847737791,1.1098375707993322,-9.1321392307029
6.536508207303319,-0.6861774544499983,8.266551335316414,-3.10311924004482,1.5687021905530203,-9.193841863681419
6.529646432758819,-0.6704904325444682,8.235520142915966,-3.1950576586816344,2.0428716670447917,-9.26566513263893
