th1 (rad),w1 (rad/s),th2 (rad),w2 (rad/s),a1 (rad/s^2),a2 (rad/s^2)
3.4361462951240362,1.520983540583033,1.1149926023907988,3.088264944783026,-3.995057713314106,-9.831605695117657
3.4513561305298666,1.481032963449892,1.145875251838629,2.9899488878318494,-3.5812131787225483,-9.701536886421742
3.4661664601643656,1.4452208316626665,1.1757747407169474,2.892933518967632,-3.1743967777367477,-9.566641615041426
3.480618668480992,1.413476863885299,1.2047040759066237,2.797267102817218,-2.775456566189469,-9.42794290359817
3.494753437119845,1.3857222982234043,1.232676746934796,2.7029876737812364,-2.3850654090138823,-9.286261009497803
3.5086106601020792,1.3618716441332654,1.2597066236726082,2.6101250636862585,-2.003737450704473,-9.142227297389407
3.522229376543412,1.3418342696262207,1.2858078743094707,2.5187027907123642,-1.6318443306907489,-8.996299144709187
3.535647719239674,1.3255158263193132,1.3109949022165943,2.4287397992652724,-1.2696306781903326,-8.848775268737496
3.5489028775028673,1.31281951953741,1.335282300209247,2.3402520465778975,-0.9172285552126336,-8.699810994768283
3.5620310726982414,1.3036472339852836,1.3586848206750262,2.2532539366302147,-0.5746706295326963,-8.549433098928763
3.5750675450380944,1.2979005276899567,1.3812173600413282,2.167759605640927,-0.24190195222051689,-8.397553955242552
3.588046550314994,1.2954815081677515,1.4028949560977375,2.0837840660885014,0.08120971174923236,-8.243984795336264
3.6010013653966713,1.2962936052852438,1.4237327967586226,2.001344218135139,0.3948649940609122,-8.088447952206442
3.6139643014495237,1.300242255225853,1.443746238939974,1.9204597386130744,0.699325426204472,-7.930588008615845
3.6269667240017824,1.3072355094878978,1.4629508363261048,1.841153858526916,0.994907255792034,-7.769981808104797
3.6400390790966615,1.3171845820458181,1.481362374911374,1.763454040445868,1.2819764756031073,-7.606147314434152
3.65321092491712,1.3300043468018492,1.4989969153158327,1.6873925673015266,1.560944951659255,-7.438551325574847
3.6665109683851385,1.3456137963184418,1.515870840988848,1.6130070540457782,1.832267529358508,-7.266616063012784
3.679967106348323,1.3639364716120268,1.5320009115293056,1.5403408934156504,2.0964399938743643,-7.089724667839097
3.6936064710644434,1.3849008715507705,1.5474043204634622,1.4694436467372594,2.3539977613267467,-6.907225643335826
3.7074554797799513,1.408440849164038,1.5620987569308349,1.400371390303901,2.605515179539468,-6.718436290848733
3.7215398882715918,1.4344960009594325,1.576102470833874,1.3331870273954136,2.851605320547217,-6.5226451928025115
3.735884848281186,1.4630120541649048,1.5894343411078282,1.2679605754673884,3.092920150562651,-6.3191138047676425
3.750514968822835,1.4939412556705314,1.602113946862502,1.204769437419712,3.3301509661041053,-6.107077228446374
3.7654543813795405,1.5272427653315723,1.6141616412366993,1.1436986651352483,3.564028986711065,-5.885744250164251
3.7807268090328563,1.562883055198683,1.6255986278880517,1.0848412226336057,3.795325994453997,-5.654296745771506
3.796355639584843,1.600836315143223,1.6364470401143878,1.0282982551758906,4.0248549075884394,-5.411888573632642
3.8123640027362753,1.6410848642191074,1.6467300226661468,0.9741793694395642,4.253470169497898,-5.1576441035235865
3.8287748513784665,1.6836195659140865,1.6564718163605423,0.9226029284043283,4.482067823764839,-4.890656561760072
3.8456110470376075,1.7284402441517348,1.6656978456445857,0.8736963627867276,4.711585131008713,-4.609986412851024
3.862895449479125,1.775556095461822,1.674434809272453,0.8275964986582174,4.942999562199367,-4.314660046629134
3.880651010433743,1.8249860910838156,1.6827107742590353,0.784449898191926,5.177326975635319,-4.003669098492053
3.898900871344581,1.8767593608401687,1.6905552732409546,0.7444132072070054,5.415618749824928,-3.675970800505103
3.9176684649529827,1.930915548338418,1.6979994053130245,0.7076534992019544,5.658957601353116,-3.3304898440938717
3.936977620436367,1.987505124351949,1.705075940305044,0.6743486007610157,5.9084517648530035,-2.9661223321992574
3.9568526716798864,2.046589642000479,1.711819426312654,0.644687377439023,6.165227151131947,-2.58174251107487
3.977318568099891,2.1082419135117982,1.7182663000870442,0.6188699523282744,6.430417029526168,-2.1762130997666103
3.998400987235009,2.17254608380706,1.7244549996103269,0.5971078213306082,6.705148702646774,-1.7484001780908631
4.020126448073079,2.239597570833528,1.730426077823633,0.5796238195496997,6.990526557924834,-1.2971937493842818
4.042522423781414,2.309502836412776,1.73622231601913,0.5666518820558568,7.287610794434764,-0.8215352578327907
4.065617452145542,2.3823789443571237,1.7418888348396884,0.5584365294775289,7.59739104118421,-0.32045350386290555
4.089441241589113,2.458352854768966,1.7474732001344637,0.5552319944388998,7.920754013015369,0.20688944756485772
4.114024770136803,2.5375603948991197,1.7530255200788527,0.5573008889145484,8.258444304598557,0.7611406502321465
4.1394003740857945,2.620144837945105,1.7585985289679982,0.5649122954168699,8.611017418078971,1.3426851716556645
4.165601822465246,2.706255012125895,1.7642476519221668,0.5783391471334266,8.978784176923178,1.9515597463906134
4.1926643725865045,2.796042853895127,1.7700310433935011,0.5978547445973328,9.361745823565066,2.5873495955275922
4.220624801125456,2.889660312130778,1.7760095908394744,0.6237282405526087,9.759519362257578,3.2490671701884595
4.249521404246764,2.9872555057533536,1.7822468732450005,0.6562189122544932,10.171253124735602,3.935012177368997
4.279393959304297,3.0889680370007095,1.7888090623675454,0.6955690340281833,10.595533138292167,4.64261316383474
4.310283639674304,3.1949233683836313,1.7957647527078273,0.7419951656665307,11.030281691516862,5.368252230920076
4.342232873358141,3.3052261852988,1.8031847043644926,0.7956776879757315,11.472650536661765,6.107076177935803
4.375285135211128,3.4199526906654176,1.81114148124425,0.8567484497550895,11.918912429892549,6.852799540632706
4.409484662117783,3.539141814964343,1.8197089657418009,0.9252764451614165,12.36435614569267,7.597507567058878
4.444876080267426,3.6627853764212697,1.8289617301934151,1.0012515208320052,12.803191614536802,8.331470042972745
4.481503934031639,3.7908172925666377,1.8389742454017353,1.0845662212617326,13.228473270111309,9.042979831517423
4.519412106957305,3.9231020252677506,1.8498199076143527,1.174996019576907,13.6320508399475,9.718232705636915
4.558643127209983,4.059422533667226,1.8615698678101218,1.2721783466332761,14.00455740939384,10.34126710172744
4.599237352546655,4.199468107761164,1.8742916512764545,1.3755910176505506,14.335444355693415,10.893983317286663
4.641232033624267,4.342822551318098,1.88804756145296,1.4845308508234172,14.61307144908563,11.356260929500348
4.684660259137448,4.488953265808954,1.902892869961194,1.5980934601184207,14.824857931475249,11.706190462572199
4.729549791795538,4.637201845123706,1.918873804562378,1.7151553647441427,14.957496795581338,11.920430476896605
4.775921810246775,4.78677681307952,1.9360253582098195,1.8343596695131088,14.997230164121826,11.974694587399494
4.82378957837757,4.9367491147207385,1.9543689549049506,1.9541066153871038,14.930179286327846,11.84436521710615
4.873157069524778,5.086050907584017,1.9739100210588216,2.0725502675581655,14.742719168904951,11.50522338853198
4.924017578600618,5.233478099273067,1.9946355237344033,2.1876025014434854,14.421886296004088,10.934278062378514
4.976352359593349,5.377696962233108,2.0165115487488383,2.2969452820672704,13.955809185139653,10.110675892537031
5.03012932921568,5.5172550540845045,2.039481001569511,2.3980520409926407,13.334156128966342,9.016673665108241
5.085301879756525,5.650596615374168,2.0634615219794377,2.488218777643723,12.548602051311496,7.638660929096817
5.141807845910266,5.776082635887283,2.088343709755875,2.564605386934691,11.593325582310388,5.96822768971492
5.199568672269139,5.892015891710387,2.113989763625222,2.6242876638318404,10.46555571761121,4.003278093041564
5.258488831186243,5.9966714488865,2.14023264026354,2.664320444762256,9.166191242697147,1.7491908325388301
5.318455545675108,6.088333361313471,2.1668758447111625,2.6818123530876443,7.700511317898831,-0.7799852438008101
5.379338879288243,6.16533847449246,2.193693968242039,2.6740125006496362,6.078978137018454,-3.5603415505442277
5.440992264033167,6.226128255862644,2.2204340932485356,2.638409085144194,4.3180994354105495,-6.5570176994955105
5.503253546591794,6.269309250216749,2.2468181840999777,2.572838908149239,2.441269560040221,-9.723367577381872
5.565946639093961,6.293721945817151,2.27254657318147,2.47560523237542,0.47944723333552386,-13.000622747214265
5.628883858552133,6.2985164181505064,2.2973026255052242,2.3455990049032773,-1.528532791456653,-16.318360642289
5.691869022733638,6.28323109023594,2.320758615554257,2.182415398480387,-3.5362592046270174,-19.596112702645918
5.754701333635997,6.24786849818967,2.342582769539061,1.986454271453928,-5.490897808768667,-22.74639792475914
5.8171800186178935,6.192959520101984,2.3624473122536003,1.7589902922063365,-7.335370613072575,-25.6793083506358
5.879109613818914,6.119605813971258,2.3800372151756637,1.5021972086999784,-9.011575496324395,-28.308496002751124
5.940305671958626,6.0294900590080145,2.3950591872626634,1.219112248672467,-10.46443263346094,-30.55804988211861
6.000600572548707,5.924845732673405,2.4072503097493883,0.9135317498512809,-11.64628938265633,-32.3693939816611
6.059849029875441,5.808382838846842,2.416385627247901,0.58983781003467,-12.521014383620928,-33.707108590862525
6.117932858263909,5.683172695010632,2.422284005348248,0.2527667241260447,-13.06705038882025,-34.562597610755525
6.174764585214016,5.5525021911224295,2.4248116725895086,-0.09285925198151057,-13.27882725913945,-34.95484750734158
6.23028960712524,5.419713918531035,2.4238830800696936,-0.4424077270549264,-13.166247200652275,-34.92809045590328
6.2844867463105505,5.288051446524512,2.4194590027991443,-0.7916886316139593,-12.752355412952229,-34.54683061534913
6.337367260775796,5.16052789239499,2.411542116483005,-1.1371569377674506,-12.069672005487858,-33.88921223842558
6.388972539699746,5.0398311723401115,2.4001705471053305,-1.4760490601517064,-11.155873112792781,-33.03994555209342
6.439370851423147,4.928272441212184,2.3854100565038134,-1.8064485156726406,-10.049523089827435,-32.0839208544007
6.4886535758352695,4.82777721031391,2.3673455713470872,-2.1272877242166475,-8.786404628490113,-31.101311896558144
6.536931347938409,4.739913164029009,2.3460726941049206,-2.438300843182229,-7.396749413080479,-30.164541049415682
6.584330479578699,4.665945669898204,2.3216896856730984,-2.7399462536763854,-5.903426231502967,-29.33709060322129
6.630989936277681,4.6069114075831745,2.2942902231363345,-3.0333171597085986,-4.320957945146888,-28.673882119871504
6.677059050353512,4.563701828131705,2.2639570515392484,-3.3200559809073136,-2.655137157215365,-28.22282851728798
6.722696068634829,4.5371504565595515,2.230756491730175,-3.6022842660801935,-0.9029863550616015,-28.027162215386227
6.768067573200425,4.528120593008936,2.194733649069373,-3.8825558882340556,0.947158220854494,-28.12820501964725
6.813348779130514,4.537592175217481,2.1559080901870327,-4.163837938430528,2.9155855545534606,-28.56831485093847
6.858724700882689,4.566748030763015,2.1142697108027275,-4.449521086939913,5.031203503705256,-29.39376316506903
6.904392181190319,4.617060065800067,2.0697744999333283,-4.743458718590603,7.331432827777604,-30.65719095119121
6.95056278184832,4.6903743940778435,2.022339912747422,-5.050030628102515,9.861503773199178,-32.41893129231704
6.997466525789099,4.788989431809835,1.971839606466397,-5.374219941025686,12.671963545299255,-34.745607864836046
7.045356420107197,4.915709067262828,1.91809740705614,-5.721676019674046,15.811750842129467,-37.70246243567737
7.094513510779826,5.073826575684122,1.8608806468593997,-6.09870064403082,19.311155165624054,-41.331683539515176
7.145251776536667,5.266938127340363,1.7998936404190915,-6.512017479425971,23.142812138159282,-45.60044671316738
7.197921157810071,5.498366248721956,1.7347734656248317,-6.968021946557645,27.13736199250465,-50.286278289128376
7.2529048202972906,5.769739868647003,1.6650932461592554,-7.470884729448929,30.813290325407344,-54.743267662286605
7.31060221898376,6.0778727719010766,1.5903843988647661,-8.018317406071795,33.074259742192105,-57.48329138613409
7.371380946702771,6.408615369322997,1.5102012248040482,-8.593150319933136,31.816056281208336,-55.62886783526192
7.435467100396001,6.72677593213508,1.4242697216047169,-9.149438998285754,23.90334675871962,-44.875752680166784
7.502734859717352,6.965809399722277,1.3327753316218593,-9.598196525087422,6.828103247162467,-21.790351697675778
7.572392953714575,7.034090432193901,1.2367933663709851,-9.81610004206418,-17.171948778034782,10.482126384531187
7.642733858036514,6.862370944413553,1.1386323659503432,-9.711278778218869,-39.32681271679842,39.79105391189101
7.711357567480649,6.4691028172455685,1.0415195781681545,-9.313368239099958,-51.559147096874554,55.074742419058104
7.776048595653104,5.953511346276823,0.9483858957771549,-8.762620814909377,-53.77744342016353,56.39798525141411
7.835583709115872,5.415736912075188,0.8607596876280612,-8.198640962395237,-50.577770590102986,50.230192354616754
7.889741078236624,4.9099592061741575,0.7787732780041088,-7.696339038849069,-45.75068835863464,41.82093874426949
7.938840670298366,4.452452322587811,0.7018098876156181,-7.278129651406374,-41.092063111121675,33.616601621485415
7.983365193524244,4.041531691476594,0.6290285911015544,-6.94196363519152,-37.18967227203547,26.389362239966804
8.02378051043901,3.6696349687562395,0.5596089547496392,-6.678070012791852,-34.12694801877889,20.22229958338389
8.060476860126572,3.3283654885684504,0.4928282546217207,-6.475847016958013,-31.82156278978966,14.97798526198
8.093760515012256,3.0101498606705537,0.42806978445214056,-6.3260671643382125,-30.15610920354062,10.47735100986251
8.123862013618963,2.7085887686351473,0.36480911280875844,-6.221293654239587,-29.02118226199425,6.557874529737825
8.150947901305313,2.4183769460152047,0.3025961762663626,-6.155714908942209,-28.3258444567516,3.0875310354842975
8.175131670765465,2.1351185014476886,0.2410390271769405,-6.124839598587366,-27.997059376218235,-0.03573913225743049
8.196482855779943,1.8551479076855062,0.17979063119106684,-6.1251969899099405,-27.97598053490753,-2.888283753278246
8.215034334856798,1.575388102336431,0.11853866129196743,-6.154079827442723,-28.21378023998387,-5.525104058972139
8.230788215880162,1.2932502999365922,0.0569978630175402,-6.209330868032444,-28.667812276293162,-7.983312997180208
8.243720718879528,1.0065721771736607,-0.005095445662784234,-6.289163998004246,-29.298257901734434,-10.284566469989777
8.253786440651265,0.7135895981563163,-0.0679870856428267,-6.392009662704144,-30.065224834154193,-12.436642095339302
8.260922336632827,0.41293734981477437,-0.13190718226986814,-6.516376083657537,-30.926262914693314,-14.434433630792931
8.265051710130974,0.10367472066784122,-0.19707094310644352,-6.660720419965466,-31.83432118739368,-16.260669037606156
8.266088457337652,-0.2146684912060956,-0.2636781473060982,-6.823327110341528,-32.7362586585598,-17.886694729695844
8.263941772425591,-0.5420310777916936,-0.33191141840951344,-7.002194057638486,-33.572114140256105,-19.273704354506087
8.258521461647675,-0.8777522191942546,-0.4019333589858983,-7.194931101183547,-34.27541838538307,-20.37481109665024
8.249743939455731,-1.2205064030480854,-0.4738826699977338,-7.39867921215005,-34.77486445334741,-21.138335224332828
8.237538875425251,-1.5682550475815595,-0.5478694621192344,-7.610062564393378,-34.99760036959615,-21.51256029890926
8.221856324949435,-1.918231051277521,-0.6239700877631682,-7.825188167382471,-34.87423053754046,-21.451961637684285
8.20267401443666,-2.2669733566529255,-0.7022219694369929,-8.039707783759313,-34.34528612077124,-20.924515318774837
8.180004280870131,-2.610426217860638,-0.782619047274586,-8.248952936947061,-33.368474437161396,-19.919199760290443
8.153900018691525,-2.944110962232252,-0.8651085766440566,-8.448144934549966,-31.92554269980012,-18.452332544547797
8.124458909069203,-3.263366389230253,-0.9495900259895562,-8.632668259995443,-30.027267886661477,-16.57114514707198
8.091825245176901,-3.563639068096868,-1.0359167085895107,-8.798379711466163,-27.715115519772734,-14.353197805455718
8.056188854495932,-3.8407902232945954,-1.1239005057041722,-8.94191168952072,-25.05862572223291,-11.900974448024165
8.017780952262987,-4.091376480516924,-1.2133196225993794,-9.060921434000962,-22.14853110287939,-9.33214606826367
7.976867187457818,-4.312861791545719,-1.303928836939389,-9.154242894683598,-19.086710037040724,-6.7671815077690844
7.933738569542361,-4.503728891916126,-1.3954712658862252,-9.22191470976129,-15.974922756461893,-4.316747983288463
7.8887012806231995,-4.663478119480745,-1.487690412983838,-9.265082189594175,-12.904528858110687,-2.0713530622182366
7.842066499428392,-4.792523408061852,-1.5803412348797796,-9.285795720216356,-9.948961890577598,-0.09494038101145527
7.794141265347774,-4.892013026967628,-1.6731991920819431,-9.28674512402647,-7.159853125171636,1.577003676965996
7.745221135078097,-4.963611558219344,-1.7660666433222079,-9.270975087256812,-4.566727880621549,2.935380659304723
7.695585019495904,-5.009278837025559,-1.858776394194776,-9.241621280663765,-2.179477263366185,3.9926984155759735
7.645492231125648,-5.031073609659221,-1.9511926070014136,-9.201694296508006,0.007510838510759891,4.777016485921762
7.595181495029056,-5.030998501274113,-2.0432095499664937,-9.153924131648788,2.0106322167016817,5.3258423677230216
7.544871510016315,-5.010892179107096,-2.1347487912829815,-9.100665707971558,3.85256420425143,5.680788962075534
7.494762588225244,-4.972366537064582,-2.225755448362697,-9.043857818350803,5.558458704994517,5.883379127751286
7.445038922854598,-4.916781950014637,-2.316194026546205,-8.98502402707329,7.15302367705387,5.972057971099041
7.395871103354452,-4.845251713244099,-2.406044266816938,-8.9253034473623,8.658491237499156,5.9802790617980435
7.347418586222011,-4.758666800869107,-2.495297301290561,-8.865500656744318,10.093364986846119,5.935449113292067
7.29983191821332,-4.657733151000646,-2.583952307858004,-8.806146165611398,11.471800930441407,5.8585094574402685
7.253254586703314,-4.543015141696232,-2.672013769514118,-8.747561071036996,12.803478652155816,5.763965490291741
7.207824435286351,-4.414980355174674,-2.7594893802244878,-8.689921416134078,14.093840029237352,5.660220498086177
7.1636746317346045,-4.2740419548823,-2.8463885943858287,-8.633319211153216,15.344597177580548,5.550112094079356
7.120934212185782,-4.120595983106495,-2.932721786497361,-8.577818090212423,16.554431825970635,5.431580753953108
7.079728252354717,-3.9550516648467884,-3.0184999673994852,-8.523502282672892,17.719822354160105,5.298419176843681
7.040177735706249,-3.7778534413051874,-3.103734990226214,-8.470518090904456,18.835942884239447,5.141060196246507
7.002399201293197,-3.5894940124627928,-3.188440171135259,-8.419107488941991,19.897583312313245,4.94736297685119
6.966504261168569,-3.39051817933966,-3.272631246024679,-8.36963385917348,20.900042728408565,4.703355837587664
6.932599079375173,-3.1815177520555746,-3.356327584616414,-8.322600300797603,21.83995371128597,4.393892373396264
6.900783901854617,-2.963118214942715,-3.4395535876243897,-8.27866137706364,22.716003092985755,4.0031778117037815
6.87115271970519,-2.7359581840128575,-3.5223402013950262,-8.238629598946602,23.5295264879684,3.5151257484851453
6.843793137865061,-2.5006629191331733,-3.604726497384492,-8.20347834146175,24.284968645239452,2.913511365779659
6.81878650867373,-2.2578132326807787,-3.6867612807991095,-8.174343227803954,24.99021817758383,2.1818947334141052
6.7962083763469225,-2.0079110509049403,-3.768504713077149,-8.152524280469812,25.6568417082746,1.3032950203583988
6.776129265837874,-1.7513426338221942,-3.850029955881847,-8.139491330266228,26.3002572073632,0.2596014459081403
6.758615839499652,-1.4883400617485623,-3.9314248691845095,-8.136895315807147,26.9398977843941,-0.9692919215374034
