th1 (rad),w1 (rad/s),th2 (rad),w2 (rad/s)
0.5667926519506844,-0.7964749067079467,4.14348571337295,1.8209202107438858
0.558827902883605,-0.8320688770455914,4.161694915480389,1.8738807454863136
0.5505072141131491,-0.8671272860763974,4.180433722935252,1.9290797884453263
0.5418359412523851,-0.9017872009185511,4.199724520819705,1.9864567578690573
0.5328180692431996,-0.9361992542011457,4.219589088398396,2.0459459362905035
0.5234560767011882,-0.9705264588843555,4.240048547761301,2.1074792388462313
0.5137508121123446,-1.0049428862783965,4.261123340149763,2.1709893083970226
0.5037013832495607,-1.0396322780784097,4.282833233233733,2.2364128644358856
0.4933050604687766,-1.0747866711331102,4.305197361878092,2.3036942279273376
0.4825571937574455,-1.1106051178056604,4.328234304157365,2.37278894573209
0.47145114257938886,-1.1472925851580174,4.351962193614686,2.4436674462546657
0.4599782167278087,-1.185059113189874,4.376398868077233,2.5163186720226514
0.44812762559590996,-1.2241193067470681,4.40156205479746,2.590753654259253
0.4358864325284393,-1.2646922285203177,4.427469591340053,2.6670090180623225
0.4232395102432361,-1.3070017529989069,4.454139681520676,2.745150433369261
0.410169492713247,-1.3512774346080896,4.481591185854368,2.82527605536862
0.3966567183671661,-1.3977559387946625,4.509843946408054,2.9075200275677955
0.38267915897921945,-1.4466830836787832,4.538919146683732,2.992056150876753
0.3682123281424316,-1.498316543061401,4.568839708192499,3.0791018528217546
0.3532291627118176,-1.5529292699072708,4.599630726720717,3.168922622861039
0.3376998700127449,-1.6108137136052987,4.631319952949327,3.2618371137154676
0.3215917328766919,-1.6722869248915195,4.663938324086482,3.358223146032409
0.3048688636277767,-1.737696669689369,4.697520555546806,3.458524896203544
0.287491896930883,-1.8074287073807815,4.7321058045088416,3.5632615963704892
0.2694176098570752,-1.8819154296965406,4.767738420472546,3.6730381326741783
0.2505984555601098,-1.9616461018054603,4.804468801799288,3.788557992283233
0.23098199454205517,-2.0471789930493305,4.842354381722121,3.910639078085365
0.21051020461156186,-2.1391557217655124,4.881460772502974,4.04023297188256
0.18911864739390674,-2.238318147360717,4.9218631022218,4.178448258934504
0.16673546592029959,-2.345528084324136,4.963647584811145,4.326578479110354
0.14328018507705823,-2.4617899106072043,5.006913369602248,4.486135042369016
0.11866228597098619,-2.588275647679093,5.051774720025938,4.658884840032692
0.09277952949419525,-2.726351013125674,5.098363568426265,4.846890909027797
0.06551601936293851,-2.8775987326966517,5.1468324775165435,5.052551606273536
0.036740032035971995,-3.043830979350793,5.197357993579279,5.278627858942697
0.006301722242464062,-3.2270741496935123,5.250144272168706,5.528236365358178
-0.02596901925447106,-3.4294924999809617,5.305426635822288,5.804763858058881
-0.06026394425428068,-3.65318566272135,5.3634742744028765,6.111614219174097
-0.09679580088149417,-3.899737757986198,5.424590416594618,6.4516208612296895
-0.13579317846135613,-4.169299113747579,5.489106625206914,6.825821886278577
-0.17748616959883193,-4.458845037236378,5.5573648440697,7.231103163268163
-0.2220746199711957,-4.759156333901565,5.6296758757023815,7.656068993219536
-0.26966618331021136,-5.050339760280298,5.706236565634577,8.074866748202368
-0.32016958091301434,-5.297241678865912,5.7869852331166,8.440807206334737
-0.37314199770167344,-5.449958665108506,5.871393305179947,8.686961559490458
-0.4276415843527585,-5.458318893326348,5.958262920774852,8.746017242201026
-0.482224773286022,-5.300983735919901,6.045723093196862,8.590246854590184
-0.535234610645221,-5.004954865512478,6.131625561742764,8.257999729553527
-0.5852841593003458,-4.629142859017232,6.214205559038299,7.830538849193126
-0.6315755878905182,-4.229445774096289,6.29251094753023,7.383908839678034
-0.673870045631481,-3.8403617646259383,6.36635003592701,6.964164992784987
-0.7122736632777404,-3.4768738059420117,6.4359916858548605,6.590526393815903
-0.7470424013371606,-3.1425240055819215,6.50189694979302,6.266744824275056
-0.7784676413929799,-2.8356441470715272,6.56456439803577,5.989705789871034
-0.8068240828636951,-2.552728267521378,6.6244614559344805,5.754006562242215
-0.8323513655389089,-2.2899640390829696,6.682001521556903,5.553986743721471
-0.8552510059297386,-2.0438352075410133,6.737541388994118,5.384492054950542
-0.8756893580051487,-1.8113073799568418,6.791386309543624,5.2410800190378355
-0.8938024318047171,-1.5898430191331523,6.843797109734002,5.120003214538885
-0.9097008619960486,-1.3773550206842398,6.894997141879391,5.018117147043059
-0.923474412202891,-1.1721448500233775,6.945178313349822,4.932773249071487
-0.9351958607031248,-0.9728431161219504,6.994506045840537,4.861719732191483
-0.9449242918643442,-0.7783584188608583,7.0431232431624515,4.803017169262006
-0.9527078760529528,-0.5878353720830094,7.0911534148550714,4.754969419479399
-0.9585862297737829,-0.4006208509020677,7.138703109049866,4.716068324000547
-0.9625924382828036,-0.21623695941157373,7.185863792289871,4.6849500873989065
-0.9647548078769194,-0.034359185796532216,7.232713293163861,4.66036137960796
-0.9650983997348846,0.14520162730529085,7.279316906959941,4.64113350390645
-0.9636463834618317,0.32251465549597436,7.3257282419990055,4.626163300179731
-0.960421236906872,0.4975427511672055,7.371989875000803,4.614399723448055
-0.9554458093952,0.6701551288127117,7.418133872235283,4.604835237768151
-0.9487442581070729,0.8401396311359194,7.464182224612965,4.5965012972857
-0.9403428617957137,1.0072149557432737,7.510147237585822,4.588467259764184
-0.930270712238281,1.1710430588085734,7.556031910183464,4.579842107028922
-0.9185602816501952,1.3312418000764017,7.601830331253753,4.569778346583391
-0.9052478636494312,1.487397756181219,7.647528114719587,4.557477454779696
-0.890373886087619,1.6390790119162384,7.693102889267384,4.54219620951892
-0.8739830959684567,1.7858476483426668,7.738524851362573,4.523253263140737
-0.85612461948503,1.9272715887709098,7.783757383993981,4.500035334728051
-0.836851903597321,2.062935443217266,7.828757737341261,4.472002462205376
-0.8162225491651484,2.192450010468613,7.873477761963315,4.438691850020122
-0.7942980490604622,2.315460152063088,7.917864680463516,4.3997199741597175
-0.7711434475398313,2.431650838017732,7.961861880205114,4.354782754137394
-0.746826939159654,2.5407512702990505,8.005409707746487,4.3036537590456145
-0.7214194264566636,2.6425371049525515,8.048446245336944,4.246180567665537
-0.6949940554071381,2.7368309050428348,8.0909080510136,4.182279537082906
-0.6676257463567098,2.8235010528163245,8.132730846384428,4.111929338778065
-0.6393907358285466,2.9024594220827487,8.173850139772208,4.035163688067337
-0.6103661416077191,2.9736581555252712,8.214201776652882,3.9520637190383368
-0.5806295600524664,3.037085905082862,8.253722413843265,3.8627504442869243
-0.5502587010016378,3.0927638787380993,8.292349918286135,3.7673776922030475
-0.5193310622142567,3.1407419986727576,8.330023695208165,3.6661258422586704
-0.48792364222752915,3.1810954201148127,8.366684953630752,3.5591965899526934
-0.45611268802638105,3.213921594143844,8.40227691953028,3.44680887695692
-0.4239734720849426,3.239337987767972,8.43674500829985,3.3291960267591842
-0.3915800922072629,3.2574805063113077,8.470036968567442,3.2066040382813763
-0.35900528714414986,3.268502600871594,8.502103008950256,3.0792909143045804
-0.32632026113543394,3.272574990321671,8.5328959180933,2.947526841067215
-0.29359451123221725,3.2698858848492836,8.562371186503974,2.8115949916599816
-0.2608956523837244,3.260641567220839,8.590487136420574,2.6717926992573324
-0.22828923671151602,3.2450671689849817,8.617205063413147,2.5284327364517276
-0.1958385650216662,3.2234074713963534,8.642489390777664,2.3818444431142933
-0.16360449030770266,3.1959275643099745,8.666307835208807,2.2323744660215663
-0.1316452146646029,3.1629132097915975,8.688631579869023,2.0803869073370413
-0.10001608256668693,3.124670779580759,8.709435448942394,1.926262723904474
-0.06876937477087933,3.0815266654190085,8.728698076181438,1.7703982727341643
-0.03795410811668924,3.0338260968766115,8.74640205890878,1.6132029570917168
-0.007615847147923127,2.981931340594314,8.762534088479697,1.455095988816522
0.022203466258020013,2.9262192954143833,8.777085048367862,1.2965023421493873
0.051465659212163846,2.8670785371210745,8.790050071789356,1.1378480285648778
0.0801364445833746,2.804905901835915,8.801428552075004,0.9795548672095464
0.10818550360173375,2.7401027261106194,8.811224100747099,0.8220349584215164
0.13558653086283995,2.67307088246609,8.819444450331314,0.6656850862293773
0.16231723968750084,2.6042087602363155,8.826101301193608,0.5108812786527847
0.188359327289864,2.5339073426010734,8.831210113980136,0.35797374232769963
0.21369840071587473,2.462546522012774,8.834789851403412,0.2072823620357815
0.23832386593600247,2.390491779043178,8.83686267502377,0.05909291883492454
0.26222878372643427,2.318091325865254,8.83745360421212,-0.08634586382504097
0.2854096969850868,2.2456737874507944,8.83659014557387,-0.22882438445890943
0.30786643485959475,2.1735464635773227,8.834301901729281,-0.3681733243418581
0.329601899495368,2.101994185266597,8.830620168485863,-0.504263934463928
0.350621841348034,2.031278752358241,8.825577529141224,-0.6370075156688942
0.3709346288716164,1.9616389161011083,8.819207453984536,-0.7663541880836402
0.3905510180326275,1.8932908528968997,8.8115439121037,-0.8922910659725518
0.4094839265615965,1.8264290630594981,8.802621001443974,-1.0148399651799795
0.42774821719219147,1.7612276215568277,8.792472601792173,-1.1340547731224284
0.44536049340775974,1.6978417056778308,8.781132054060949,-1.2500186071391988
0.46233891046453807,1.6364093266421267,8.768631867989557,-1.3628408774714753
0.4787030037309593,1.5770531974273383,8.755003459214842,-1.4726543578658695
0.49447353570523267,1.5198826765810687,8.740276915636183,-1.579612351360311
0.5096723624710433,1.464995736619262,8.72448079212258,-1.683886022583683
0.5243223198372359,1.4124809150132989,8.707641931896744,-1.7856619519984682
0.5384471289873689,1.3624192151040624,8.68978531237676,-1.885139952762717
0.5520713211384095,1.3148859330764564,8.670933912849133,-1.98253117782834
0.5652201804691741,1.26995239505181,8.651108601070849,-2.078056533820844
0.5779197044196922,1.2276875952017992,8.63032803573264,-2.171945409245043
0.5901965803717102,1.1881597314455903,8.60860858164019,-2.264434717549842
0.6020781776861661,1.1514376397163701,8.585964234464692,-2.3557682503544553
0.6135925540833298,1.1175921309616297,8.562406551961148,-2.4461963323850684
0.6247684753929461,1.0866972369613561,8.537944588637297,-2.535975767016151
0.6356354477625596,1.058831371665172,8.512584830967135,-2.625370059305512
0.6462237614792113,1.034078413950848,8.486331130374081,-2.714649901526239
0.6565645456187198,1.0125287152701352,8.459184631358818,-2.804093903788909
0.6666898327714211,0.9942800311885195,8.431143692320928,-2.893989548602351
0.6766326330833063,0.9794383687247115,8.402203796834904,-2.984634342072901
0.6864270167705535,0.9681187307022142,8.372357453414175,-3.076337124433775
0.6961082040775757,0.960445722614515,8.341594082169838,-3.1694194866886636
0.7057126613037208,0.9565539646777635,8.30989988730295,-3.264217215443862
0.7152782009504984,0.9565882187383132,8.277257715148512,-3.361081650320386
0.7248440831378815,0.9607030920864121,8.243646898645308,-3.4603807816685186
0.7344511140587456,0.9690621116372939,8.209043090828622,-3.562499831992593
0.7441417351751186,0.9818358633170802,8.173418092508696,-3.667840940131708
0.7539600938082894,0.9991987501000698,8.136739683107379,-3.7768213852588177
0.7639520813092902,1.0213237204372414,8.09897146925479,-3.889869523694378
0.7741653185136625,1.0483740333565104,8.060072774017847,-4.007417232310867
0.7846490588472277,1.0804907276375175,8.019998601694738,-4.129887115375563
0.7954539661236029,1.1177739162368316,7.978699730540982,-4.257671987051825
0.8066317052859712,1.1602553030706253,7.936123010670464,-4.391103141623208
0.8182342583166774,1.2078584106953352,7.892211979254232,-4.530402648752258
0.8303128424236308,1.2603419777342313,7.84690795276671,-4.675613433047097
0.8429162622009732,1.3172210617338436,7.800151818436239,-4.826499505122796
0.8560884728183116,1.377660132438505,7.751886823385012,-4.982408150440696
0.8698650741426966,1.4403340477148423,7.702062741880605,-5.14208774251435
0.8842684146198451,1.5032584305901406,7.650641864455461,-5.303462062907239
0.8993009989257464,1.5636039342605381,7.597607243826388,-5.463379141131202
0.9149370382683518,1.6175329418954496,7.542973452415076,-5.6173848886092195
0.9311123676873063,1.6601333612099878,7.486799603528984,-5.759620699294045
0.9477137012994062,1.6855630414529092,7.429203396536043,-5.882997284546921
0.9645693317139353,1.6875302183773333,7.370373423690574,-5.979813880657478
0.9814446338977086,1.6601696861464816,7.310575284883999,-6.042903571168885
0.9980463307591735,1.5991944502470032,7.25014624917231,-6.067141899231808
1.0140382752616435,1.502962168529504,7.189474830179992,-6.050831316650718
1.0290678969469385,1.3729785992468768,7.128966517013485,-5.996319994234693
1.0427976829394072,1.213549448385452,7.069003317071138,-5.909477477806726
1.0549331774232618,1.0307226364179345,7.00990854229307,-5.79823684989458
1.065240403787441,0.8310048830980972,6.951926173794124,-5.670868833811486
1.073550452618422,0.6203351112170066,6.895217485456009,-5.534636077706359
1.079753803730592,0.4035338017312584,6.839871124678946,-5.395107594139537
1.0837891417479046,0.18418070845629497,6.785920048737551,-5.256051387710082
1.0856309488324676,-0.03524635833247633,6.73335953486045,-5.119668257284176
1.0852784852491428,-0.25312984924521154,6.682162852287608,-4.986950094760183
1.0827471867566907,-0.46846701523818146,6.632293351340007,-4.858030928548278
1.078062516604309,-0.6806650300055179,6.583713042054524,-4.732474811848186
1.0712558663042537,-0.8893873318620966,6.536388293936042,-4.609490069402032
1.0623619929856327,-1.0944462253177705,6.490293393242022,-4.488079561901255
1.051417530732455,-1.2957319220488672,6.44541259762301,-4.367142193943627
1.0384602115119663,-1.49316831009582,6.401741175683574,-4.245539933140263
1.023528528411008,-1.6866875598247832,6.359285776352171,-4.122141564197356
1.0066616528127603,-1.8762177118557577,6.318064360710197,-3.9958512456247144
0.9878994756942028,-2.061679104460257,6.278105848253951,-3.8656273427234975
0.9672826846496002,-2.2429867750851433,6.239449574826716,-3.730495083837564
0.9448528168987488,-2.420056862791372,6.20214462398834,-3.5895552315682826
0.920652248270835,-2.5928156364469177,6.166249071672657,-3.441990039122858
0.8947240919063658,-2.7612101635400697,6.131829171281428,-3.287067152479492
0.8671119902709651,-2.9252198845619066,6.098958499756633,-3.1241417298545757
0.8378597914253461,-3.084868517468043,6.0677170824580875,-2.952656817335665
0.8070111062506656,-3.2402358195119154,6.0381905142847305,-2.772141901700819
0.7746087480555465,-3.3914688010268303,6.010469095267722,-2.582209532594748
0.7406940600452782,-3.538792028682363,5.984646999941774,-2.3825499523477447
0.7053061397584546,-3.682516676571671,5.960821500418297,-2.172923788257696
0.6684809729927379,-3.823047975435899,5.93909226253572,-1.9531530538306527
0.6302504932383789,-3.960890656266103,5.9195607319974135,-1.723110988320798
0.5906415866757179,-4.096651853888436,5.902329622114205,-1.482711669987263
0.5496750681368335,-4.231040679677242,5.887502505414333,-1.2319009240370882
0.5073646613400611,-4.364863213964231,5.875183496173962,-0.9706509042442547
0.46371602920041877,-4.499010892545589,5.86547698713152,-0.6989620052911815
0.41872592027496286,-4.6344389974393305,5.858487367078608,-0.4168776855655591
0.37238153030056953,-4.77212996839237,5.854318590222952,-0.12452067032372344
0.32466023061664584,-4.913033214644801,5.853073383519715,0.17783671667391476
0.2755298984701978,-5.057968692067542,5.854851750686454,0.48964924101641527
0.2249502115495224,-5.207475572583591,5.859748243096618,0.8098955326138373
0.1728754558236865,-5.361580501086205,5.867847198422757,1.1367589430628227
0.11925965081282444,-5.51945502379157,5.879214787853385,1.4671505411590398
0.06406510057490875,-5.678936632580414,5.893886293264976,1.796040799501655
0.007275734249104604,-5.8359198715420195,5.911846701259993,2.1156142262305777
-0.05108346446631559,-5.983713109773999,5.933002843522298,2.414390560169751
-0.11092059556405558,-6.11263444386609,5.9571467491239956,2.676711123429166
-0.17204694000271648,-6.210365179921948,5.983913860358287,2.8833368134003
-0.23415059180193595,-6.263700151447161,6.01274722849229,3.0140699799946638
-0.2967875933164076,-6.261911396352786,6.042887928292236,3.0526973434730724
-0.35940670727993546,-6.200707220245171,6.073414901726967,2.9927750605635612
-0.4214137794823872,-6.084501093528036,6.103342652332603,2.8409557059841086
-0.48225879041766756,-5.92516499087899,6.1317522093924435,2.615210799988191
-0.5415104403264575,-5.737931217828201,6.157904317392325,2.338875801041831
-0.5988897525047394,-5.53707311213883,6.181293075402744,2.034296431283235
-0.6542604836261278,-5.333416225145091,6.201636039715576,1.7190670920158915
-0.7075946458775787,-5.133877082503615,6.218826710635735,1.405201590240786
-0.7589334167026148,-4.942154301711972,6.232878726538143,1.1000114004288948
-0.8083549597197346,-4.759721989904923,6.243878840542432,0.807471319778351
-0.8559521796187838,-4.586690214239168,6.251953553740215,0.5294321602609864
-0.9018190817611754,-4.42241681367572,6.2572478753428245,0.26649754146371657
-0.9460432498979326,-4.265897938478954,6.259912850757462,0.018592107703840288
-0.9887022292827222,-4.116000357753443,6.2600987718345005,-0.2146951673513103
-1.0298622328602567,-3.971591927112911,6.257951820160987,-0.4339148280051267
-1.0695781521313859,-3.831610354524127,6.253612671880936,-0.6396513884774292
-1.1078942556766271,-3.6950960414435614,6.247216157996162,-0.8324713801468206
-1.1448452160910627,-3.5612046508605086,6.238891444194693,-1.0129020505407313
-1.1804572625996679,-3.429208579229259,6.228762423689286,-1.1814269180434436
-1.2147493483919605,-3.2984925770266575,6.216948154508851,-1.3384900436278473
-1.247734274162227,-3.1685464475002094,6.203563254072573,-1.4845042896418454
-1.2794197386372292,-3.0389564201773243,6.1887182111761545,-1.619860862998022
-1.3098093028390025,-2.9093960439240174,6.172519602546174,-1.7449386394813466
-1.3389032632782427,-2.7796170306912993,6.155070216151361,-1.8601124750731828
-1.3666994335851557,-2.6494402612851102,6.136469091400629,-1.9657601304603558
-1.3931938361980067,-2.518747053847456,6.116811490096025,-2.062267684617587
-1.4183813067364812,-2.3874707448630286,6.096188813249849,-2.1500334616272303
-1.4422560141851115,-2.25558861280983,6.074688478633577,-2.2294705819523677
-1.4648119003132098,-2.1231141696798796,6.052393772814054,-2.3010082986358067
-1.4860430420100086,-1.99008984634319,6.029383689827696,-2.3650923040981
-1.5059439404734405,-1.856580099221773,6.005732766786714,-2.4221842025464606
-1.5245097414656583,-1.72266496562131,5.98151092476125,-2.4727603415281854
-1.5417363911218713,-1.5884340924727516,5.956783321345968,-2.517310187132717
-1.557620732046599,-1.4539812581664253,5.931610219474641,-2.55633441302102
-1.5721605446282632,-1.3193994000965987,5.906046875344431,-2.5903428555013823
-1.5853545386292291,-1.1847761521907276,5.8801434467894165,-2.619852466559358
-1.5972023001511364,-1.0501898878793352,5.853944922123823,-2.6453853750866427
-1.6077041990299297,-0.9157062554768831,5.827491068372956,-2.6674671442898994
-1.6168612615846985,-0.7813751855597643,5.800816396930057,-2.686625290893119
-1.624675013440296,-0.6472283443676945,5.773950144021126,-2.7033881094940218
-1.631147296883973,-0.5132770042191341,5.746916262926185,-2.7182838231937696
-1.6362800669261643,-0.3795103021463364,5.7197334246942475,-2.731840058908852
-1.6400751699476277,-0.2458938622520581,5.692415024105159,-2.744583621654686
-1.6425341085701484,-0.11236876671229043,5.664969187888612,-2.7570405150519117
-1.6436577962372714,0.021149123698787048,5.637398782738093,-2.769736123110746
