th1 (rad),w1 (rad/s),th2 (rad),w2 (rad/s),a1 (rad/s^2),a2 (rad/s^2)
1.8282414056198393,-2.255795983692974,1.4862871885566,-0.9192771672527642,-10.468246457682966,1.8034804407157343
1.8056834457829096,-2.360478448269804,1.4770944168840723,-0.9012423628456069,-10.678713434383843,2.148460841223825
1.7820786613002115,-2.4672655826136425,1.4680819932556162,-0.8797577544333687,-10.881656322696987,2.481435990541398
1.757406005474075,-2.5760821458406125,1.4592844157112825,-0.8549433945279546,-11.072813382375141,2.7944772939976072
1.7316451840156688,-2.686810279664364,1.450734981766003,-0.8269986215879785,-11.246972741254881,3.077989586666382
1.7047770812190253,-2.799280007076913,1.4424649955501232,-0.7962187257213147,-11.397835432825543,3.320515009570875
1.676784281148256,-2.9132583614051684,1.43450280829291,-0.7630135756256059,-11.517900463815774,3.5085825386456544
1.6476516975342044,-3.028437366043326,1.426872672536654,-0.7279277502391494,-11.598399023358942,3.6266466947761056
1.6173673238737711,-3.1444213562769154,1.4195933950342625,-0.6916612832913883,-11.62931516362364,3.6571742480097957
1.585923110311002,-3.2607145079131516,1.4126767822013486,-0.6550895408112903,-11.599540000160982,3.580952003652728
1.5533159652318707,-3.3767099079147616,1.4061258867932358,-0.6192800207747631,-11.497212332084155,3.377696931081943
1.519548866152723,-3.491682031235603,1.3999330865854882,-0.5855030514639437,-11.310295310614464,3.0270440896025934
1.484632045840367,-3.6047849843417477,1.3940780560708488,-0.5552326105679177,-11.027419679291773,2.50995801896715
1.4485841959969494,-3.7150591811346656,1.3885257299651697,-0.5301330303782462,-10.638982833194936,1.8105500799276018
1.4114336041856028,-3.821449009466615,1.383224399661387,-0.5120275295789702,-10.138427249636706,0.9181843029989416
1.3732191140909367,-3.922833281962982,1.3781041243655974,-0.5028456865489809,-9.523538755962388,-0.17037200782628076
1.3339907812713068,-4.018068669522606,1.3730756675001075,-0.5045494066272437,-8.797525323530815,-1.449118775038905
1.2938100945760806,-4.106043922757914,1.368030173433835,-0.5190405943776327,-7.969594319047797,-2.9017485468735833
1.2527496553485016,-4.185739865948392,1.3628397674900585,-0.5480580798463686,-7.054776996023161,-4.501719706689642
1.2108922566890177,-4.256287635908624,1.3573591866915948,-0.593075276913265,-6.07287334236228,-6.213690023333536
1.1683293803299315,-4.317016369332246,1.3514284339224623,-0.6552121771466004,-5.046590925601564,-7.996226754903348
1.1251592166366091,-4.367482278588262,1.3448763121509963,-0.7351744446956339,-3.999167981498878,-9.805384149308592
1.0814843938507266,-4.4074739584032505,1.33752456770404,-0.8332282861887198,-2.951921433308252,-11.598505732759806
1.0374096542666942,-4.436993172736333,1.3291922848421527,-0.9492133435163179,-1.922181366016121,-13.33756292660738
0.9930397225393308,-4.456214986396494,1.3197001514069895,-1.0825889727823916,-0.9219561169364993,-14.99150023839288
0.9484775726753659,-4.4654345475658594,1.3088742616791655,-1.2325039751663205,0.04253201949092591,-16.53734935636972
0.9038232271997073,-4.46500922737095,1.2965492219275023,-1.3978774687300177,0.9705098789318056,-17.960182301440465
0.8591731349259978,-4.4553041285816315,1.2825704472402022,-1.5774792917444225,1.865730582334378,-19.25219532576508
0.8146200936401815,-4.436646822758288,1.2667956543227579,-1.7700012450020732,2.735234124396249,-20.411305552042627
0.7702536254125987,-4.409294481514325,1.249095641872737,-1.9741143005224995,3.5880356050037046,-21.43961577565197
0.7261606805974554,-4.373414125464288,1.229354498867512,-2.188510458279019,4.433915361864296,-22.34200704512837
0.6824265393428125,-4.329074971845645,1.2074693942847219,-2.411930528730303,5.282405546965785,-23.125003939353466
0.639135789624356,-4.276250916375988,1.183350088997419,-2.643180568123838,6.14200126809326,-23.795958248740742
0.5963732804605961,-4.214830903695055,1.1569182833161804,-2.881140150611245,7.019580198176838,-24.362527538424203
0.5542249714236456,-4.144635101713287,1.128106881810068,-3.124765425995487,7.9199912870373,-24.832385597238556
0.5127786204065127,-4.065435188842914,1.096859227550113,-3.3730892819678724,8.845764836532862,-25.213084544348572
0.47212426851808353,-3.976977540477585,1.0631283347304343,-3.625220127411358,9.796895868667857,-25.511984297796186
0.4323544931133077,-3.8790085817909064,1.0268761334563208,-3.8803399703893198,10.77065481878955,-25.73616655934003
0.39356440729539865,-3.771302033603011,0.9880727337524275,-4.13770163598272,11.761380336683308,-25.892252117217815
0.3558513869593685,-3.653688230236178,0.9466957173926004,-4.396624157154898,12.760206275537914,-25.98603893835522
0.3193145046570067,-3.526086167480799,0.9027294758210515,-4.65648454653845,13.754668118169644,-26.02187277749125
0.2840536429821987,-3.3885394862991025,0.8561646303556669,-4.916703274313362,14.728123910509687,-26.00165212048271
0.2501682481192077,-3.2412582471940055,0.8069975976125333,-5.176719795518189,15.65891410077209,-25.923357898644827
0.21775566564726762,-3.0846691061862845,0.7552303996573514,-5.435953374504638,16.519180037433692,-25.778992812498764
0.18690897458540476,-2.9194773058119474,0.7008708659123051,-5.693743302629625,17.273275446634177,-25.55183123253258
0.15771420152728527,-2.7467445513456057,0.6439334328860088,-5.949261614954951,17.875763658155684,-25.21294994255768
0.1302467560138292,-2.567986914764049,0.5844408167364593,-6.201391114380527,18.26913796214322,-24.717188401730542
0.10456688686618872,-2.3852955351426166,0.522426905592654,-6.448562998397833,18.381697011686658,-23.999061833297798
0.08071393151476255,-2.20147856502575,0.4579412756086757,-6.688553616730811,18.126526944147887,-22.96982866243993
0.05869914586450506,-2.0202132955842713,0.3910557394413676,-6.918251903355211,17.403323463557324,-21.51795875925662
0.038497012908662344,-1.846180060948698,0.3218732204078155,-7.133431490947777,16.105694622420298,-19.516501728121323
0.02003521229917536,-1.685123114724495,0.25053890549833774,-7.328596508228991,14.1370669751866,-16.841604096991226
0.0031839811519304116,-1.543752444972629,0.17725294041604783,-7.497012549198903,11.43717263189646,-13.405077971496853
-0.012253543297795879,-1.4293807186536645,0.1022828149240588,-7.631063328913871,8.016731118828632,-9.198330527633956
-0.026547350484332523,-1.349213407465378,0.025972181634920086,-7.723046634190211,3.9899602438561153,-4.334518911472403
-0.0400394845589863,-1.309313805026817,-0.051258284706982016,-7.766391823304935,-0.41336260311254625,0.9346798526615009
-0.05313262260925447,-1.3134474310579425,-0.12892220294003137,-7.75704502477832,-4.8737474302934904,6.250319973306137
-0.0662670969198339,-1.3621849053608774,-0.20649265318781457,-7.694541825045258,-9.046752759276004,11.226575304477453
-0.07988894597344268,-1.4526524329536374,-0.28343807143826716,-7.582276072000483,-12.642639872860594,15.54885590140359
-0.09441547030297905,-1.5790788316822435,-0.359260832158272,-7.426787512986447,-15.484487861578549,19.04279312166276
-0.11020625861980149,-1.733923710298029,-0.4335287072881365,-7.236359581769819,-17.522023929883886,21.686081001684585
-0.1275454957227818,-1.9091439495968678,-0.5058923031058347,-7.019498771752973,-18.80595518378895,23.571242237392973
-0.14663693521875046,-2.097203501434757,-0.5760872908233644,-6.783786349379043,-19.445165002083947,24.849271111130516
-0.16760897023309804,-2.2916551514555965,-0.6439251543171548,-6.535293638267738,-19.567780915198057,25.680956975743303
-0.190525521747654,-2.487332960607577,-0.7092780906998322,-6.278484068510305,-19.29581721217779,26.207242020611332
-0.21539885135372977,-2.680291132729355,-0.7720629313849352,-6.016411648304191,-18.733275216049538,26.537289607289402
-0.24220176268102334,-2.8676238848898503,-0.8322270478679771,-5.751038752231297,-17.963370625935756,26.747959251400523
-0.27087800152992186,-3.047257591149208,-0.88973743539029,-5.4835591597172915,-17.050444553738732,26.88870391656499
-0.30135057744141397,-3.217762036686595,-0.9445730269874629,-5.214672120551642,-16.04353089863887,26.98801199501202
-0.3335281978082799,-3.3781973456729837,-0.9967197481929794,-4.944792000601522,-14.979972983134287,27.05945254615777
-0.36731017126500976,-3.5279970755043264,-1.0461676681989946,-4.674197475139945,-13.888432067819654,27.106609707307772
-0.402590142020053,-3.666881396182523,-1.0929096429503942,-4.403131378066867,-12.791138677211308,27.126811347711538
-0.43925895598187825,-3.794792782954636,-1.1369409567310629,-4.131863264589751,-11.705460368083989,27.11380381034891
-0.4772068838114246,-3.911847386635476,-1.1782595893769603,-3.860725226486262,-10.64493017267296,27.0595850103282
-0.5163253576777794,-4.018296688362206,-1.216866841641823,-3.59012937638298,-9.619881450680005,26.95559195735846
-0.5565083245614015,-4.114495502869006,-1.2527681354056528,-3.320573456809395,-8.637810917187172,26.793400328456475
-0.5976532795900916,-4.200873612040877,-1.2859738699737469,-3.0526394535248302,-7.703562418435286,26.565056006900083
-0.6396620157105004,-4.27790923622523,-1.3165002645089952,-2.7869888934558293,-6.819397885866078,26.26312919682665
-0.6824411080727527,-4.3461032150838905,-1.3443701534435535,-2.524357601487563,-5.985001691801696,25.880562107623582
-0.7259021402235917,-4.405953232001908,-1.3696137294584292,-2.265551980411327,-5.197451158652257,25.410370555804143
-0.7699616725436107,-4.457927743588431,-1.3922692492625424,-2.0114482748532856,-4.451179476839482,24.845257338527798
-0.814540949979495,-4.502439538356826,-1.4123837320110753,-1.7629957014680075,-3.7379580223978786,24.177200637008422
-0.8595653453630633,-4.539819118580804,-1.4300136890257553,-1.5212236950979232,-3.04693335776096,23.3970942430257
-0.9049635365488713,-4.5702884521584135,-1.4452259259767346,-1.2872527526676663,-2.3647700548101516,22.494538110861917
-0.9506664210704554,-4.593936152706515,-1.4580984535034112,-1.0623073715590472,-1.6759726785787725,21.457906058414814
-0.9966057825975205,-4.610695879492303,-1.4687215272190017,-0.8477283109748991,-0.9634847857588649,20.274846856112916
-1.0427127413924435,-4.6203307273498915,-1.4771988103287508,-0.6449798424137699,-0.20968055294665894,18.93339274696384
-1.0889160486659424,-4.6224275328793585,-1.4836486087528884,-0.45564591494413154,0.6021406975638486,17.423832613202297
-1.135140323994736,-4.61640612590372,-1.4882050679023298,-0.2814075888121086,1.4856991715971009,15.741421995659108
-1.1813043852537732,-4.601549134187749,-1.4910191437904508,-0.12399336885551751,2.449185981889736,13.889812972090814
-1.2273198765956508,-4.577057274368852,-1.4922590774790059,0.014904760865390637,3.492499626210387,11.884777761569193
-1.2730904493393393,-4.542132278106748,-1.492110029870352,0.13375253848108257,4.604814374409994,9.75741367886625
-1.318511772120407,-4.496084134362648,-1.490772504485541,0.23132667526974507,5.763258375515978,7.555692559580425
-1.3634726134640334,-4.438451550607488,-1.4884592377328436,0.30688360086554933,6.93351403892015,5.343184076781806
-1.4078571289701083,-4.369116410218287,-1.4853904017241881,0.3603154416333674,8.072836756211737,3.194259972767523
-1.4515482930722912,-4.28838804265617,-1.4817872473078544,0.3922580413610426,9.135299368359004,1.1860995982597407
-1.4944321734988528,-4.197035048972579,-1.477864666894244,0.40411903734364,10.078230191955434,-0.6109594546155004
-1.5364025239885786,-4.0962527470530254,-1.4738234765208076,0.398009442797485,10.86823661171054,-2.1423515603527017
-1.5773650514591089,-3.98757038093592,-1.4698433820928327,0.376585927193958,11.485254016406495,-3.3752032711786155
-1.617240755268468,-3.872717840771855,-1.466077522820893,0.34283389448217183,11.92375542770481,-4.299981597780159
-1.6559679336761866,-3.7534802864948067,-1.4626491838760713,0.2998340785043702,12.1912399875902,-4.9280563704822935
-1.6935027365411346,-3.6315678866189045,-1.4596508430910276,0.2505535147995473,12.30489618813892,-5.286510871917916
-1.7298184154073237,-3.5085189247375155,-1.457145307943032,0.19768840608036814,12.287613383137932,-5.4119503767853345
-1.7649036046546989,-3.385642790906136,-1.4551684238822284,0.1435689023125148,12.16432340247451,-5.34478214633321
-1.7987600325637603,-3.263999556881391,-1.4537327348591034,0.09012108084918269,11.959229869916342,-5.124816929556839
-1.8314000281325742,-3.1444072581822273,-1.4528315240506116,0.0388729115536143,11.694068858331764,-4.788427269088166
-1.8628441007143965,-3.02746656959891,-1.4524427949350753,-0.00901136113726736,11.387271605126212,-4.367086764328859
-1.8931187664103857,-2.9135938535476478,-1.452532908546448,-0.05268222878055595,11.053783835421122,-3.8869335221079875
-1.9222547049458623,-2.8030560151934365,-1.4530597308342537,-0.09155156400163583,10.705291048834125,-3.3689855972134843
-1.9502852650977966,-2.6960031047050954,-1.4539752464742701,-0.12524141997377067,10.350648759202526,-2.8297046132741457
-1.9772452961448477,-2.59249661711307,-1.4552276606740078,-0.15353846610651212,9.99638010288877,-2.2816952811743993
-2.003170262315978,-2.492532816084182,-1.4567630453350728,-0.17635541891825612,9.647158921178494,-1.7344106554007435
-2.02809559047682,-2.3960612268723973,-1.4585265995242553,-0.19369952547226355,9.306237139395812,-1.194794143940967
-2.052056202745544,-2.3029988554784393,-1.460463594778978,-0.2056474669116732,8.97580143671632,-0.6678294625921126
-2.0750861913003282,-2.213240841111276,-1.4625200694480947,-0.21232576153759433,8.657259146153141,-0.15699336711096404
-2.097218599711441,-2.1266682496497444,-1.4646433270634707,-0.21389569520870397,8.351460696877512,0.3353817238240071
-2.1184852822079385,-2.043153642680969,-1.4667822840155578,-0.2105418779704639,8.05886867635656,0.8078228892155033
-2.138916818634748,-1.9625649559174034,-1.4688877027952625,-0.20246364907830885,7.779683821374016,1.2594961189032778
-2.158542468193922,-1.8847681177036633,-1.4709123392860455,-0.18986868788927608,7.513937256742311,1.6900372781038517
-2.1773901493709586,-1.80962874513624,-1.4728110261649383,-0.17296831510823757,7.2615568516038405,2.0994236138725393
-2.1954864368223213,-1.7370131766202017,-1.4745407093160208,-0.15197407896951218,7.0224140620647395,2.4878767026099013
-2.2128565685885233,-1.6667890359995543,-1.476060450105716,-0.12709531194341317,6.79635626707345,2.8557895424014856
-2.229524458948519,-1.5988254733288199,-1.47733140322515,-0.09853741651939832,6.583228452916886,3.2036720602351907
-2.245512713681807,-1.532993188799651,-1.478316777390344,-0.06650069591704641,6.382887168926288,3.532110597326627
-2.2608426455698036,-1.4691643171103883,-1.4789817843495145,-0.031179589943780138,6.195208942617926,3.84173796996738
-2.2755342887409076,-1.407212227684209,-1.4792935802489524,0.007237789755893662,6.020094775764476,4.133211512704675
-2.2896064110177496,-1.347011279926564,-1.4792212023513935,0.04856990488294042,5.857471911896654,4.407197134618944
-2.3030765238170154,-1.2884365608075976,-1.4787355033025642,0.09264187622912987,5.707293741634239,4.6643578952900056
-2.3159608894250914,-1.2313636233912553,-1.477809084540273,0.13928545518202992,5.569538470737214,4.90534596706296
-2.328274525659004,-1.175668238683883,-1.4764162299884527,0.18833891485265952,5.444206997199607,5.130797121077841
-2.3400312080458425,-1.121226168711887,-1.474532840839926,0.23964688606343792,5.331320312602698,5.341327077479617
-2.3512434697329616,-1.06791296558586,-1.4721363719792917,0.2930601568382341,5.230916647319786,5.537529211907292
-2.36192259938882,-1.015603799112662,-1.4692057704109094,0.34843544895730705,5.14304850985514,5.719973223598195
-2.3720786373799467,-0.9641733140141107,-1.4657214159213363,0.405635181193289,5.067779720647192,5.889204455030346
-2.381720370520088,-0.9134955168076387,-1.4616650641094033,0.46452722574359245,5.005182504817027,6.0457436163938185
-2.3908553256881646,-0.8634436917594684,-1.4570197918519674,0.5249846619075307,4.955334682647819,6.190086715941168
-2.3994897626057594,-0.8138903449329903,-1.451769945232892,0.5868855290669424,4.918316978081669,6.322705033635852
-2.407628666055089,-0.7647071751521736,-1.4459010899422227,0.6501125794033009,4.894210452013613,6.444045003654162
-2.4152757378066108,-0.7157650706320374,-1.4393999641481896,0.7145530294398426,4.883094057021459,6.554527893552948
-2.422433388512931,-0.6669341300618228,-1.4322544338537913,0.7800983083753721,4.885042302209666,6.654549186031229
-2.429102729813549,-0.6180837070397261,-1.4244534507700375,0.8466438002356844,4.900123010223915,6.744477584459128
-2.435283566883946,-0.569082476937487,-1.4159870127676806,0.9140885760802757,4.9283951426383465,6.824653576637775
-2.440974391653321,-0.5197985255111036,-1.4068461270068777,0.9823351118466535,4.969906664469889,6.895387503233635
-2.4461723769084323,-0.4700994588664047,-1.3970227758884113,1.0512889868789899,5.024692413345543,6.956957088443829
-2.4508733714970963,-0.41985253473294926,-1.3865098860196214,1.1208585577634282,5.092771933787419,7.009604400993015
-2.4550718968444256,-0.36892481539507505,-1.3753013004419872,1.1909546017733583,5.174147232246047,7.053532223735476
-2.4587611449983764,-0.3171833430726146,-1.3633917544242535,1.2614899240107131,5.268800404053324,7.088899820076929
-2.4619329784291026,-0.26449533903208133,-1.3507768551841464,1.3323789222114824,5.376691079601429,7.11581809525191
-2.4645779318194236,-0.21072842823606705,-1.3374530659620316,1.4035371031640014,5.497753634058836,7.134344160311691
-2.4666852161017845,-0.1557508918954787,-1.3234176949303915,1.4748805447671183,5.6318941031288325,7.14447531663922
-2.4682427250207395,-0.09943195086419038,-1.3086688894827203,1.5463252979335105,5.778986747095342,7.146142489105203
-2.469237044529381,-0.04164208339323696,-1.2932056365033853,1.6177867228245626,5.938870207068947,7.139203146866338
-2.4696534653633138,0.017746618677452516,-1.2770277692751397,1.689178754293226,6.111343201351268,7.1234337626061945
-2.4694759991765394,0.07886005069096519,-1.2601359817322075,1.760413091919288,6.296159716607296,7.098521874120956
-2.46868739866963,0.14182164785703816,-1.2425318508130148,1.8313983106604974,6.4930236585209355,7.064057827008475
-2.4672691821910595,0.2067518844422475,-1.2242178677064097,1.9020388889305822,6.701582940272908,7.019526294324947
-2.465201663346637,0.2737677138449766,-1.2051974788171038,1.9722341518738316,6.921423004996355,6.964297688945206
-2.462463986208187,0.3429819438949402,-1.1854751372983654,2.0418771287632835,7.152059800810243,6.897619607501643
-2.459034166769238,0.41450254190304264,-1.1650563660107325,2.1108533248383,7.392932254566008,6.818608471625666
-2.4548891413502076,0.48843186444870273,-1.1439478327623496,2.1790394095545564,7.64339432349382,6.726241563104711
-2.4500048227057207,0.5648658076836409,-1.122157438666804,2.2463018251856037,7.9027067428551465,6.619349684649071
-2.4443561646288843,0.6438928751121924,-1.0996944204149481,2.3124953220320945,8.170028632734994,6.496610717133629
-2.4379172358777623,0.7255931614395423,-1.076569467194627,2.377461429203431,8.444409178300623,6.35654438699839
-2.4306613042633667,0.8100372532225486,-1.0527948529025928,2.441026873073415,8.724779655025158,6.1975086030810305
-2.4225609317311414,0.8972850497728002,-1.0283845841718586,2.503001959104225,9.00994613300022,6.017697769102193
-2.4135880812334136,0.9873845111028025,-1.0033545645808164,2.5631789367952473,9.298583261587872,5.815143524278626
-2.4037142361223856,1.0803703437186811,-0.9777227752128639,2.6213303720380337,9.58922960580224,5.5877184073142
-2.3929105326851987,1.1762626397767035,-0.9515094714924835,2.6772075561111754,9.880285076850265,5.3331429747066394
-2.3811479062874317,1.2750654905452061,-0.9247373959313718,2.730538985858242,10.1700110683669,5.048996928422558
-2.3683972513819795,1.3767656012288751,-0.8974320060727894,2.7810289551424674,10.456533973443985,4.732734815148997
-2.354629595369691,1.481330940963315,-0.8696217165213647,2.8283563032939574,10.737852811168556,4.381706843273928
-2.3398162859600578,1.5887094690750005,-0.8413381534884251,2.8721733717266966,11.01185172989057,3.993185317468632
