th1 (rad),w1 (rad/s),th2 (rad),w2 (rad/s)
1.5078886473228152,-1.1301821586120284,4.39664314710227,2.267081978871838
1.496586825736695,-1.2202042116362188,4.419313966890988,2.2698821976756487
1.4843847836203328,-1.3117353526519406,4.4420127888677445,2.271123139956325
1.4712674300938133,-1.4047058198414697,4.464724020267308,2.271013585092814
1.4572203718953987,-1.4989811338189385,4.487434156118236,2.269868216673385
1.4422305605572092,-1.5943564478535759,4.51013283828497,2.2681172286553815
1.4262869960786735,-1.6905545212699338,4.532814010571523,2.266311087724619
1.409381450865974,-1.7872285604293172,4.55547712144877,2.2651186462336486
1.391509165261681,-1.8839709300464622,4.578128307911107,2.2653171197786257
1.3726694559612163,-1.9803282519464656,4.6007814791088935,2.2677731197381226
1.3528661734417515,-2.0758226998172153,4.623459210306275,2.27341494200598
1.3321079464435794,-2.169978452731785,4.646193359726335,2.283197543192671
1.3104081619162615,-2.262351432852944,4.669025335158262,2.2980628794502223
1.2877846475877321,-2.3525598017176916,4.692005963952764,2.3188992831300816
1.2642590495705552,-2.4403123885376403,4.715194956784065,2.346504064810702
1.2398559256851789,-2.5254323716163602,4.738659997432172,2.3815533976963232
1.2146016019690153,-2.607874127997686,4.762475531409135,2.4245827571546257
1.1885228606890386,-2.6877320987901876,4.786721358980681,2.4759798958404913
1.1616455397011367,-2.7652416039070316,4.8114811579390855,2.53599079818019
1.1339931236620664,-2.8407725723571082,4.836841065920887,2.604737584044782
1.1055853979384953,-2.91481795757801,4.862888441761335,2.6822461878050983
1.076437218362715,-2.98797907934185,4.8897109036393855,2.768480991905061
1.0465574275692966,-3.0609502585169768,4.917395713558436,2.863383485090117
1.0159479249841268,-3.1345049463939105,4.946029548409338,2.9669123764236387
0.9846028755201877,-3.209485199764378,4.975698672173574,3.0790832906171364
0.9525080235225438,-3.286795933109131,5.006489505079745,3.2000070413630683
0.9196400641914525,-3.36740499421696,5.038489575493376,3.3299263912487267
0.8859660142492829,-3.4523498365085485,5.071788839405863,3.469252068466364
0.8514425158841974,-3.542751447390908,5.106481360090527,3.6185995834903952
0.8160150014102883,-3.639836258888282,5.142667355925431,3.7788290816865615
0.7796166388214054,-3.744967018732629,5.180455646742296,3.9510911223229086
0.7421669686340792,-3.8596840290458103,5.219966557965526,4.136881947333634
0.7035701283436211,-3.985758742410858,5.261335377438862,4.338112540237152
0.6637125409195125,-4.125262380679281,5.3047165028412335,4.557196567230397
0.6224599171127196,-4.280652848144491,5.350288468513537,4.797162979236927
0.5796533886312747,-4.454883326627591,5.398260098305906,5.0617991078629485
0.5351045553649988,-4.651534509540872,5.448878089384536,5.355828096340558
0.48858921026959007,-4.874966872329066,5.502436370347941,5.685116936402476
0.4398395415462994,-5.130473462368079,5.559287539711966,6.056889642817532
0.3885348069226186,-5.424372562757189,5.619856436140141,6.4798635762801275
0.3342910812950467,-5.76387827329372,5.6846550719029425,6.964086923882908
0.2766522985621095,-6.156346108563669,5.754295941141772,7.519920825699233
0.21508883747647278,-6.606946093370064,5.829495149398764,8.154850454518071
0.14901937654277214,-7.112719091372617,5.911043653943945,8.865274645392274
0.07789218562904597,-7.64942694958215,5.999696400397867,9.618249058435119
0.0013979161332244722,-8.148535008374122,6.095878890982219,10.319415648865064
-0.08008743395051675,-8.477271219958117,6.199073047470869,10.78511983174274
-0.16486014615009792,-8.477398065655764,6.306924245788297,10.79637235970397
-0.24963412680665556,-8.105149997400227,6.414887969385337,10.293661795972298
-0.3306856267806578,-7.5064423920230245,6.51782458734506,9.480605200140324
-0.4057500507008881,-6.869867898421665,6.612630639346463,8.618444545387328
-0.47444872968510476,-6.294739001359064,6.698815084800336,7.843614240459828
-0.5373961196986954,-5.804476602675138,6.777251227204935,7.187573555352559
-0.5954408857254467,-5.392124262323382,6.849126962758461,6.640237320999033
-0.6493621283486806,-5.043768801468192,6.915529335968451,6.182297417272975
-0.6997998163633625,-4.7462328587977956,6.97735231014118,5.795714618320069
-0.7472621449513405,-4.4887799622363485,7.035309456324381,5.465976652354066
-0.7921499445737039,-4.2630392186711,7.089969222847921,5.181939502884605
-0.834780336760415,-4.062538621651048,7.1417886178767676,4.935154791055869
-0.8754057229769254,-3.88224352837893,7.191140165787326,4.719218518028083
-0.9142281582607147,-3.7181879817096477,7.238332350967607,4.529254692532902
-0.9514100380778112,-3.567199544392192,7.283624897892936,4.361530272254737
-0.9870820335217332,-3.42669900318574,7.327240200615483,4.213172795465524
-1.0213490235535905,-3.294556072637933,7.369371928570138,4.081962538039983
-1.0542945842799698,-3.168986276539637,7.410191553950538,3.966176971671136
-1.0859844470453661,-3.0484782993288615,7.4498533236672495,3.8644711682880786
-1.1164692300386547,-2.9317443059386337,7.488498035350131,3.775782427492881
-1.145786673098041,-2.8176879713221616,7.52625585962506,3.699250867644494
-1.1739635528112626,-2.7053863910767455,7.563248368301505,3.6341503565806756
-1.20101741672203,-2.5940828208678766,7.599589871867312,3.579826293688727
-1.2269582449307088,-2.483187447079976,7.635388134804199,3.5356386320104765
-1.2517901194015086,-2.3722832487994143,7.670744521124304,3.5009102746457925
-1.2755129518895028,-2.261133621037898,7.705753623870762,3.4748825910000303
-1.2981242880998818,-2.149687992679091,7.740502449780762,3.4566811331399334
-1.3196211680266727,-2.038081450512315,7.7750692611121615,3.44529542465369
-1.340001982531796,-1.9266246605792021,7.809522215358698,3.439576617123307
-1.359268229137588,-1.8157813960198057,7.843917981529931,3.438255597262546
-1.377426043097786,-1.7061328082374574,7.8783005375025565,3.4399817400194808
-1.3944873711801606,-1.5983300190679788,7.912700354902752,3.443379264677302
-1.4104706713708404,-1.4930391740927713,7.947134147549525,3.4471147823106425
-1.4254010631117682,-1.3908850988736263,7.981605295372631,3.449967082587205
-1.4393099141005044,-1.2924004996981477,8.016104966198503,3.450889364989541
-1.4522339190974858,-1.1979869201232278,8.050613859848399,3.4490553831586825
-1.464213788298718,-1.1078915590257574,8.085104413679986,3.443884072578384
-1.4752927038889756,-1.0222011762326513,8.11954325440577,3.4350412995614796
-1.4855147156513022,-0.9408514684456954,8.153893667401384,3.422421274593934
-1.4949232303357591,-0.8636481962172353,8.188117880147324,3.4061129664444456
-1.5035597122979314,-0.7902953502894701,8.222179009811768,3.386358073150567
-1.511462665800826,-0.7204257390716022,8.256042590543274,3.363506833051043
-1.5186669231915422,-0.6536302503410989,8.289677658873783,3.3379766528315584
-1.5252032256949533,-0.5894832760014046,8.3230574254021,3.3102167739691546
-1.5310980584549674,-0.5275630257186915,8.356159593141792,3.2806804904592983
-1.5363736887121544,-0.4674664620197453,8.388966398046385,3.24980507374052
-1.5410483533323518,-0.4088192741751324,8.42146444878379,3.217998664768599
-1.5451365460741031,-0.3512816825819689,8.453644435431476,3.1856329280518945
-1.5486493628999227,-0.29455099617386205,8.485500764711995,3.1530401270834574
-1.5515948728616613,-0.23836181463364173,8.51703116598283,3.1205133578078974
-1.5539784910079977,-0.18248464792984015,8.548236299560909,3.088308865222211
-1.5558033374872962,-0.1267235720263224,8.579119388213131,3.056649594774785
-1.5570705732075594,-0.07091338587072851,8.609685884160879,3.0257293497469355
-1.5577797070662667,-0.014916599274012218,8.639943177658347,2.9957171152432145
-1.5579288730590068,0.04137952872942368,8.66990034881078,2.9667612607008014
-1.5575150777717126,0.09806576548618494,8.699567961417788,2.93899344664514
-1.5565344201168507,0.155213419705781,8.728957895884239,2.9125321427544764
-1.5549822859197928,0.2128765633724853,8.758083217311784,2.887485719593549
-1.552853520286068,0.2710939557921674,8.78695807450772,2.863955111957937
-1.5501425807281464,0.3298906819905657,8.815597625627298,2.842036073099064
-1.5468436739082407,0.3892795271850503,8.844017986358288,2.8218210505486274
-1.5429508786363901,0.4492621134666885,8.872236196863774,2.803400719147299
-1.5384582575017232,0.5098298259361137,8.900270204055246,2.786865207618373
-1.5333599592423621,0.5709645546060369,8.92813885613143,2.772305053305336
-1.5276503136963018,0.6326392762931897,8.955861906664483,2.759811916661092
-1.52132392093337,0.6948184980616805,8.983460025831093,2.749479083487262
-1.5143757359527532,0.7574585809305672,9.010954816665965,2.7414017792465075
-1.5068011501434475,0.820507959760555,9.03836883445843,2.7356773162897547
-1.4985960705458419,0.8839072726317443,9.065725607621328,2.7324050917071734
-1.4897569978195244,0.9475894106972532,9.0930496585384,2.731686450799041
-1.4802811037125518,1.0114794974878425,9.120366523046389,2.733624428892849
-1.4701663087376735,1.0754948049680806,9.147702767335318,2.7383233824005653
-1.4594113606879926,1.1395446123093125,9.175086001159324,2.7458885185953394
-1.4480159145648994,1.2035300123458863,9.202544886345278,2.7564253325658807
-1.4359806144414407,1.2673436700126115,9.230109139670937,2.7700389591560595
-1.4233071777413144,1.3308695367158638,9.257809529262497,2.7868334473982275
-1.4099984823741558,1.3939825245600492,9.28567786373648,2.8069109649887474
-1.3960586571285554,1.4565481446264457,9.313746973386367,2.830370940727474
-1.381493175682291,1.5184221140722522,9.342050682793642,2.8573091535501387
-1.3663089545415685,1.5794499376705589,9.370623774329143,2.887816777830084
-1.350514455164863,1.6394664705289053,9.399501942107443,2.9219793960240157
-1.3341197904595739,1.6982954700805675,9.428721736067684,2.9598759914979724
-1.3171368357587683,1.7557491470053967,9.458320495982663,3.001577936506904
-1.2995793442887142,1.8116277264614853,9.488336275347732,3.047147992823331
-1.2814630670240994,1.8657190328369524,9.518807755275965,3.096639345420395
-1.26280587669573,1.9177981130882098,9.549774148730169,3.1500946929053066
-1.2436278955648479,1.9676269155237613,9.581275095659223,3.207545422050177
-1.2239516264096102,2.0149540425063317,9.613350549879724,3.2690108977408943
-1.2038020859845469,2.059514596843402,9.646040658857133,3.334497903902628
-1.183206940016113,2.1010301424556954,9.679385637896159,3.4040002753811143
-1.1621966385915559,2.139208800069994,9.71342564064997,3.4774987652551514
-1.140804550590856,2.1737454979706503,9.748200628302522,3.5549611964957193
-1.1190670956111495,2.204322396040193,9.783750240267478,3.636342951115487
-1.0970238716507474,2.230609498190741,9.820113669778634,3.721587853795693
-1.07471777666884,2.252265463603176,9.85732954831659,3.8106295102518564
-1.0521951220328083,2.268938620735032,9.89543584341911,3.9033931631241625
-1.029505735825458,2.28026817965172,9.934469775050351,3.999798129789257
-1.0067030540289408,2.2858856277605506,9.974467756348243,4.099760887061887
-0.9838441977513352,2.2854162814554595,10.015465365218862,4.2031988672199745
-0.9609900349367807,2.2784809516118596,10.057497353891062,4.3100350281564035
-0.9382052254206621,2.2646976645757055,10.100597704172626,4.4202032578374615
-0.915558248774905,2.2436833627621766,10.144799736751,4.533654669822507
-0.8931214151472833,2.2150554910026297,10.190136283449226,4.650364842619431
-0.870970860237257,2.1784333575244648,10.23663993187542,4.770342051335132
-0.8491865266620123,2.133439143613914,10.28434335238877,4.893636535449257
-0.8278521352258732,2.0796984260426434,10.333279717743263,5.020350841098664
-0.8070551509654468,2.016840074803852,10.38348322615425,5.150651268452004
-0.7868867502174083,1.944495400928314,10.43498973883877,5.284780441022803
-0.7674417962081251,1.8622964633104588,10.487837543248997,5.423070986985321
-0.7488188315750206,1.7698735124683094,10.54206825311885,5.56596026936462
-0.7311200964503375,1.6668516738233707,10.597727855812497,5.714005998322557
-0.7144515797121038,1.5528471876611447,10.654867915795723,5.867902362364362
-0.6989231078354924,1.4274638843465628,10.713546939419366,6.028495952837349
-0.6846484689920268,1.29029117680951,10.77383189894774,6.196800101691003
-0.6717455572239317,1.140905857034012,10.83579989996465,6.374005091579233
-0.6603364986535916,0.9788816542499167,10.899539950880442,6.561479667808854
-0.6505476821110924,0.8038132844968668,10.96515474755853,6.760755780975209
-0.6425095492661237,0.6153662877582278,11.032762305368284,6.973482542198173
-0.6363558863885415,0.41337135665442604,11.102497130790265,7.201325480097552
-0.6322221728219972,0.19799351271564725,11.17451038559124,7.445771277738687
-0.6302422376948408,-0.029976269046710607,11.248968098368627,7.7077740761717015
-0.6305420003853078,-0.26863698495249244,11.326045839130344,7.987147145653704
-0.6332283702348328,-0.5142109546831586,11.405917310586881,8.281572368674652
-0.6383704797816644,-0.7599138520714643,11.488733034273627,8.585105237753128
-0.6459696183023791,-0.9944902166924701,11.574584086651159,8.886190106915747
-0.6559145204693038,-1.2007867702173711,11.663445987720316,9.165652553162763
-0.6679223881714774,-1.3554382844877684,11.755102513251943,9.39607942782711
-0.6814767710163551,-1.4315474726190094,11.849063307530214,9.54509833727411
-0.6957922457425452,-1.4058632744124024,11.944514290902955,9.584585826874251
-0.7098508784866692,-1.268596120534443,12.040360149171697,9.503323120373892
-0.7225368396920135,-1.0292422390548148,12.135393380375437,9.31426518285167
-0.7328292620825617,-0.7127039523108004,12.228536032203953,9.04898118121215
-0.7399563016056697,-0.34858501882066956,12.319025844016075,8.74342691044551
-0.7434421517938764,0.038010454856414744,12.406460113120529,8.42621604756829
-0.7430620472453122,0.42988747620646406,12.490722273596212,8.114782613513471
-0.7387631724832476,0.816889461771261,12.571870099731347,7.817084158824056
-0.730594277865535,1.1936490082753726,12.650040941319588,7.534885016821598
-0.7186577877827812,1.5575846237545363,12.725389791487805,7.266526824215473
-0.7030819415452358,1.9075548665681128,12.79805505972996,7.008735892167749
-0.6840063928795547,2.2430741606974065,12.868142418651637,6.75766037277024
-0.6615756512725806,2.5639001615861345,12.93571902237934,6.509422054193606
-0.6359366496567193,2.8698413297007876,13.000813242921277,6.260394920083208
-0.6072382363597114,3.160687802544974,13.06341719212211,6.007339447694905
-0.5756313583342617,3.4362086272583947,13.12349058659906,5.747463548624466
-0.5412692720616777,3.6961829058410323,13.180965222085304,5.478446454941111
-0.5043074430032675,3.9404463015120568,13.235749686634716,5.19844274231347
-0.4649029799881469,4.168942003190385,13.28773411405785,4.906073664009168
-0.42321355995624305,4.381769478312431,13.336794850697942,4.600408055118484
-0.37939586517311874,4.5792268094712325,13.382798931249127,4.280932979182227
-0.3336035970784064,4.761844004607313,13.42560826104095,3.9475137670919658
-0.2859851570323333,4.930405848302372,13.465083398711869,3.6003434324165866
-0.23668109854930958,5.085963822061505,13.501086833036034,3.239882225961948
-0.18582146032869454,5.229837414818957,13.533485655295653,2.8667890685741613
-0.13352308618050496,5.363605733142855,13.562153545981396,2.4818476378050693
-0.07988702884907642,5.489090607283778,13.586972022359447,2.0858909419120444
-0.02499612277623864,5.608332227478262,13.607830931778567,1.6797293696191857
0.03108719949854398,5.723557523089329,13.624628225474758,1.2640886879690874
0.08832277472943727,5.837139696491812,13.63726911235445,0.8395667293586799
0.1466941716943554,5.951544040680591,13.645664779648037,0.40662134563643504
0.2062096121011613,6.069249600825749,13.6497309931044,-0.034391136959343316
0.2669021081094188,6.19262715632345,13.649387081734806,-0.48309639520298575
0.32882837967265327,6.32373974705456,13.644556117782777,-0.9388525306185198
0.3920657771431989,6.464011046672366,13.635167592476591,-1.4002938639220468
0.4567058876099226,6.61368039163167,13.62116465383737,-1.8645565785247724
0.5228426915262393,6.770942225860066,13.602519088052123,-2.326048477275764
0.59055211378484,6.930690645694391,13.579258603279365,-2.774662927352716
0.6598590202417839,7.082952943322904,13.551511974005837,-3.193575802655237
0.730688549675013,7.211566132647192,13.519576215979285,-3.5574386732600645
0.8028042110014849,7.294516475987105,13.484001829246685,-3.833012044213877
0.8757493757613559,7.308067069697767,13.445671708804547,-3.985266741707836
0.9488300464583336,7.235484603997672,13.405819041387469,-3.990070377664512
1.0211848924983102,7.076399821645771,13.365918337610823,-3.847725648150491
1.0919488907147679,6.848878989969702,13.327441081129319,-3.585960899371506
1.160437680614465,6.5812004216783855,13.291581472135604,-3.2480031532832294
1.2262496848312487,6.300285420477586,13.259101440602771,-2.8756681515921314
1.2892525390360245,6.025019153232577,13.23034475908685,-2.499376168304162
1.3495027305683502,5.765703718532301,13.205350997403809,-2.1370385487239725
1.4071597677536734,5.526430313140596,13.183980611916569,-1.7972862196734916
1.4624240708850793,5.3076640346238495,13.166007749719833,-1.48313404877373
1.515500711231318,5.108075942556524,13.151176409232097,-1.194637463107565
1.5665814706568832,4.925617520546657,13.13923003460102,-0.9304884057268272
1.6158376458623498,4.758081779120738,13.129925150543752,-0.6888765889308921
1.6634184636535572,4.60336780423313,13.123036384654442,-0.46791746282833035
1.7094521416958885,4.4595883522603605,13.11835721002616,-0.26584505059852703
1.7540480252184922,4.325099544088447,13.115698759520175,-0.08108397862474115
1.7972990206593766,4.198494527772633,13.114887919733928,0.08773741975157781
1.839283965937103,4.07858232310029,13.115765293931444,0.24180066898052896
1.880069789168106,3.9643621534250055,13.118183300621249,0.3821210574892422
1.9197134107023561,3.8549979870957514,13.122004511196142,0.5095739035013945
1.9582633905733136,3.749795228515138,13.127100250231155,0.624919493831584
1.9957613428584648,3.648180158241242,13.133349445169472,0.7288251816861497
2.0322431444408773,3.54968211087193,13.140637696986333,0.8218842020241899
2.0677399655495967,3.453918131305624,13.148856539006575,0.9046312705113002
2.102279146862653,3.360579776439564,13.157902851711688,0.9775552528021006
2.1358849446270485,3.2694217352612855,13.167678404239709,1.04110926879986
2.1685791619796615,3.1802519781320155,13.178089496927708,1.095718605674703
2.2003816817609816,3.0929231928310243,13.189046682984454,1.141786791401894
2.231310913689292,3.0073253100739548,13.200464550898474,1.1797001461800363
2.2613841667900316,2.9233789604631717,13.212261552360275,1.209831091380763
2.290617956394663,2.8410297369903943,13.224359863274083,1.232540458825258
2.319028253764567,2.7602431625539303,13.236685267862336,1.2481790089048954
2.346630685390106,2.6810002813444616,13.249167057951386,1.2570883349336737
2.373440688203551,2.6032938074495813,13.261737941300723,1.2596013031957614
2.3994736262780467,2.527124774664114,13.27433395433268,1.256042153287281
2.4247448740246877,2.452499639195459,13.286894375865554,1.2467263613418011
2.4492698704166425,2.3794277925011165,13.299361639478972,1.2319603493646623
2.4730641483416536,2.307919445520906,13.311681242972618,1.212041106986375
2.4961433427968625,2.237983848562954,13.323801654042482,1.187255777297904
2.518523181282492,2.1696278134430607,13.33567421181546,1.1578812458776926
2.5402194594169227,2.1028545064324806,13.347253024274238,1.1241837614928345
2.5612480044812473,2.037662482327391,13.358494861889167,1.0864186080867766
2.581624629304521,1.9740449316368474,13.369359047970034,1.04482984038511
2.6013650786208897,1.9119891145673442,13.379807346373886,0.9996500895916144
2.6204849697665633,1.851475957196919,13.389803847269802,0.951100441043387
2.6389997293385323,1.7924797869899924,13.399314851680236,0.8993903821858971
2.656924527208432,1.7349681865987687,13.408308755502095,0.8447178166626819
2.6742742090744196,1.6789019467108819,13.416755933668721,0.7872691385459928
