th1 (rad),w1 (rad/s),th2 (rad),w2 (rad/s),a1 (rad/s^2),a2 (rad/s^2)
0.6066342612298611,-2.179543557844746,3.811797262006221,-1.82896421299359,-4.99032387391342,1.4087722524008763
0.5848388256514137,-2.2294467965838805,3.793507619876285,-1.814876490469581,-4.755096632484583,1.5344996939009208
0.5625443576855749,-2.276997762908726,3.7753588549715893,-1.799531493530572,-4.504395538563186,1.6793780614241627
0.5397743800564876,-2.322041718294358,3.7573635400362835,-1.7827377129163304,-4.237926968613197,1.8440370113713815
0.516553962873544,-2.36442098798049,3.73953616290712,-1.7642973428026165,-3.955510191525672,2.028939785788108
0.4929097529937391,-2.4039760898957465,3.721893189479094,-1.7440079449447354,-3.657090347562083,2.2343611352365094
0.46886999209478164,-2.4405469933713673,3.7044531100296467,-1.7216643335923703,-3.342751273281861,2.4603658380984608
0.44446452216106797,-2.473974506104186,3.687236466693723,-1.6970606752113857,-3.012727925693708,2.7067883196169213
0.4197247771000261,-2.5041017853611227,3.670265859941609,-1.6699927920152164,-2.6674181173071783,2.973213941461613
0.39468375924641486,-2.5307759665341947,3.653565932021457,-1.6402606526006003,-2.3073932318845296,3.258962594915073
0.3693759995810729,-2.55384989885304,3.6371633254954507,-1.6076710266514496,-1.9334075497546763,3.5630752846537286
0.34383750059254253,-2.5731839743505867,3.6210866152289363,-1.5720402738049122,-1.5464057733891443,3.8843044314913664
0.3181056608490367,-2.5886480320844782,3.605366212490887,-1.5331972294899985,-1.1475283111118872,4.221108646441195
0.2922191805281919,-2.600123315195597,3.5900342401959873,-1.4909861430255866,-0.7381138526857465,4.5716527292817775
0.26621794737623594,-2.6075044537224548,3.5751243787657314,-1.445269615732769,-0.31969875927902536,4.933813616031482
0.2401429028390114,-2.610701441315245,3.5606716826084037,-1.395931479572454,0.10598720311497337,5.3051929345266435
0.21403588842585897,-2.6096415692840953,3.5467123678126793,-1.3428795502271875,0.5370292279536616,5.683136719005395
0.187939472733018,-2.6042712770045586,3.5332835723104075,-1.2860481830371335,0.9713403128198205,6.064762677499142
0.16189675996297243,-2.5945578738763606,3.520423090480036,-1.2254005562621422,1.4066788751968986,6.446995196122777
0.13595118122420882,-2.5804910851243914,3.5081690849174145,-1.1609306043009144,1.8406713009553346,6.826608001303504
0.1101462703729649,-2.562084372114838,3.4965597788744054,-1.0926645242878794,2.2708394197255863,7.200274088146676
0.08452542665181652,-2.539375977917582,3.4856331336315267,-1.0206617834064127,2.6946326975207473,7.564622169430366
0.059131666872640695,-2.5124296509423747,3.4754265157974626,-0.945015561712109,3.1094647027878533,7.916298520204379
0.03400737036321695,-2.4813350039144964,3.4659763601803415,-0.8658525765100652,3.512753148088892,8.252032709012704
0.009194020324071989,-2.4462074724336076,3.4573178344152407,-0.7833322494199382,3.9019625510345506,8.568705345411715
-0.015268054400264089,-2.407187846923262,3.449484511921041,-0.697645195965821,4.274648314137057,8.863415665852784
-0.03933993286949671,-2.3644413637818915,3.442508059961383,-0.6090110393072932,4.628500815840257,9.133546558748277
-0.06298434650731563,-2.318156355623489,3.4364179495683103,-0.5176755737198104,4.961387956723892,9.37682452526267
-0.08616591006355052,-2.26854247605625,3.431241193831112,-0.4239073284671837,5.271394536449901,9.591372109708113
-0.10885133482411302,-2.215828530691751,3.4270021205464403,-0.3279936073701026,5.556856864352909,9.775750527068835
-0.13100962013103054,-2.160259962048222,3.4237221844727395,-0.23023610209941422,5.8163911381856686,9.928990566572418
-0.15261221975151276,-2.1020960506663653,3.4214198234517452,-0.13094619643369004,6.048914360473142,10.050610345584543
-0.17363318025817642,-2.041606907061634,3.420110361487408,-0.030440092977844613,6.25365688886101,10.140619098310374
-0.19404924932879275,-1.979070338173024,3.4198059605576296,0.07096609800525913,6.430166114429871,10.199506866412268
-0.213839952710523,-1.914768677028725,3.420515621537682,0.17296116666938183,6.57830120071538,10.22822066201129
-0.23298763948081025,-1.8489856650215712,3.422245233204376,0.2752433732894947,6.698219261634623,10.228128342274843
-0.251477496131026,-1.782003472405225,3.424997666937271,0.37752465671224317,6.790353773084981,10.200972016216806
-0.26929753085507824,-1.714099934674375,3.4287729135043934,0.47953437687441125,6.855386368118712,10.148813254513946
-0.286438530201822,-1.645546070993188,3.4335682572731376,0.5810225094195507,6.894213433521579,10.073972661769625
-0.30289399091175384,-1.576603936657972,3.4393784823673332,0.681762236037247,6.907909089993078,9.9789664839984
-0.31866003027833356,-1.5075248457580412,3.4461961047277057,0.7815519008772309,6.897686193334199,9.866442865609928
-0.33373527873591396,-1.4385479838246993,3.454011623736478,0.8802163295333302,6.864856945033464,9.739120158806667
-0.34812075857416097,-1.3698994143743646,3.4628137870318114,0.9776075311213969,6.810794561343583,9.599729355067835
-0.3618197527179046,-1.3017914687609287,3.4725898623430256,1.0736048246720753,6.736897240795241,9.450962291648727
-0.3748376674055139,-1.2344224963529762,3.4833259105897465,1.1681144475885625,6.64455541503385,9.295426826576357
-0.38718189236904366,-1.1679769422026376,3.4950070550656323,1.2610687158543261,6.535122991334391,9.135609712140697
-0.39886166179107,-1.1026257122892937,3.5076177422241757,1.352424812975733,6.409893019539783,8.97384746234543
-0.409887918913963,-1.038526782093896,3.521141990353933,1.4421632875991874,6.270077959951357,8.812305129208738
-0.42027318673490194,-0.9758260024943823,3.5355636232299252,1.5302863388912749,6.116794505367538,8.652962592312212
-0.4300314467598458,-0.9146580574407069,3.550866486618838,1.616815964814397,5.951052728248725,8.49760773305799
-0.4391780273342529,-0.8551475301582196,3.567034646266982,1.7017920421449768,5.773749186202385,8.347835709677923
-0.44772950263583505,-0.7974100382961958,3.584052566688432,1.785270399241756,5.5856635248388935,8.205053465279487
-0.45570360301879703,-0.7415534030478069,3.6019052706808496,1.867320933894551,5.387458062666202,8.070488579292743
-0.4631191370492751,-0.6876788224211449,3.620578480019795,1.9480258196874782,5.179679822187547,7.945201600635614
-0.46999592527348655,-0.6358820241992694,3.64005873821667,2.0274778356938343,4.962764477849319,7.830101066175038
-0.47635474551547924,-0.5862543794207762,3.660333516573608,2.1057788463555847,4.7370417178786175,7.725960498655023
-0.482217289309687,-0.53888396224199,3.6813913050371636,2.183038451342135,4.502741556698901,7.633436783611884
-0.48760612893210686,-0.49385654667500095,3.703221689550585,2.259372819178254,4.260001181688402,7.5530894361741066
-0.4925446943988569,-0.45125653485811695,3.7258154177423677,2.3349037135399953,4.008871967755001,7.485400379330364
-0.4970572597474381,-0.41116781518056694,3.749164454877768,2.409757717333299,3.749326341846031,7.430793960473246
-0.5011689378992438,-0.3736745517621066,3.773262032051101,2.4840656569380313,3.4812642244488896,7.389657029760396
-0.5049056834168648,-0.33886190951761774,3.798102688620481,2.557962227235635,3.204518814673472,7.3623589905087234
-0.508294302512041,-0.306816721370883,3.8236823108928375,2.6315858171407225,2.9188615187544387,7.349271808014991
-0.5113624697257498,-0.2776281061833386,3.8499981690642446,2.7050785352208724,2.624005848560433,7.350790029257312
-0.5141387507875832,-0.25138804769773426,3.8770489544164533,2.7785864355134455,2.319610137295544,7.367350922761829
-0.5166526312645605,-0.22819194632477882,3.9048348187715876,2.8522599447410637,2.0052789348571807,7.399454896619545
-0.5189345507278083,-0.20813915697620702,3.933357418218998,2.926254493707259,1.6805629565696296,7.447686394243772
-0.5210159422975703,-0.19133352741051074,3.9626199631560706,3.000731357649697,1.3449574680583438,7.512735502628939
-0.5229292775716754,-0.1778839527299273,3.9926272767325677,3.0758587126759864,0.9978989983580561,7.595420536530676
-0.5247081170989747,-0.16790496274634673,4.023385863859327,3.1518129180412933,0.6387602864200974,7.696711882835533
-0.5263871667264381,-0.16151735988214574,4.054903993039741,3.2287800368696487,0.2668433879312064,7.817757399207416
-0.5280023403252596,-0.15884892600283368,4.087191793408437,3.3069576108617227,-0.11862909303088535,7.9599096536961715
-0.5295908295852879,-0.16003521693314254,4.1202613695170545,3.386556707398684,-0.5185246188063055,8.12475525659381
-0.5311911817546193,-0.16522046312120559,4.154126936591041,3.4678042599646224,-0.9338130438604961,8.314146454543991
-0.5328433863858314,-0.17455859355981054,4.188804979190687,3.550945724510062,-1.3655803416968377,8.530235000829775
-0.5345889723214295,-0.1882143969767789,4.224314436435788,3.63624807451836,-1.8150431442251014,8.775508038747628
-0.5364711162911974,-0.20636482841902992,4.260676917180971,3.7240031549058363,-2.283563062835713,9.05282526396372
-0.5385347645753876,-0.22920045904738706,4.2979169487300295,3.8145314075454735,-2.772659065810975,9.365455851484642
-0.5408267691658615,-0.2569270497054968,4.336062262805484,3.9081859660603198,-3.2840151005183675,9.717112361867583
-0.5433960396629165,-0.28976720071068046,4.375144122466088,4.005357089678996,-3.8194784554195214,10.11197679406696
-0.5462937116700233,-0.3279619852648757,4.415197693362877,4.106476857619666,-4.381041721408254,10.554710680368155
-0.5495733315226721,-0.3717724024789582,4.456262461939074,4.212023964423348,-4.970797114958407,11.050435919164823
-0.5532910555474616,-0.4214803736285423,4.498382701583307,4.322528323614996,-5.590845564468065,11.604664816684373
-0.5575058592837471,-0.47738882927322296,4.541607984819457,4.43857497178184,-6.243133105752875,12.223144860456413
-0.5622797475764792,-0.5398201603307518,4.585993734537276,4.560806420386404,-6.929171924218698,12.91156348242016
-0.5676779491797868,-0.6091118795729388,4.63160179874114,4.689922055210606,-7.649580083838053,13.675026626517813
-0.5737690679755162,-0.6856076804113194,4.678501019293246,4.826672321475784,-8.403338753971529,14.517176810006896
-0.5806251447796293,-0.7696410679510346,4.726767742508004,4.971844089575853,-9.186613660598281,15.438744343485721
-0.5883215554591397,-0.8615072045570175,4.776486183403763,5.126231533010711,-9.990913480671956,16.435221636567345
-0.5969366275047099,-0.961416339363737,4.82774849873387,5.290583749376385,-10.800260236004691,17.49321116118054
-0.6065507908983473,-1.069418941723784,4.880654336227634,5.46551586098819,-11.586936774000385,18.584835697479093
-0.6172449803155852,-1.1852883094637878,4.935309494837516,5.651364217962981,-12.305302185982162,19.65947698536802
-0.629097863410223,-1.3083413313236094,4.991823137017146,5.847958987816662,-12.883262805683044,20.632206433451916
-0.6421812767234591,-1.4371739593804398,5.050302726895313,6.054281052151181,-13.21156852328501,21.369015799955758
-0.6565530163172636,-1.5692896446132898,5.110845537416825,6.267971210150739,-13.1327824087312,21.671186266528004
-0.6722459127633965,-1.7006174687006017,5.173525249518333,6.4846830728160185,-12.435445501367976,21.266103329808896
-0.6892520874504026,-1.8249719237142814,5.238372080246493,6.697344106114108,-10.865157074861687,19.820306933523987
-0.7075018066875454,-1.9336234944628983,5.305345521307634,6.895547175449348,-8.170807623355325,16.99961252138131
-0.7268380416321744,-2.0153315706964516,5.3743009930621275,7.065543300663161,-4.201709206774627,12.598013341440607
-0.7469913573391389,-2.057348662764198,5.444956426068759,7.191523434077567,0.9572443823933009,6.7182870576971565
-0.7675648439667809,-2.047776218940265,5.516871660409535,7.258706304654538,6.884966814307224,-0.09406456333033943
-0.7880426061561836,-1.9789265507971927,5.58945872345608,7.257765659021235,12.871317788281665,-6.916732781957103
-0.8078318716641555,-1.850213372914376,5.662036380046293,7.188598331201664,18.15257803568605,-12.769241781291873
-0.8263340053932993,-1.6686875925575153,5.733922363358309,7.060905913388745,22.202837681490816,-17.00153842431562
-0.8430208813188744,-1.4466592157426073,5.804531422492197,6.890890529145589,24.87626043403811,-19.475185459097844
-0.8574874734763005,-1.1978966114022263,5.873440327783652,6.696138674554611,26.337729105368116,-20.45869219593062
-0.8694664395903228,-0.9345193203485451,5.940401714529198,6.491551752595305,26.893383831683163,-20.393887581945187
-0.8788116327938083,-0.6655854820317135,6.005317232055151,6.287612876775853,26.850320874487235,-19.708494864021663
-0.8854674876141254,-0.39708227328684115,6.068193360822909,6.090527928135637,26.450127071540464,-18.73161410186346
-0.8894383103469938,-0.1325810025714365,6.1290986401042655,5.903211787117002,25.857719475181064,-17.683663884532955
-0.8907641203727082,0.1259961921803741,6.188130757975435,5.726375148271672,25.174908701898833,-16.69805666590087
-0.8895041584509045,0.37774527919936246,6.245394509458152,5.559394581612664,24.459130482394837,-15.84820690872082
-0.8857267056589109,0.6223365840233108,6.300988455274279,5.400912512525456,23.739352139185968,-15.169580410387544
-0.8795033398186778,0.8597301054151705,6.354997580399534,5.249216708421581,23.027444010174918,-14.674965832533154
-0.8709060387645261,1.0900045455169196,6.4074897474837496,5.102467050096249,22.32564962463183,-14.364161837951679
-0.8600059933093569,1.313261041763238,6.458514417984712,4.958825431716732,21.6312718442177,-14.229787891897228
-0.8468733828917245,1.529573760205415,6.508102672301879,4.816527552797759,20.939536004743843,-14.260625585729152
-0.8315776452896704,1.7389691202528534,6.5562679478298564,4.673921296940468,20.245310637641882,-14.44346782838076
-0.8141879540871418,1.9414222266292722,6.603007160799261,4.5294866186566605,19.54412681086267,-14.764103621798016
-0.7947737318208491,2.136863494737899,6.648302026985827,4.381845582438681,18.832768287355275,-15.207825166022792
-0.7734050968734701,2.325191177611452,6.692120482810214,4.2297673307784525,18.109595491992902,-15.759689732683002
-0.7501531850973556,2.506287132531381,6.734418156117998,4.072170433451623,17.37469897108067,-16.404673270519215
-0.7250903137720418,2.6800341222421875,6.775139860452515,3.908123700746431,16.629937967207244,-17.127794340459726
-0.6982899725496199,2.84633350191426,6.8142210974599795,3.7368457573418334,15.878896723385218,-17.91425115591263
-0.6698266375304773,3.005122469148112,6.851589555033398,3.557703245782707,15.12677856239339,-18.749592144458195
-0.6397754128389962,3.1563902547720457,6.887166587491225,3.370207324338125,14.3802514834666,-19.61992612528303
-0.6082115102912757,3.3001927696067117,6.920868660734606,3.1740080630852945,13.64725634260948,-20.512168769665383
-0.5752095825952086,3.4366653330328063,6.952608741365459,2.9688863753886405,12.93678793901383,-21.414315698512233
-0.5408429292648805,3.5660332124229446,6.982297605119346,2.7547432184035183,12.258659387952509,-22.31572836274094
-0.5051825971406511,3.6886198063024698,7.009845037303381,2.5315859347761087,11.623260226411302,-23.207416136278212
-0.4682963990776264,3.8048524085665827,7.035160896651142,2.2995117734133266,11.04131817159284,-24.082296360045895
-0.43024787499196054,3.915265590282511,7.0581560143852755,2.0586888098128675,10.52367282727974,-24.935412903781994
-0.3910952190891354,4.020502318555309,7.0787429024834045,1.8093346807750477,10.081066404177854,-25.764092463219775
-0.35089019590358234,4.121312982597088,7.096836249291155,1.5516937561428499,9.723951076827321,-26.568015229467044
-0.3096770660776115,4.218552493365361,7.112353186852584,1.2860136038481795,9.462304069202734,-27.349171140841023
-0.26749154114395784,4.313175534057388,7.1252133228910655,1.0125218924397692,9.305428574895371,-28.11166218852526
-0.22435978580338395,4.406229819806342,7.135338541815464,0.7314052705545167,9.26169895515274,-28.861291446521516
-0.18029748760532052,4.498846809357869,7.142652594521008,0.4427923560893015,9.338178732982108,-29.60484497228003
-0.13530901951174185,4.59222859668769,7.147080518081902,0.1467439063665012,9.539994087357917,-30.34891507115715
-0.08938673354486495,4.687628537561269,7.148547957145567,-0.1567452443450703,9.869275484388227,-31.098020641093473
-0.04251044816925226,4.786321292405152,7.146980504702117,-0.4677254507560051,10.32337452546474,-31.85163680195134
0.005352764754799261,4.889555037659799,7.142303250194557,-0.7862418187755185,10.891910153425178,-32.599535862544236
0.05424831513139725,4.998474139194051,7.134440832006802,-1.112237177400961,11.551994852482697,-33.31456215014217
0.10423305652333775,5.113994087718877,7.123318460232793,-1.4453827989023826,12.26077098712803,-33.94166462168682
0.1553729974005265,5.236601797590158,7.108864632243769,-1.7847994451192508,12.944291499492545,-34.38189746954743
0.20773901537642808,5.366044712585083,7.091016637792577,-2.128618419814725,13.482212764886345,-34.47074659144601
0.2613994625022789,5.500866840233947,7.069730453594429,-2.473325885729185,13.689668702513654,-33.952875862546215
0.3164081309046184,5.637763527259083,7.044997194737138,-2.812854644354647,13.302780583582377,-32.46262628100962
0.3727857661772092,5.770791333094907,7.016868648293592,-3.1374809071647434,11.984427934680488,-29.533988764399655
0.4304936795081583,5.890635612441712,6.985493839221944,-3.43282079480874,9.38051594326913,-24.68288124343026
0.48940003563257545,5.984440771874404,6.951165631273857,-3.679649607243043,5.259356757990762,-17.607504137104524
0.5492444433513195,6.037034339454311,6.914369135201427,-3.855724648614088,-0.27680693020823816,-8.490115175996166
0.6096147867458626,6.034266270152229,6.875811888715286,-3.94062580037405,-6.629432636011301,1.7733190654085567
0.6699574494473849,5.967971943792116,6.836405630711545,-3.9228926097199643,-12.795443512103544,11.707496894504715
0.729637168885306,5.840017508671081,6.797176704614346,-3.8058176407749174,-17.773118510728963,19.84112975208463
0.7880373439720169,5.662286323563791,6.759118528206597,-3.607406343254071,-21.007150039946524,25.34709520924756
0.8446602072076548,5.452214823164326,6.723044464774056,-3.3539353911615954,-22.518750073136076,28.23326455942746
0.899182355439298,5.227027322432965,6.689505110862441,-3.0716027455673207,-22.701527673744685,29.05367811324253
0.9514526286636277,5.000012045695518,6.658789083406767,-2.7810659644348954,-22.038983871343508,28.503528250326195
1.001452749120583,4.779622206982083,6.630978423762419,-2.4960306819316336,-20.932832845494755,27.169560390960786
1.0492489711904038,4.570293878527135,6.606018116943102,-2.2243350780220257,-19.656016679513936,25.45837669339196
1.0949519099756753,4.373733711731996,6.583774766162882,-1.969751311088106,-18.37056734596889,23.618714115896672
1.1386892470929952,4.190028038272307,6.564077253052001,-1.7335641699291393,-17.161860525279145,21.788651997507777
1.1805895274757183,4.0184094330195155,6.54674161135271,-1.5156776499540616,-16.068245975046654,20.03728663919501
1.2207736218059135,3.857726973269049,6.531584834853169,-1.3153047835621114,-15.101457079898388,18.393824619211017
1.259350891538604,3.706712402470065,6.5184317870175486,-1.1313665373700013,-14.259210545185478,16.86578072863852
1.2964180155633047,3.56412029701821,6.507118121643849,-0.9627087300836161,-13.532498956834926,15.449673192528662
1.3320592185334867,3.4287953074498607,6.497491034343013,-0.8082119981583296,-12.909619060096084,14.137048179990014
1.3663471716079854,3.2996991168489,6.489408914361429,-0.6668415163584294,-12.378298837024573,12.917747301604495
1.3993441627764744,3.175916128478654,6.4827404991978455,-0.5376640433423844,-11.926755417248204,11.781598887293812
1.431103324061261,3.056648574306172,6.477363858764422,-0.4198480544694463,-11.544168540014715,10.71922881032828
1.4616698098043226,2.941206888906025,6.473165378219727,-0.3126557663661635,-11.220844228732178,9.722390500588638
1.4910818786933828,2.8289984466187033,6.4700388205560655,-0.2154318613602771,-10.94822126736965,8.78404010188628
1.5193718631595698,2.719516233945007,6.4678845019424624,-0.12759146034141428,-10.718803686124028,7.898282981960885
