th1 (rad),w1 (rad/s),th2 (rad),w2 (rad/s),a1 (rad/s^2),a2 (rad/s^2)
1.1858606417677322,-0.5591255898862807,4.521289403757952,1.4455114387102297,-8.743295974317903,1.1022629933026458
1.1802693858688693,-0.6465585496294597,4.535744518145054,1.4565340686432562,-8.66961550585899,1.264160592504847
1.1738038003725748,-0.7332547046880495,4.550309858831487,1.4691756745683047,-8.585315040365709,1.447190874239296
1.1664712533256942,-0.8191078550917066,4.56500161557717,1.4836475833106977,-8.49027852164805,1.652682735766805
1.158280174774777,-0.9040106403081871,4.579838091410277,1.5001744106683657,-8.384672929942086,1.8816385475499804
1.1492400683716952,-0.987857369607608,4.594839835516961,1.5189907961438656,-8.268992249129408,2.1346764805300897
1.1393614946756192,-1.070547292098902,4.6100297434784,1.5403375609491665,-8.144093081790304,2.4119863864274045
1.1286560217546302,-1.1519882229168052,4.625433119087892,1.5644574248134406,-8.011219073843382,2.7133037946400673
1.1171361395254622,-1.2321004136552391,4.641077693336026,1.5915904627598414,-7.8720117800229445,3.037905971874608
1.1048151353889097,-1.3108205314554686,4.656993597963624,1.6219695224785875,-7.7285063703418935,3.3846329264093677
1.0917069300743552,-1.3881055951588877,4.67321329318841,1.655815851742681,-7.583111608160633,3.751934782974105
1.0778258741227662,-1.463936711240494,4.689771451705837,1.6933351995724222,-7.438574745118192,4.137945223813578
1.0631865070103612,-1.538322458691676,4.706704803701561,1.734714651810558,-7.297933266079388,4.540578857608075
1.0478032824234444,-1.6113017913524699,4.724051950219666,1.7801204403866389,-7.164456647040036,4.957648646321309
1.0316902645099197,-1.6829463578228703,4.7418531546235325,1.829696926849852,-7.04158232713663,5.386998103614931
1.014860800931691,-1.7533621810942366,4.760150123892031,1.8835669078860013,-6.932850827675808,5.826642065556841
0.9973271791207488,-1.8226906893709947,4.778985792970891,1.9418333285415699,-6.841845299436967,6.27490955917235
0.9791002722270388,-1.8911091423653643,4.798404126256307,2.0045824241332935,-6.772140719144572,6.730582715643299
0.9601891808033851,-1.9588305495568101,4.81844995049764,2.0718882512897263,-6.727267519038794,7.193026767432206
0.940600875307817,-2.026103224747198,4.839168833010537,2.143818518964048,-6.71069370549545,7.662307829826441
0.920339843060345,-2.0932101618021526,4.860607018200177,2.2204415972623126,-6.72582863040633,8.139297238190133
0.8994077414423235,-2.160468448106216,4.8828114341728,2.301834569644214,-6.776050672247855,8.625763506951035
0.8778030569612614,-2.2282289548286944,4.905829779869243,2.3880922047137245,-6.864760315062636,9.124455316782269
0.8555207674129744,-2.2968765579793207,4.92971070191638,2.4793367578815473,-6.995459620526364,9.639181182593397
0.8325520018331812,-2.366831154184584,4.954504069495195,2.5757285697074814,-7.171858980660849,10.174893527689033
0.8088836902913354,-2.4385497439911927,4.98026135519227,2.6774775049843718,-7.398012392440536,10.737786781269268
0.7844981928514235,-2.5125298679155983,5.007036130242113,2.7848553727970646,-7.678483352042273,11.33542088899608
0.7593728941722675,-2.589314701436021,5.034884683970084,2.8982095816870252,-8.01854483492714,11.97688339429795
0.7334797471579073,-2.6695001497852924,5.063866779786954,3.017978415630005,-8.424418682917224,12.67300514715745
0.7067847456600543,-2.7537443366144645,5.094046563943254,3.1447084671015793,-8.90356198379604,13.436646828795647
0.6792473022939097,-2.842779956452425,5.12549364861427,3.2790749353895356,-9.46501052196314,14.28307581307016
0.6508195027293855,-2.9374300616720563,5.158284397968166,3.4219056935202374,-10.119791692330036,15.230455063840271
0.621445202112665,-3.0386279785953567,5.192503454903369,3.5742102441586403,-10.881420499397015,16.30046673445191
0.5910589223267114,-3.1474421835893267,5.228245557344955,3.7372149115031594,-11.766490441121576,17.51909034952572
0.5595845004908182,-3.2651070880005424,5.265617706459987,3.9124058149984164,-12.795361989441481,18.91754326251251
0.5269334296108128,-3.393060707894957,5.304741764609972,4.101581247623542,-13.992926105431616,20.533357346943415
0.4930028225318632,-3.5329899689492734,5.345757577086207,4.306914821092976,-15.389359989662044,22.411484818070985
0.4576729228423705,-3.686883568845894,5.388826725297137,4.531029669273686,-17.020657635211148,24.6051432803531
0.42080408715391154,-3.8570901451980055,5.434137021989874,4.777081102077217,-18.928426043512356,27.17571099156979
0.3822331857019315,-4.046374405633129,5.481907833010646,5.048838211992915,-21.15781664389331,30.190127977523723
0.3417694416456002,-4.257952572072062,5.532396215130575,5.350739491768152,-23.751155644067367,33.71245178102991
0.2991899159248796,-4.495464128512736,5.585903610048256,5.687864009578451,-26.732143635330083,37.78247359041559
0.25423527463975226,-4.762785564866037,5.642782250144041,6.065688745482607,-30.07014562499028,42.366837237101464
0.2066074189910919,-5.0634870211159395,5.703439137598867,6.489357117853622,-33.60435612666318,47.25446191432035
0.1559725487799325,-5.399530582382571,5.768332708777403,6.9619017369968255,-36.89365465765102,51.848369441010576
0.10197724295610679,-5.768467128959081,5.837951726147371,7.480385431406932,-38.95366322795189,54.7995045684768
0.04429257166651598,-6.1580037612386,5.9127555804614405,8.0283804770917,-37.91474935344216,53.52813908487848
-0.017287465945870023,-6.537151254773022,5.993039385232358,8.563661867940485,-30.965641519496664,44.140030472855386
-0.08265897849360024,-6.846807669967989,6.078676003911762,9.005062172669039,-15.638544419889973,23.210910308446252
-0.15112705519328012,-7.003193114166889,6.1687266256384525,9.237171275753502,6.748081826310693,-7.422285108762337
-0.22115898633494901,-6.935712295903782,6.261098338395987,9.162948424665878,28.8865959658654,-37.61272225642345
-0.29051610929398686,-6.646846336245128,6.352727822642646,8.786821202101644,42.71930839791588,-56.227049301595315
-0.3569845726564381,-6.219653252265969,6.440596034663662,8.22455070908569,46.726416549930825,-61.2487312241661
-0.4191811051790978,-5.7523890867666605,6.522841541754519,7.61206339684403,44.594189580039796,-57.844659484963174
-0.4767049960467644,-5.306447190966263,6.598962175722959,7.033616801994398,40.101824647771025,-51.24965966954074
-0.5297694679564271,-4.905428944488553,6.669298343742903,6.521120205298991,35.29956997067894,-44.27579365239762
-0.5788237574013126,-4.5524332447817635,6.734509545795893,6.078362268775015,30.97495802236546,-37.98570501891779
-0.6243480898491303,-4.2426836645581085,6.795293168483643,5.698505218585837,27.322997345550505,-32.62899456206353
-0.6667749264947114,-3.9694536911026033,6.852278220669501,5.372215272965202,24.31664079505842,-28.154857952812563
-0.7064694634057374,-3.7262872831520193,6.906000373399153,5.090666693437076,21.86432518430888,-24.42811686630891
-0.7437323362372575,-3.5076440313089305,6.956907040333524,4.8463855247739875,19.868235607511128,-21.308120973372
-0.7788087765503469,-3.308961675233819,7.005370895581264,4.6333043150402675,18.24262564542844,-18.672958517713028
-0.8118983933026851,-3.1265354187795347,7.051703938731667,4.446574729863137,16.91738244812955,-16.423712476695286
-0.8431637474904804,-2.957361594298239,7.096169686030299,4.282337605096184,15.836697106259992,-14.482248319402952
-0.8727373634334628,-2.798994623235639,7.138993062081261,4.137515121902155,14.956502439497257,-12.787485162749816
-0.9007273096658192,-2.6494295988406664,7.180368213300283,4.009640270274656,14.241940822105864,-11.291823827408445
-0.9272216056542258,-2.507010190619608,7.22046461600303,3.8967220320005715,13.66522543716851,-9.958189204695849
-0.9522917075604219,-2.3703579362479226,7.259431836323035,3.797140139953613,13.203938917144539,-8.75771904753344
-0.9759952869229012,-2.238318547076477,7.2974032377225715,3.7095629494782787,12.839713688666018,-7.668002604562439
-0.998378472393666,-2.1099214101898167,7.334498867217354,3.6328829234326543,12.557218936588118,-6.671750274571066
-1.0194776864955641,-1.9843492208239355,7.370827696451681,3.5661654206869438,12.343386409060924,-5.755787506069767
-1.0393211787038035,-1.8609153567333263,7.40648935065855,3.508607545626246,12.186821301272477,-4.9102860417887575
-1.0579303322711366,-1.7390471437206014,7.441575426114812,3.4595046852083584,12.077358163703355,-4.128164428920643
-1.0753208037083426,-1.618273562083568,7.476170472966896,3.418223040919152,12.00573308084722,-3.4046052151555832
-1.0915035393291783,-1.4982162312750957,7.510352703376087,3.384176988767596,11.96335191476292,-2.7366485047234277
-1.1064857016419292,-1.3785827121274665,7.544194473263763,3.3568105037203617,11.942140405477465,-2.122831337433224
-1.120271528763204,-1.2591613080726918,7.577762578300967,3.3355821903460297,11.934465678728289,-1.562850541287232
-1.1328631418439308,-1.1398166512854089,7.611118400204427,3.3199536849331572,11.933120531024466,-1.0572340144527317
-1.144261308356785,-1.0204854459751642,7.644317937053759,3.3093813447886298,11.931362032748446,-0.6070122983128001
-1.1544661628165367,-0.9011718256476797,7.677411750501645,3.303311221805502,11.922994837244381,-0.21338901604691407
-1.1634778810730135,-0.7819418772752359,7.7104448627197,3.301177331645033,11.902487517425865,0.12258481636794823
-1.1712972998457658,-0.6629170021009773,7.74345663603615,3.3024031798087123,11.865107795693588,0.40032181360543073
-1.1779264698667755,-0.5442659241440414,7.776480667834237,3.3064063979447664,11.807060318236314,0.6199792310493637
-1.183369129108216,-0.4261953209616783,7.809544731813685,3.31260619025526,11.725609329745142,0.7826919796897268
-1.1876310823178329,-0.3089392276642269,7.842670793716238,3.3204331100521576,11.619168849766911,0.8907395759672472
-1.190720474594475,-0.19274753916655776,7.875875124816759,3.32934050581183,11.487345162333103,0.9476317799189123
-1.1926479499861407,-0.07787408754322674,7.9091685298748775,3.338816823611019,11.33092070167378,0.9581033399753724
-1.193426690861573,0.035435119473511065,7.942556698110987,3.348397857010773,11.151774429953583,0.9280161671736197
-1.193072339666838,0.1469528637730469,7.976040676681095,3.3576780186825093,10.952740830074724,0.8641763001105431
-1.1916028110291075,0.25648027207379415,8.00961745686792,3.3663197816836146,10.737416655215137,0.7740817613533059
-1.1890380083083696,0.3638544386259455,8.043280654684756,3.3740605992971475,10.509930478277145,0.6656243748796566
-1.1853994639221102,0.468953743408717,8.077021260677727,3.380716843045944,10.274693924247275,0.5467726329474213
-1.180709926488023,0.5717006826511898,8.110828429108187,3.3861845693754185,10.036154685731695,0.42526315394573416
-1.174992919661511,0.6720622295085067,8.144690274801942,3.3904372009148758,9.798569961484041,0.3083252381415412
-1.168272297366426,0.7700479291233471,8.17859464681109,3.3935204532962913,9.565815259238587,0.20245722659479276
-1.1605718180751925,0.8657060817157329,8.212529851344053,3.3955450255622392,9.341238367705856,0.11326595553571156
-1.1519147572580353,0.9591184653927916,8.246485301599675,3.3966776851175964,9.127562679833646,0.04537287169203854
-1.1423235726041074,1.0503940921911281,8.280452078450852,3.3971314138345168,8.926838827207863,0.002383486272267881
-1.1318196316821962,1.1396624804632067,8.314423392589196,3.3971552486972394,8.740439421309086,-0.013088399280697032
-1.1204230068775642,1.2270668746762976,8.34839494507617,3.3970243647044325,8.569088939868355,0.0006465072076294623
-1.1081523381308012,1.3127577640749812,8.382365188723213,3.397030829776509,8.412919491680237,0.044450119482068874
-1.0950247604900514,1.3968869589917836,8.416335497020977,3.3974753309713295,8.271543152886121,0.1184713982521904
-1.0810558909001335,1.4796023905206448,8.450310250330691,3.3986600449538513,8.14413246743784,0.22226701644792268
-1.066259866994927,1.5610437151950232,8.484296850780229,3.4008827151183305,8.02950217841775,0.3549194508626623
-1.0506494298429767,1.6413387369792007,8.518305677931412,3.404431909626957,7.9261869706867705,0.5151461394543467
-1.0342360424731847,1.7206006066860684,8.552349997027681,3.4095833710215007,7.8325116981910545,0.7013956726539361
-1.017030036406324,1.798925723667979,8.586445830737896,3.41659732774804,7.746652068461742,0.9119289827727575
-0.9990407791696443,1.8763922443525964,8.620611804015375,3.425716617575768,7.666684971808078,1.1448850601141067
-0.9802768567261183,1.9530590940706771,8.654868970191133,3.437165468176909,7.590628547837452,1.3983318446917032
-0.9607462657854116,2.0289653795490517,8.689240624872902,3.451148786623826,7.51647269591167,1.670303660624141
-0.940456611989921,2.1041301065081686,8.72375211273914,3.4678518232300672,7.442201102695432,1.9588269471224975
-0.9194153109248393,2.178552117535123,8.758430630971441,3.4874400927012923,7.365806032796714,2.2619361752131413
-0.897629789749488,2.25221017786309,8.793305031898454,3.510059454453424,7.285297161097624,2.5776817985922436
-0.8751076879708571,2.325063149474066,8.828405626442988,3.5358362724393464,7.198705664995874,2.9041319349444255
-0.8518570564761164,2.3970502061240246,8.863763989167381,3.5648775917887905,7.1040846798985084,3.2393692617655554
-0.8278865544148761,2.46809105292301,8.89941276508527,3.597271284406446,6.999507081247135,3.581484376007906
-0.8032056438856461,2.5380861237354813,8.935385477929334,3.633086128166525,6.883061412192219,3.92856663604061
-0.7778247826482912,2.6069167378574036,8.971716339211,3.672371794526931,6.752846642139755,4.278693294779738
-0.7517556152697172,2.6744452042788014,9.00844005715627,3.715158727474728,6.606966327055875,4.629917555103019
-0.7250111632269293,2.74051486754936,9.045591644431017,3.761457903025758,6.443522653334626,4.980256039130534
-0.6976060145514357,2.8049500940827063,9.083206223461275,3.8112604634170637,6.260610786531371,5.327676065236663
-0.6695565136106086,2.86755620194802,9.121318828095445,3.8645372240694305,6.056313916140322,5.670083072922697
-0.6408809515911285,2.9281193411094235,9.15996420033614,3.9212380547986574,5.828699388672082,6.005308527404685
-0.6115997581800342,2.9864063349961443,9.199176580884126,3.9812911400727042,5.575816353608488,6.33109867410116
-0.5817356948300727,3.0421644985322294,9.238989492284853,4.044602126813716,5.295695409556438,6.645104598900607
-0.5513140498447504,3.0951214526277937,9.27943551355299,4.111053172802722,4.986350829037532,6.944874183107
-0.5203628353184725,3.144984960918169,9.320546045281016,4.180501914633792,4.645786055924101,7.2278467206990555
-0.4889129857092908,3.19144282147741,9.362351064427354,4.2527803818407826,4.272003302942138,7.491351185730948
-0.45699855749451673,3.2341628545068315,9.404878868245762,4.327693893698092,3.8630182175266867,7.732609391024605
-0.4246569289494484,3.2727930366820983,9.448155807182742,4.4050199876083385,3.4168807173453066,7.948745551729555
-0.3919289985826274,3.3069618438555515,9.492206007058826,4.484507443125634,2.931703200671191,8.136804037362666
-0.3588593801440719,3.3362788758622632,9.537051081490082,4.56587548349926,2.405697383232877,8.293777332958825
-0.3254965913854493,3.360335849694592,9.582709836325074,4.6488132568288485,1.837220966674424,8.416646392968019
-0.2918932328885034,3.3787080593613363,9.629197968893363,4.732979720758529,1.2248351622104856,8.502435608860006
-0.25810615229489003,3.390956410983441,9.676527766100948,4.818004076847129,0.5673737299074456,8.548284462007004
-0.2241965881850556,3.3966301482825156,9.72470780686942,4.903486921467199,-0.1359763973952959,8.55153753056287
-0.19023028670223047,3.3952703843085628,9.773742676084092,4.989002296772827,-0.8855836960382464,8.509853797144238
-0.15627758285914484,3.3864145473481804,9.82363269905182,5.074100834744269,-1.6812717806535056,8.42133510935938
-0.12241343738566303,3.3696018295416454,9.874373707399263,5.158314185837862,-2.5222136575805436,8.284672150259803
-0.08871741909024658,3.34437969296584,9.925956849257641,5.24116090734046,-3.4068255510537533,8.099304397494413
-0.05527362216058818,3.310311437455302,9.978368458331046,5.322153951315404,-4.332667150749073,7.865588368400857
-0.02217050778603516,3.2669847659478113,10.0315899978442,5.400809834999413,-5.296356885162201,7.584966123094218
0.010499339873442953,3.2140211970961894,10.085598096194195,5.476659496230355,-6.293512297101488,7.2601237764078705
0.04263955184440485,3.1510860741251747,10.140364691156499,5.5492607339944335,-7.318726492278724,6.895127982049234
0.0741504125856566,3.0778988092023876,10.195857298496444,5.618212013814926,-8.365591635114807,6.49552738440125
0.10492940067768047,2.9942428928512395,10.252039418634594,5.6831672876589385,-9.426779292705023,6.0684062773602685
0.13487182960619287,2.8999750999241893,10.308871091511183,5.743851350432541,-10.49418489001375,5.622379492877522
0.16387158060543477,2.795033251024052,10.366309605015507,5.800075145361316,-11.559139616415335,5.1675210429671665
0.19182191311567529,2.6794418548598986,10.424310356469121,5.851750355790988,-12.612688023312202,4.715224207828316
0.21861633166427427,2.5533149746267765,10.482827860027031,5.898902597869271,-13.645923738414702,4.277997268367639
0.24414948141054205,2.4168557372426296,10.541816886005725,5.941682570552947,-14.650369891734778,3.8692063094132285
0.26831803878296834,2.270352038325282,10.601233711711254,5.980374633647079,-15.618385850569108,3.502783635752126
0.29102155916622113,2.114168179819591,10.661037458047725,6.0154024700046005,-16.543578561239674,3.192926420986111
0.31216324096441705,1.9487323942071944,10.72119148274777,6.0473317342144615,-17.421195911203913,2.9538144066886973
0.331650564906489,1.7745204350951553,10.781664800089915,6.076869878281348,-18.248481469038538,2.7993772103569383
0.34939576925744054,1.5920356204047699,10.84243349887273,6.104863650384917,-19.024974735136386,2.7431409197692775
0.36531612546148823,1.401785873053406,10.903482135376578,6.13229505958261,-19.752748215254243,2.7981804582033645
0.3793339841920223,1.2042583909008637,10.964805085972404,6.1602768641646435,-20.436581425392262,2.9771994454173143
0.39137656810103094,0.9998925766469411,11.026407854614051,6.190048858618817,-21.084081348657616,3.292753996077637
0.4013754938675004,0.789051763160365,11.08830834320024,6.222976398579593,-21.70576784999742,3.757632213975299
0.409266011499104,0.5719940846603907,11.150538107186035,6.260552720719346,-22.315150164593692,4.3853979982234685
0.41498595234570795,0.3488425830144538,11.213143634393228,6.3044067007015805,-22.92882598064622,5.191106634066859
0.4184743781758525,0.11955432320799161,11.276187701400245,6.356317767042249,-23.566636950334093,6.192200078939461
0.4196699214079324,-0.11611204629534932,11.339750879070667,6.418239767831643,-24.251912231544683,7.409589938420077
0.41850880094497894,-0.35863116861079614,11.403933276748983,6.492335667215844,-25.01182177689151,8.86893112297791
0.414922489258871,-0.6087493863797112,11.468856633421142,6.581024978445623,-25.877836559916837,10.602068825567503
0.4088349953950739,-0.8675277519788795,11.534666883205599,6.687045666701298,-26.88623838271111,12.648584095687644
0.4001597178752851,-1.1363901358059907,11.601537339872612,6.813531507658174,-28.078504216238613,15.05722319446414
0.38879581651722517,-1.4171751779683768,11.669672654949194,6.964103739602816,-29.501138735025613,17.88667635496611
0.3746240647375414,-1.7121865653186328,11.739313692345222,7.142970503152477,-31.20399526597986,21.204467862159056
0.35750219908435504,-2.0242265179784313,11.810743397376747,7.355015181774068,-33.23500030665521,25.081202283348105
0.3372599339045707,-2.3565765210449836,11.884293549194489,7.605827204607548,-35.626853326680695,29.57420494682218
0.31369416869412087,-2.7128450543117903,11.960351821240565,7.9015692540757705,-38.36652777787826,34.68802666948723
0.28656571815100296,-3.096510332090573,12.039367513781322,8.248449520770643,-41.32940277795131,40.28669886000569
0.2556006148300972,-3.509804359870086,12.121852008989029,8.6513165093707,-44.1454791516221,45.912227386583346
0.22050257123139635,-3.951259151386307,12.208365174082736,9.110438783236534,-45.95354045055752,50.446440035388626
