th1 (rad),w1 (rad/s),th2 (rad),w2 (rad/s),a1 (rad/s^2),a2 (rad/s^2)
2.955237647202101,0.43808940603039875,5.611252941738919,-1.4890381583817935,2.233047027870296,7.985840235031811
2.959618541262405,0.4604198763091017,5.596362560155101,-1.4091797560314754,2.2387606196240837,8.07095612134687
2.964222740025496,0.48280748250534256,5.582270762594787,-1.3284701948180067,2.2374960712457326,8.141434027907334
2.9690508148505494,0.5051824432177999,5.568986060646607,-1.2470558545389334,2.2311772729693002,8.199344441786366
2.9741026392827274,0.5274942159474929,5.556515502101218,-1.1650624101210698,2.2215603460882853,8.246553181395246
2.9793775814422023,0.5497098194083757,5.5448648780000065,-1.0825968783071174,2.210235823830921,8.28472360990984
2.984874679636286,0.5718121776466849,5.534038909216935,-0.999749642208019,2.1986345523311654,8.315323444001878
2.990592801412753,0.5937985231699966,5.524041412794855,-0.9165964077680002,2.1880361581346266,8.33963476403838
2.996530786644453,0.6156788847513429,5.5148754487171745,-0.8332000601276164,2.1795791358622316,8.358766081949684
3.0026875754919664,0.6374746761099652,5.506543448115898,-0.7496123993081195,2.1742718020881715,8.373665553682123
3.009062322253066,0.6592173941308469,5.499047324122817,-0.6658757437712983,2.173003532447507,8.385134627148227
3.0156544961943745,0.6809474294553219,5.492388566685103,-0.582024397499816,2.1765558455981155,8.39384159094473
3.0224639704889276,0.7027129879113031,5.486568322710105,-0.49808598159036876,2.185613019682557,8.40033463392684
3.0294911003680407,0.7245691181081286,5.481587462894201,-0.41408263525110034,2.200772025797937,8.405054142988456
3.036736791549122,0.746576838366108,5.47744663654169,-0.3300320938212158,2.2225516410580033,8.40834405911501
3.044202559932783,0.768802354776688,5.474146315603478,-0.2459486532300657,2.251400663916639,8.410462183395685
3.05189058348055,0.7913163614158544,5.471686829071177,-0.16184403139610887,2.287705199387987,8.411589378688689
3.0598037470947084,0.8141934134097343,5.470068388757216,-0.07772813760922198,2.3317950143787836,8.411837652307648
3.0679456812288057,0.8375113635535221,5.469291107381124,0.0063902389138544985,2.383948986016241,8.411257133381817
3.076320794864341,0.8613508534136844,5.469355009770262,0.09050281024767266,2.4443996807693815,8.409841977988428
3.084934303398478,0.8857948502213783,5.470260037872739,0.17460123002755695,2.513337111157608,8.407535247913456
3.093792251900692,0.9109282213329544,5.472006050173015,0.2586765825066915,2.5909117214430535,8.404232816741265
3.1029015341140216,0.9368373385473849,5.474592815998082,0.34271891067410415,2.677236655160005,8.399786361340782
3.1122699074994955,0.963609705098985,5.478020005104823,0.426716774287512,2.7723893566498217,8.394005498848118
3.1219060045504854,0.9913335986654832,5.482287172847698,0.5106568292759932,2.8764125567439014,8.386659129837716
3.1318193405371404,1.0200977242329223,5.487393741140458,0.5945234205743704,2.9893146900012217,8.377476048215772
3.1420203177794694,1.0499908711329347,5.493338975346202,0.6782981810565281,3.1110697879538667,8.366144877981144
3.152520226490799,1.0811015690124732,5.500121957156767,0.7619596298363395,3.2416168900262012,8.352313396766098
3.1633312421809237,1.1135177379127352,5.507741553455131,0.8454827638040004,3.3808590114626855,8.33558730626581
3.174466419560051,1.147326328027362,5.516196381093171,0.9288386368666586,3.528661705946209,8.315528510477522
3.1859396828403246,1.1826129450868241,5.525484767461838,1.0119939219714338,3.684851259771655,8.29165296420782
3.197765812291193,1.2194614576845406,5.535604706681552,1.094910451613512,3.84921255456648,8.263428156617978
3.2099604268680384,1.2579535832302053,5.546553811197687,1.1775447331796918,4.021486636681737,8.23027029765563
3.2225399627003406,1.2981684495970227,5.558329258529484,1.2598474361562482,4.201368033530409,8.191541279008321
3.2355216471963106,1.3401821299323269,5.570927732891046,1.3417628489463314,4.388501860298732,8.14654548560731
3.248923468495634,1.3840671485353142,5.584345361380509,1.4232283038024045,4.5824807645299055,8.094526538559174
3.262764139980987,1.4298919561806132,5.598577644418533,1.5041735691879963,4.782841760963826,8.03466405549932
3.277063059542793,1.4777203737902513,5.613619380110413,1.5845202097429896,4.989063014551555,7.9660705195188095
3.2918402632806956,1.5276110039357669,5.629464582207843,1.6641809149381777,5.200560635547936,7.887788352759608
3.3071163733200533,1.5796166102912463,5.646106391357225,1.7430587984657737,5.416685556781448,7.798787295232217
3.322912539422966,1.6337834658590609,5.663536979341883,1.821046671418096,5.636720569342561,7.6979621931156395
3.3392503740815567,1.6901506715524865,5.681747446056064,1.8980262933492524,5.859877598745621,7.584131303512067
3.3561518807970816,1.7487494475399428,5.7007277089895565,1.9738676063843732,6.085295308845263,7.4560352241710195
3.373639375272481,1.8096024006283955,5.7204663850534,2.048427958626083,6.312037125214129,7.312336556997778
3.391735399278765,1.8727227718805368,5.74095066463966,2.121551324196061,6.539089773192609,7.151620413304721
3.41046262699757,1.938113669612463,5.762166177881621,2.193067528329108,6.765362428422518,6.972395867050558
3.429843763693695,2.0057672938966884,5.784096853164912,2.2627914869996135,6.989686579592139,6.773098460311483
3.4499014366326617,2.07566415969261,5.806724768034908,2.330522471602728,7.210816704825833,6.552093863834931
3.470658078229588,2.1477723267408684,5.830029992750935,2.3960434102410777,7.427431865436989,6.307682795995482
3.4921358014969965,2.2220466453952383,5.853990426853346,2.4591202382010326,7.638138324776289,6.038107307428055
3.514356267950949,2.298428028643001,5.878581629235357,2.519501311275313,7.8414733071713725,5.7415585480108025
3.537340548237379,2.3768427617147148,5.9037766423481095,2.5769168967554212,8.035910024346288,5.416186149893143
3.561108975854526,2.4572018619581777,5.929545811315664,2.6310787582543527,8.219864116381144,5.060109387134665
3.585680994474108,2.539400503121989,5.955856598898207,2.6816798521256993,8.391701683493014,4.671430311199024
3.6110749995053277,2.6233175199569194,5.982673397419465,2.7283941552376896,8.54974912582126,4.248249113302858
3.6373081747048968,2.708815011215132,6.009957338971842,2.770876646370718,8.69230506261812,3.788682029462294
3.664396324817048,2.795738061841313,6.037666105435549,2.808763466665341,8.817654670423577,3.2908821800398806
3.692353705435461,2.883914608545549,6.065753740102203,2.8416722884657397,8.924086860996013,2.753063817887275
3.7211928515209163,2.973155477155509,6.09417046298686,2.8692029266446126,9.009914810725004,2.173530539275008
3.750924406292471,3.063254625262759,6.122862492253306,2.890938232037363,9.073500447650192,1.5507080765090377
3.781556952545099,3.153989629739261,6.151771874573679,2.9064453128024534,9.113283589907988,0.8831823218063803
3.8130968488424917,3.2451224656383406,6.180836327701704,2.915277136020517,9.12781649584854,0.1697432040680125
3.845548073498875,3.336400630596826,6.209989099061909,2.9169745680611974,9.115804611884856,-0.5905650767374496
3.8789120798048433,3.4275586767156745,6.239158844742521,2.911068917293823,9.076154265498083,-1.3983871939544192
3.913187666572,3.5183202193706555,6.2682695339154595,2.8970850453542787,9.008027920364967,-2.253993356668732
3.9483708687657066,3.608400498574305,6.297240384369002,2.8745451117875915,8.910907359561836,-3.1572102303351564
3.98445487375145,3.697509572169923,6.325985835486878,2.84297300948424,8.78466476469714,-4.1073476832014935
4.021429969473149,3.7853562198168946,6.3544155655817205,2.8018995326522247,8.629641094508735,-5.103123993084369
4.059283531671318,3.871652630761982,6.3824345609082425,2.750868292721381,8.446730431124942,-6.142593442702467
4.098000057978938,3.9561199350732315,6.409943243835456,2.6894423582943565,8.237468073597482,-7.2230817024288365
4.13756125732967,4.038494615809206,6.436837667418399,2.617211541270068,8.004119165567493,-8.341135949967041
4.177946203487762,4.118535807464881,6.4630097828311,2.5338001817703977,7.749763635141844,-9.492498155668995
4.219131561562411,4.1960334438163,6.488347784648804,2.4388752002137077,7.4783723316920225,-10.672111164196064
4.261091896000574,4.27081716713322,6.512736536650941,2.332154088571747,7.1948686391702426,-11.87416787917013
4.303800067671906,4.342765853524923,6.536058077536659,2.2134124097800454,6.905169731631094,-13.092213742175762
4.347227726207155,4.411817550841234,6.558192201634459,2.082490272358288,6.616202224353011,-14.319311553283741
4.391345901715567,4.477979573084764,6.5790171043580425,1.9392971568254505,6.335888446839003,-15.548275356483364
4.436125697446415,4.541338457553154,6.598410075926297,1.783814403260617,6.073102036205994,-16.771976614154514
4.481539082021946,4.602069477915214,6.616248219958903,1.6160946371190716,5.837595022512712,-17.983721441604843
4.527559776801098,4.660445428140341,6.632409166330094,1.4362574227030231,5.639902907747152,-19.17769274393102
4.574164231082501,4.716844457217813,6.646771740557124,1.244480495263713,5.491239130669675,-20.3494464235464
4.6213326756546795,4.77175684852451,6.659216545509762,1.040986031028249,5.403395338646204,-21.496447328467116
4.669050244139925,4.825790801910972,6.669626405820044,0.8260215577435779,5.3886685770420595,-22.6186292781518
4.717308152159035,4.879677487681392,6.67788662139748,0.5998352649620599,5.459840425024573,-23.71896522666249
4.766104927035848,4.934275891931638,6.683884974047101,0.36264561269543494,5.6302359827775135,-24.804039015869385
4.8154476859551645,4.9905782517594135,6.687511430174055,0.11460522253674107,5.91389243026048,-25.884619414981138
4.865353468472758,5.0497171760620185,6.688657482399423,-0.14424097161307028,6.325867888086351,-26.976249875933508
4.915850640233378,5.112975854942882,6.687215072683292,-0.41400347037240537,6.882721948452698,-28.099882671410516
4.966980398782807,5.1818030744274095,6.6830750379795685,-0.6950022970865105,7.603199814401119,-29.282602045574663
5.018798429527081,5.257835072571421,6.6761250150087035,-0.9878283175422571,8.50915202214168,-30.558494608692385
5.071376780252795,5.342926592792837,6.666246731833281,-1.2934132636291809,9.626718663731411,-31.96973061315647
5.124806046180723,5.439193779430151,6.6533125991969895,-1.6131105697607455,10.987793466098484,-33.56790484402797
5.179197983975024,5.549071714091136,6.637181493499382,-1.9487896182010251,12.631740790899423,-35.415624021568476
5.234688701115935,5.67538912200013,6.617693597317372,-2.30294585841671,14.607225306349749,-37.58815907180937
5.291442592335937,5.8214613750636275,6.594664138733204,-2.6788274491348036,16.973733590777712,-40.17457040556866
5.349657206086573,5.991198710971404,6.567875864241857,-3.0805731531904903,19.80170212286333,-43.27675785365027
5.409569193196288,6.189215732200037,6.537070132709951,-3.513340731726993,23.168629812638173,-47.00270068861394
5.471461350518288,6.4209020303264195,6.501936725392682,-3.9833677386131328,27.14507160313798,-51.44523149604007
5.535670370821552,6.692352746357799,6.462103048006551,-4.497820053573534,31.75672922129257,-56.6268738601929
5.6025938982851295,7.0099200385707245,6.417124847470816,-5.064088792175463,36.89284515229783,-62.36879360185316
5.672693098670837,7.378848490093703,6.366483959549061,-5.687776728193994,42.10220846791849,-68.00145239040903
5.746481583571773,7.799870574772888,6.309606192267121,-6.367791252098085,46.186978040723396,-71.7913947176296
5.824480289319502,8.261740355180121,6.24592827974614,-7.085705199274381,46.570157783813684,-70.05257770818592
5.907097692871303,8.727441933018259,6.175071227753397,-7.78623097635624,38.94860583646615,-56.66871606681647
5.994372112201486,9.116927991382921,6.0972089179898346,-8.352918137024405,19.227147513240705,-25.84605958083525
6.0855413921153145,9.309199466515327,6.013679736619591,-8.611378732832758,-10.231742637795978,19.036891342246808
6.178633386780468,9.206882040137367,5.927565949291263,-8.42100981941029,-36.99295855779917,60.30449314460012
6.2707022071818415,8.836952454559375,5.84335585109716,-7.81796488796429,-49.78741690116745,81.84835242326672
6.359071731727435,8.3390782855477,5.765176202217517,-6.999481363731622,-49.632308862003875,84.9003825522725
6.442462514582912,7.842755196927661,5.695181388580201,-6.1504775382088965,-43.416361192213806,79.08795621092165
6.520890066552189,7.4085915850055235,5.633676613198112,-5.35959797609968,-35.91647804789024,71.16582383247786
6.594975982402245,7.049426804526621,5.580080633437116,-4.647939737774902,-29.03378661622177,63.8696570033014
6.665470250447511,6.759088938364403,5.533601236059367,-4.009243167741888,-23.235084661307365,57.905946504117125
6.733061139831155,6.52673809175133,5.493508804381948,-3.4301837027007163,-18.484343989707632,53.25330442169766
6.798328520748668,6.341894651854254,5.459206967354941,-2.8976506584837396,-14.619102250395487,49.69352038467055
6.86174746726721,6.195703629350299,5.430230460770104,-2.400715454637034,-11.474426742964289,46.98963355701995
6.923704503560713,6.080959361920656,5.406223306223733,-1.9308191190668347,-8.915264683299055,44.93485408971388
6.984514097179919,5.991806715087666,5.386915115033065,-1.481470578169696,-6.8392671633040125,43.35939352912321
7.044432164330796,5.923414043454626,5.3721004092513684,-1.0478766428784638,-5.171529679109689,42.125592129145296
7.103666304765342,5.871698746663529,5.361621642822584,-0.6266207215870109,-3.858110865294843,41.12124587898138
7.1623832922319774,5.83311763801058,5.355355435606714,-0.2154082627971971,-2.8602538086789746,40.25400016123869
7.220714468612083,5.8045150999237904,5.353201352978742,0.18713173881518985,-2.1496593446790064,39.44735116166581
7.278759619611321,5.783018506477,5.355072670366893,0.5816052504318479,-1.7047244541424988,38.63807751420621
7.336589804676091,5.765971261935575,5.360888722871212,0.9679860255739099,-1.5075904041966357,37.77473936950561
7.394249517295447,5.750895357893609,5.370568583126951,1.345733419268966,-1.5418788285787532,36.81686685076068
7.451758470874383,5.735476569607822,5.38402591731964,1.713902087776573,-1.7910389271904785,35.734498516173396
7.509113236570461,5.717566180335917,5.401164938197406,2.071247072938307,-2.237256568719908,34.507790457501656
7.56628889837382,5.695193614648717,5.421877408926789,2.4163249775133235,-2.86088066921266,33.12649032734394
7.623240834520307,5.666584807956591,5.446040658701922,2.747589880786763,-3.6403081165005946,31.589153702192572
7.679906682599873,5.630181726791585,5.47351655750979,3.063481417808689,-4.5522447396762775,29.902065395114082
7.736208499867789,5.584659279394822,5.504151371687877,3.3625020717598297,-5.572236840712703,28.07790502576572
7.792055092661737,5.528936910987695,5.537776392405475,3.6432811220174868,-6.675354650274528,26.134253399097002
7.847344461771614,5.462183364484949,5.57420920362565,3.904623656008457,-7.836911096612713,24.092066355031964
7.901966295416464,5.383814253518822,5.613255440185735,4.145544319558777,-9.033117076708715,21.97424379970891
7.9558044379516515,5.2934830827517345,5.654710883381322,4.365286757555866,-10.241604232339524,19.804397876096633
8.008739268779168,5.191067040428339,5.698363750956881,4.563330736316833,-11.441781584533546,17.605884539066853
8.06064993918345,5.0766492245830035,5.7439970583200495,4.739389581707502,-12.615026229328658,15.401117847549255
8.11141643142928,4.950498962289717,5.791390954137125,4.8934007601829945,-13.744734930645716,13.211145751936192
8.160921421052176,4.8130516129832595,5.840324961738955,5.025512217702357,-14.81627957143143,11.055436755309291
8.209051937182009,4.664888817268945,5.890580083915979,5.13606658525545,-15.816914378516572,8.951811586321819
8.2557008253547,4.506719673483779,5.941940749768533,5.2255847011186685,-16.735678106797984,6.916452608792203
8.300768022089537,4.339362892415799,5.9941965967797195,5.294749227206591,-17.563322786687294,4.96393339028818
8.344161651013694,4.163729664548926,6.047144089051786,5.344388561109473,-18.292285560391154,3.1072276921284545
8.385798947659184,3.9808068089450144,6.10058797466288,5.375460838030757,-18.916704774993434,1.3576769042893289
8.425607015748634,3.79163976119508,6.154342583043188,5.38903760707365,-19.432468497440205,-0.27508612832173657
8.463523413360585,3.597315076220678,6.208232959113924,5.386286745790433,-19.837274765407514,-1.7832437139135755
8.499496564122792,3.3989423285666027,6.262095826571828,5.368454308651297,-20.130679047601824,-3.1609073930229585
8.533485987408458,3.1976355380905845,6.315780369658341,5.336845234721068,-20.314105501173696,-4.4042127724099025
8.565462342789363,2.9944944830788476,6.3691488220055525,5.292803106996969,-20.39080384491544,-5.511370238801501
8.595407287620151,2.7905864446296933,6.422076853075522,5.237689404608954,-20.365741625080403,-6.482652868103951
8.623313152066448,2.586929028378889,6.474453747121611,5.1728628759279145,-20.245430689796233,-7.320311653408627
8.649182442350236,2.3844747214809265,6.52618237588089,5.099659759393829,-20.037695216686327,-8.028417741358075
8.673027189565046,2.184097769314063,6.577178973474829,5.019375581980248,-19.751395387253243,-8.612640037539311
8.694868167258186,1.9865838154415307,6.627372729294631,4.933249181604855,-19.396124996552665,-9.079973114764597
8.7147340054126,1.792622565476004,6.67670522111068,4.842449450457209,-18.98190270039679,-9.438434202726762
8.73266023106736,1.602803538472036,6.725129715615252,4.748065108429941,-18.518875492032237,-9.696749086268635
8.74868826645208,1.4176147835517137,6.772610366699552,4.651097617567254,-18.017049964397426,-9.864045375745023
8.762864414287597,1.2374442839077393,6.819121342875224,4.552457163809804,-17.486062715130764,-9.94956849980019
8.775238857126674,1.0625836567564317,6.864645914513322,4.452961478811803,-16.934996650051215,-9.962431671320909
8.785864693694238,0.8932336902559196,6.90917552930144,4.353337162098594,-16.372245572582738,-9.91140670434053
8.794797030596797,0.7295112345300923,6.952708900922426,4.254223095055188,-15.805425755496758,-9.804758477883421
8.802092142942097,0.5714569769751247,6.995251131872978,4.156175510276354,-15.241330415554922,-9.650122425268362
8.807806712711848,0.41904367281957544,7.036812886975741,4.05967428602367,-14.685921208581176,-9.454421858526548
8.811997149440044,0.2721844607337637,7.077409629835977,3.9651300674384045,-14.1443499556046,-9.22382024554707
8.814718994047382,0.13074096117771766,7.117060930510362,3.872891864982934,-13.621003641920653,-8.963702660917255
8.81602640365916,-0.005469075241488874,7.155789849160191,3.7832548383737614,-13.11956610767989,-8.678680386295222
8.815971712906745,-0.1366647363182878,7.193622397543928,3.696468034510809,-12.64309057949359,-8.3726128759038
8.814605065543562,-0.26309564211322367,7.230587077889036,3.612741905751771,-12.194078109757864,-8.048641866657647
8.81197410912243,-0.38503642321080234,7.2667144969465545,3.5322554870851945,-11.774557960700784,-7.709233163225427
8.808123744890322,-0.5027820028178102,7.302037051817407,3.45516315545294,-11.386166896912608,-7.3562224602864035
8.803095924862143,-0.6166436717869362,7.336588683371936,3.381600930850076,-11.030225169596964,-6.990862404833733
8.796929488144274,-0.7269459234829059,7.370404692680436,3.3116923068017385,-10.707807650373748,-6.613868908909729
8.789660028909445,-0.8340239999866433,7.403521615748454,3.245553617712641,-10.419809082774444,-6.225465482731816
8.78131978890958,-0.9382220908143878,7.43597715192558,3.183298962885323,-10.167002756537876,-5.825425077639387
8.771937568001436,-1.0398921183797665,7.467810141554433,3.1250447121089295,-9.95009206744763,-5.413109635311415
8.761538646817637,-1.1393930390542428,7.499060588675523,3.0709136157558152,-9.769754394215434,-4.987508280562784
8.750144716427094,-1.2370905829963972,7.529769724833081,3.0210385329501874,-9.62667648453334,-4.547275935714699
8.73777381059713,-1.3333573478417307,7.5599801101625825,2.9755657735930403,-9.521580059706915,-4.090775164267954
8.724440237118712,-1.4285731484387998,7.589735767898513,2.934658021950361,-9.455235563623951,-3.6161253888481752
