th1 (rad),w1 (rad/s),th2 (rad),w2 (rad/s),a1 (rad/s^2),a2 (rad/s^2)
1.5756625467859182,-1.9682663231327577,2.341501080957398,0.4376276847314868,-8.418896042173413,-3.647643855204704
1.5559798835545906,-2.052455283554492,2.345877357804713,0.40115124617943976,-8.274765299890745,-4.168123844440528
1.5354553307190457,-2.1352029365533993,2.3498888702665077,0.35947000773503446,-8.131028976668219,-4.70903322765195
1.5141033013535117,-2.2165132263200813,2.353483570343858,0.31237967545851497,-7.9882215129632685,-5.2692276701332394
1.4919381690903109,-2.296395441449714,2.356607367098443,0.25968739875718255,-7.846656876367761,-5.847605450081403
1.4689742146758138,-2.3748620102133917,2.359204241086015,0.20121134425636852,-7.706397865951157,-6.443114171219162
1.4452255945736798,-2.4519259888729033,2.3612163545285783,0.1367802025441769,-7.56723023759019,-7.054747513232755
1.4207063346849509,-2.5275982912488053,2.36258415655402,0.06623272741184934,-7.428641505705861,-7.681532134779386
1.3954303517724629,-2.601884706305864,2.3632464838281386,-0.010582593935944518,-7.289804049534744,-8.322505323157246
1.3694115047094042,-2.6747827468012115,2.363140657888779,-0.09380764716751698,-7.1495620324686975,-8.976684365360958
1.342663677241392,-2.7462783671258983,2.3622025814171037,-0.18357449082112656,-7.0064216313175125,-9.64302890090696
1.315200893570133,-2.8163425834390736,2.3603668365088923,-0.28000477983019617,-6.85854415913112,-10.320397723986838
1.2870374677357421,-2.884928025030385,2.3575667887105904,-0.3832087570700646,-6.703741834558173,-11.00750165530465
1.2581881874854384,-2.9519654433759666,2.35373470113989,-0.49328377362311104,-6.5394761832102075,-11.70285422906925
1.2286685330516787,-3.017360205208069,2.3488018634036587,-0.6103123159138035,-6.362859331465804,-12.404722062958006
1.198494930999598,-3.0809887985227267,2.3426987402445207,-0.7343595365433836,-6.17065874994561,-13.111076918224379
1.1676850430143708,-3.142695386022183,2.335355144879087,-0.8654703057256274,-5.959306302340194,-13.819551625815627
1.136258089154149,-3.202288449045585,2.3267004418218304,-1.0036658219837837,-5.724912735389898,-14.527402255863644
1.1042352046636932,-3.259537576399484,2.3166637836019928,-1.1489398445424202,-5.463288987093129,-15.231479136123754
1.0716398288996984,-3.3141704662704154,2.3051743851565685,-1.3012546359036576,-5.169975870790798,-15.928209564097662
1.0384981242369944,-3.365870224978323,2.292161838797532,-1.4605367315446343,-4.8402837887303924,-16.613595282598816
1.0048394219872112,-3.414273062865627,2.2775564714820855,-1.6266726843706225,-4.469344113835891,-17.283227965845185
0.970696691358555,-3.458966504003986,2.261289744638379,-1.7995049640290743,-4.05217372455616,-17.93232605222202
0.9361070263185151,-3.4994882412495474,2.2432946949980885,-1.9788282245512945,-3.58375385597171,-18.555796215263303
0.9011121439060196,-3.5353257798092645,2.2235064127525757,-2.1643861867039274,-3.05912391338567,-19.14832253908616
0.865758886107927,-3.565917018943121,2.2018625508855365,-2.3558694120947887,-2.4734901595920764,-19.704486013891422
0.8300997159184957,-3.5906519205390417,2.1783038567645887,-2.552914272233703,-1.82234821983861,-20.218916254354355
0.7941931967131053,-3.6088754027374277,2.1527747140422515,-2.7551034347772467,-1.1016171488536124,-20.68647634584925
0.758104442685731,-3.6198915742259636,2.125223679694479,-2.961968198235739,-0.3077813911607426,-21.10248043839726
0.7219055269434713,-3.622969388137571,2.0956039977121215,-3.1729930026197115,0.5619646167587572,-21.462942161842573
0.6856758330620956,-3.617349741969983,2.063874067685924,-3.3876224242381374,1.5095761318084258,-21.76485018834807
0.6495023356423957,-3.602253980651899,2.029997843443543,-3.605270926121618,2.5360306710252876,-22.006465419510366
0.6134797958358766,-3.576893673941646,1.9939451341823267,-3.8253355803167217,3.6412235599326666,-22.187632466035375
0.5777108590964601,-3.5404814383423195,1.9556917783791594,-4.047211904977075,4.823897730698962,-22.31009649668597
0.5423060447130369,-3.49224246103533,1.9152196593293886,-4.270312869943935,6.081619657694553,-22.377815365681016
0.5073836201026836,-3.4314262644583846,1.8725165306299494,-4.494091023600745,7.41081315663241,-22.397256394047805
0.4730693574580997,-3.3573181328920607,1.827575620393942,-4.718063587541224,8.80686158719608,-22.37766745709571
0.4394961761291791,-3.2692495170201,1.7803949845185296,-4.941840262112181,10.264286537974655,-22.331313199307885
0.40680368095897806,-3.1666066516403535,1.7309765818974079,-5.16515339410526,11.777007071733273,-22.27366915444884
0.37513761444257454,-3.048836580923021,1.6793250479563553,-5.387890085649748,13.338677743753795,-22.22356885892417
0.34464924863334434,-2.9154498034854828,1.6254461470998578,-5.61012577423899,14.943095375493614,-22.20330072803286
0.3154947505984895,-2.7660188497305467,1.569344889357468,-5.832158781519319,16.584653047397033,-22.23865062833231
0.2878345621011841,-2.6001723192565764,1.5110233015422747,-6.054545287802642,18.258803148445278,-22.358879316094217
0.2618328389086183,-2.4175842877721236,1.4504778486642482,-6.278134080963585,19.96246599667868,-22.59660520427299
0.23765699603089707,-2.217959627805337,1.3876965078546124,-6.504100133006315,21.694279607296515,-22.98752166189837
0.2154773997528437,-2.0010168317323718,1.3226555065245493,-6.7339753496252985,23.454516650285733,-23.569795436186443
0.19546723143551997,-1.7664716652295145,1.2553157530282963,-6.969673303987163,25.244372749927717,-24.382835361218255
0.17780251478322484,-1.5140279377302372,1.1856190199884247,-7.213501657599346,27.0641137405602,-25.464829126377523
0.16266223540592248,-1.2433868003246353,1.1134840034124311,-7.468149948863121,28.909185945441276,-26.847918577458472
0.15022836740267612,-0.9542949408702226,1.0388025039238,-7.736629134637706,30.7627279793631,-28.54895573459376
0.14068541799397388,-0.6466676610765916,0.961436212577423,-8.022118691983644,32.58182110728879,-30.55222289339704
0.13421874138320797,-0.3208494500037037,0.8812150256575865,-8.327640920917615,34.273172686297336,-32.778124759284005
0.13101024688317092,0.02188227685926969,0.7979386164484104,-8.655422168510455,35.65207311101784,-35.029035971160745
0.13122906965176362,0.3784030079694481,0.7113843947633058,-9.005712528222062,36.378414330137126,-36.902830975732556
0.13501309973145809,0.7421871512708194,0.6213272694810852,-9.374740837979388,35.87217594394061,-37.67538307396807
0.1424349712441663,1.1009089107102255,0.5275798611012913,-9.751494668719069,33.24494172601933,-36.198639879166194
0.15344406035126854,1.4333583279704187,0.4300649144141006,-10.113481067510731,27.367398092165114,-30.97400736011279
0.16777764363097272,1.7070323088920698,0.3289301037389933,-10.42322114111186,17.300228071500598,-20.70933177532751
0.18484796671989343,1.8800345896070758,0.22469789232787468,-10.630314458865135,3.216988156511347,-5.538803883141002
0.2036483126159642,1.9122044711721893,0.11839474773922333,-10.685702497696544,-12.751214084609737,11.858697749930984
0.22277035732768607,1.784692330326092,0.011537722762257882,-10.567115520197234,-27.093711602100605,27.04624891158389
0.240617280630947,1.5137552143050859,-0.09413343243971446,-10.296653031081394,-37.080954934589016,36.69664016399815
0.25575483277399785,1.1429456649591958,-0.1970999627505284,-9.929686629441413,-42.250045309536034,40.481971859554946
0.2671842894235898,0.7204452118638355,-0.2963968290449425,-9.524866910845864,-43.79582124398486,40.16231142076228
0.27438874154222814,0.28248699942398686,-0.39164549815340116,-9.12324379663824,-43.21900847147685,37.77222516035529
0.277213611536468,-0.14970308529078163,-0.4828779361197836,-8.745521545034688,-41.615078147891424,34.72735714179416
0.2757165806835602,-0.565853866769696,-0.5703331515701304,-8.398247973616746,-39.60674105983366,31.78797932931602
0.27005804201586325,-0.9619212773680326,-0.6543156313062979,-8.080368180323585,-37.4944909669627,29.287281181564286
0.2604388292421829,-1.3368661870376597,-0.7351193131095337,-7.787495368507942,-35.40067430005184,27.33139754494837
0.24707016737180632,-1.6908729300381782,-0.8129942667946132,-7.5141813930584584,-33.36042374923127,25.919518678113068
0.23016143807142453,-2.024477167530491,-0.8881360807251978,-7.254986206277327,-31.370884393780237,25.00561280947798
0.2099166663961196,-2.3381860114682933,-0.960685942787971,-7.004930078182547,-29.415951161362337,24.527422880486686
0.18653480628143668,-2.632345523081917,-1.0307352435697965,-6.759655849377681,-27.478100219599856,24.41910251381657
0.1602113510506175,-2.9071265252779153,-1.0983318020635733,-6.515464824239515,-25.543710953588615,24.616233059856068
0.13114008579783837,-3.1625636348138015,-1.1634864503059683,-6.269302493640954,-23.60514360429881,25.057544789579328
0.09951444944970035,-3.3986150708567897,-1.2261794752423778,-6.018727045745161,-21.661183532077796,25.685383685537413
0.06552829874113245,-3.6152269061775675,-1.2863667456998293,-5.761873208889787,-19.716640208742305,26.445840431340393
0.02937602967935677,-3.8123933082649906,-1.3439854777887272,-5.497414804576383,-17.781494256412532,27.288913439819616
-0.008747903403293136,-3.9902082508291157,-1.398959625834491,-5.2245256701781875,-15.869802508942083,28.168816288556826
-0.048649985911584294,-4.148906275918536,-1.4512048825362729,-4.942837507292619,-13.998488800723056,29.044417103756754
-0.09013904867076966,-4.288891163925767,-1.5006332576091992,-4.652393336255052,-12.18611180219058,29.879744255435828
-0.13302796031002734,-4.410752281947673,-1.5471571909717496,-4.353595893700694,-10.451683457915811,30.64447620698199
-0.17713548312950406,-4.515269116526831,-1.5906931499087567,-4.047151131630875,-8.81359938868006,31.314337151936122
-0.22228817429477238,-4.6034051104136315,-1.6311646612250654,-3.7340077601115134,-7.288730316584288,31.87133533387306
-0.2683222253989087,-4.676292413579475,-1.6685047388261807,-3.415294406772783,-5.891709364008514,32.30380219765509
-0.31508514953470346,-4.73520950721956,-1.7026576828939084,-3.092256384796232,-4.634434157175885,32.60621383431442
-0.3624372446068991,-4.781553848791319,-1.7335802467418706,-2.7661942464530878,-3.5257861369870827,32.77879848102969
-0.4102527830948123,-4.81681171016119,-1.7612421892064014,-2.4384062616427906,-2.571553703620738,32.826952673913695
-0.4584209001964242,-4.842527247197397,-1.7856262518228294,-2.1101367349036537,-1.7745320066314576,32.7605021723229
-0.5068461726683982,-4.860272567263712,-1.806727619171866,-1.7825317131804246,-1.1347611438270622,32.59285073829539
-0.5554488983410353,-4.871620178701982,-1.8245529363036703,-1.4566032057974707,-0.6498564980415981,32.34005961807549
-0.6041651001280551,-4.878118743682398,-1.8391189683616451,-1.1332026096167158,-0.31537953453548173,32.019892987457
-0.6529462875648792,-4.881272539027753,-1.8504509944578122,-0.8130036797421458,-0.12519356352375458,31.650849838737685
-0.7017590129551567,-4.882524474662991,-1.8585810312552338,-0.49649518135476894,-0.07174507717708084,31.2511809541609
-0.7505842577017866,-4.883241925434762,-1.8635459830687815,-0.18398337181315993,-0.14620507514817724,30.837860538569505
-0.7994166769561342,-4.884703976186244,-1.865385816786913,0.12439523357253512,-0.33839364424555357,30.4254449761572
-0.8482637167179966,-4.888087912628699,-1.8641418644511878,0.42864968333410713,-0.6363921668486106,30.024704670758286
-0.8971445958442836,-4.894451834297185,-1.8598553676178466,0.72889673004169,-1.0257187296449615,29.640857927991064
-0.9460891141872555,-4.904709021593635,-1.8525664003174298,1.0253053093216007,-1.4879039630745885,29.271170134972827
-0.9951362044031918,-4.919588061224381,-1.8423133472242137,1.318017010671329,-1.9982641408417205,28.901618249761977
-1.0443320850154356,-4.939570702632798,-1.8291331771175003,1.6070331931689488,-2.5226504205901046,28.502294448880157
-1.0937277920417636,-4.964797206838699,-1.8130628451858108,1.8920561376577503,-3.0130186090321858,28.021319222320447
-1.1433757641101505,-4.9949273929290205,-1.7941422838092334,2.1722693298809546,-3.401942710215262,27.37743517099765
-1.1933250380394407,-5.028946820031173,-1.7724195905104239,2.446043681590931,-3.5969245506579552,26.45248925515157
-1.2436145062397523,-5.064916065537752,-1.7479591536945145,2.710568574142447,-3.4768683299976995,25.087152792169363
-1.29426366689513,-5.0996847488377295,-1.72085346795309,2.9614401020641403,-2.895623800978915,23.08678848576497
-1.3452605143835072,-5.128640986847518,-1.6912390669324486,3.19230798692179,-1.7004588065546153,20.24849182221304
-1.3965469242519823,-5.145645574913065,-1.6593159870632308,3.3947929051439205,0.22615706793415088,16.42095740475879
-1.448003380001113,-5.143384004233723,-1.6253680580117915,3.5590024791915083,2.901092294945515,11.597344774139243
-1.4994372200434503,-5.114373081284268,-1.5897780332198765,3.6749759269329005,6.172971352746424,6.010250999583115
-1.5505809508562929,-5.0526433677568034,-1.5530282739505474,3.7350784369287315,9.700893331713733,0.1600669626595787
-1.601107384533861,-4.955634434439666,-1.5156774895812601,3.7366791065553273,13.025938129613492,-5.288779521925757
-1.6506637288782577,-4.8253750531435315,-1.4783106985157068,3.6837913113360696,15.722957070618405,-9.725158599901725
-1.698917479409693,-4.668145482437348,-1.4414727854023461,3.5865397253370523,17.54472970109007,-12.796718485564007
-1.7455989342340665,-4.492698185426447,-1.4056073881489757,3.4585725404814123,18.46890028060183,-14.476153373766751
-1.7905259160883311,-4.308009182620429,-1.3710216627441616,3.313811006743745,18.64057553541851,-14.978379665893161
-1.8336060079145353,-4.121603427266244,-1.337883552676724,3.1640272100848135,18.27440132236441,-14.619695322408205
-1.8748220421871977,-3.9388594140426,-1.306243280575876,3.0178302568607314,17.57739335718322,-13.706448124318063
-1.9142106363276237,-3.763085480470768,-1.2760649780072686,2.880765775617551,16.71221566138354,-12.481551123410942
-1.9518414911323314,-3.5959633238569326,-1.247257320251093,2.7559502643834413,15.791032776980915,-11.114946714028848
-1.9878011243709008,-3.4380529960871233,-1.2196978176072586,2.644800797243153,14.883854163702773,-9.715108590553339
-2.022181654331772,-3.2892144544500956,-1.193249809634827,2.5476497113376193,14.0304000642371,-8.345851635722132
-2.055073798876273,-3.1489104538077246,-1.1677733125214507,2.464191194980398,13.250538761373685,-7.041279741865573
-2.0865629034143502,-3.016405066193988,-1.1431314005716466,2.3937783975617424,12.5519739229459,-5.816897227087042
-2.1167269540762903,-2.8908853269645287,-1.1191936165960292,2.335609425290872,11.935399752178672,-4.677136345657257
-2.1456358073459354,-2.771531329442742,-1.0958375223431205,2.2888380618342996,11.397761252932964,-3.6201783332981483
-2.173351120640363,-2.6575537169134122,-1.0729491417247774,2.2526362785013183,10.93422943693682,-2.640923634534656
-2.199926657809497,-2.548211422544044,-1.0504227789397642,2.226227042155972,10.53935250811616,-1.7327646247948858
-2.2254087720349376,-2.4428178974628825,-1.0281605085182044,2.208899395908023,10.207697372437586,-0.8886098781648003
-2.2498369510095664,-2.3407409237385064,-1.0060715145591241,2.200013297126375,9.934184231196989,-0.10145198975769036
-2.2732443602469514,-2.2413990814265365,-0.9840713815878603,2.1989987772287978,9.714240739820285,0.6353371896377721
-2.295658351061217,-2.1442566740283335,-0.9620813938155723,2.2053521491251753,9.543852875594384,1.327870471435012
-2.3171009178015005,-2.0488181452723895,-0.9400278723243206,2.2186308538395254,9.419558730964617,1.9816993977074264
-2.3375890992542243,-1.9546225579627432,-0.9178415637859254,2.2384478478166,9.338412430924784,2.6018169699048723
-2.357135324833852,-1.8612384336534953,-0.8954570853077594,2.2644660175156486,9.297933824424431,3.1926843760254853
-2.375747709170387,-1.768259095409251,-0.8728124251326028,2.2963928612759035,9.296052652551284,3.75826725648688
-2.3934303001244794,-1.675298568883738,-0.8498484965198437,2.333975533840772,9.33105175250421,4.302073183663035
-2.410183285813317,-1.581988051358696,-0.826508741181436,2.3769962656774024,9.401511408345666,4.827185685297607
-2.426003166326904,-1.4879729372752393,-0.802738778524662,2.4252681225303783,9.506255532102141,5.336292294491925
-2.4408828956996564,-1.392910381954218,-0.7784860972993582,2.4786310454752973,9.644299543794272,5.831705357456593
-2.454811999519199,-1.2964673865162752,-0.7536997868446053,2.536948099049863,9.81479937179365,6.315375042081982
-2.4677766733843614,-1.1983193927983387,-0.7283303058541066,2.600101849470683,10.017000770972386,6.78889439231451
-2.4797598673123447,-1.0981493850886148,-0.7023292873593998,2.667990793393828,10.250188072420642,7.25349650702049
-2.4907413611632307,-0.9956475043644084,-0.6756493794254615,2.740525758464033,10.513631490297517,7.710044078248942
-2.500697836206875,-0.8905111894614333,-0.6482441218408213,2.817626199246522,10.806532198122019,8.159011663186416
-2.5096029481014894,-0.782445867480213,-0.620067859848356,2.899216315878386,11.127964543698411,8.600461229635382
-2.5174274067762914,-0.671166222043229,-0.5910756966895722,2.98522092817474,11.476815004502006,9.034011739278677
-2.524139068996724,-0.5563980719982089,-0.5612234874078248,3.075561045567527,11.851717806087947,9.458803842651326
-2.529703049716706,-0.43788089393732943,-0.5304678769521495,3.1701490839940405,12.250987551058383,9.8734611759149
-2.534081858656079,-0.3153710184267456,-0.4987663861122091,3.2688836957531895,12.672549752138416,10.276050287726015
-2.5372355688403467,-0.18864552090536144,-0.4660775491546772,3.3716441986304497,13.11387084364659,10.664041891792959
-2.5391220240494,-0.05750681246889555,-0.4323611071683727,3.4782846175483795,13.57189006667745,11.034276931262003
-2.539697092174089,0.07821208819787895,-0.39757826099288895,3.5886273868609995,14.04295657566814,11.382941829758792
-2.5389149712921104,0.21864165395456034,-0.36169198712427897,3.7024568051585875,14.522776166222961,11.705558238618806
-2.536728554752565,0.36386941561679,-0.3246674190726931,3.8195123875447754,15.006373113118189,11.996993483072174
-2.533089860596397,0.5139331467479719,-0.2864722951972453,3.9394823223754973,15.488073629790316,12.251498631524985
-2.5279505291289173,0.668813883045875,-0.24707747197349034,4.0619973086907475,15.961518265386198,12.462781484298246
-2.5212623902984586,0.828429065699737,-0.20645749888658285,4.18662512353373,16.419710942566553,12.624121579957567
-2.5129780996414612,0.9926261751254025,-0.16459124765124555,4.312866339333306,16.855112067187214,12.728533297776291
-2.503051837890207,1.1611772957972746,-0.1214625842579125,4.440151672311069,17.25978194842264,12.76898104367426
-2.4914400649322346,1.333775115281501,-0.0770610675348018,4.567841482747812,17.62557841337878,12.738647143956719
-2.4781023137794196,1.5100308994152887,-0.031382652707323676,4.695227954187379,17.94440882113033,12.631248354200272
-2.4630020047852668,1.689474987626592,0.015569626834550113,4.821540437729381,18.208531668118592,12.44139093551049
-2.446107254909001,1.871560304307778,0.06378503121184392,4.945954347084486,18.410896852592597,12.164947447257441
-2.427391651865923,2.055669272833704,0.11324457468268878,5.067603821557061,18.545506947050015,11.799431467032608
-2.406834959137586,2.241124342304204,0.16392061289825938,5.185598136227386,18.607775343559258,11.34434039984622
-2.384423715714544,2.427202095739797,0.21577659426053325,5.299041540225849,18.594851974167536,10.80143261871433
-2.360151694757146,2.613150615481472,0.26876700966279177,5.407055866412992,18.505884664777867,10.174904642461629
-2.3340201886023313,2.798209462129251,0.3228375683269217,5.508804912837608,18.342185128583203,9.471437889431307
-2.306038093981039,2.981631313415083,0.37792561745529774,5.603519291731921,18.10727380523668,8.700093148042072
-2.276221780846888,3.1627040514674496,0.43396081037261697,5.690520223212341,17.806787186289753,7.872043831861383
-2.2445947403322135,3.340771923330347,0.4908660126047404,5.769240661530955,17.448244082504722,7.000154946937478
-2.21118702109891,3.5152543641553944,0.5485584192200499,5.83924221100033,17.040681830230884,6.098431290233901
