th1 (rad),w1 (rad/s),th2 (rad),w2 (rad/s)
6.186499336882141,-0.0894895059759557,5.215339441174832,-1.582186642081964
6.185604441822382,-0.1193666829617888,5.1995175747540125,-1.4793954794861472
6.184410774992764,-0.1471015759501337,5.184723619959151,-1.3773674974010428
6.182939759233262,-0.17281073480862016,5.17094994498514,-1.276018127826328
6.181211651885176,-0.1966129403108265,5.1581897637068765,-1.1752699308938315
6.179245522482068,-0.21862873540003938,5.146437064397938,-1.075052313822613
6.177059235128068,-0.238980083426542,5.135686541259712,-0.9753010952471262
6.174669434293802,-0.25779011461311435,5.1259335303072415,-0.8759579671900286
6.172091533147671,-0.2751829327994473,5.117173950635341,-0.7769698928695699
6.169339703819676,-0.29128346251075116,5.109404251706645,-0.678288468094481
6.166426869194568,-0.3062173222776763,5.102621367025701,-0.5798692662736303
6.163364695971792,-0.32011071442417316,5.096822674362964,-0.48167118135871395
6.16016358882755,-0.33309032462781085,5.0920059625493765,-0.3836557788329925
6.156832685581272,-0.34528322673479955,5.088169404761047,-0.28578666178213064
6.153379853313925,-0.35681678979522746,5.085311538143225,-0.1880288568626452
6.149811685415973,-0.36781858523045674,5.083431249574598,-0.09034822342566205
6.146133499563668,-0.3784162925668796,5.082527767340342,0.0072891119755041645
6.142349336637999,-0.38873760234543375,5.082600658460097,0.10491729405392154
6.138461960614545,-0.3989101146925527,5.083649831400637,0.20257124879251623
6.134472859467619,-0.40906123163901015,5.085675543888562,0.3002871633702425
6.130382247151229,-0.4193180405994676,5.088678415522264,0.3981029338502132
6.126189066745234,-0.4298071854568764,5.092659444860766,0.49605857750822724
6.1218909948906655,-0.4406547203892123,5.097620030635849,0.5941966052440746
6.117484447686773,-0.4519859398636776,5.103561996688289,0.692562347512266
6.112964588288136,-0.46392517600946703,5.110487620163412,0.7912042245019821
6.108325336528042,-0.47659555173480067,5.118399662408432,0.8901739477118756
6.103559381010694,-0.4901186743070007,5.127301401885551,0.9895266353728194
6.098658194267624,-0.5046142494466921,5.137196668239279,1.0893208180721738
6.093612051773157,-0.520199590020469,5.148089876420001,1.1896183030455352
6.088410055872952,-0.5369889858024618,5.159986059450456,1.2904838554459725
6.083040166014928,-0.5550928910858659,5.1728908980049155,1.391984641880489
6.077489237104069,-0.5746168746451724,5.18681074442372,1.4941893648940778
6.071743068357617,-0.5956602610773464,5.201752638072661,1.5971669960270942
6.065786465746844,-0.6183143732176472,5.217724308032932,1.7009849886038604
6.0596033220146674,-0.6426602614510419,5.234734157918971,1.8057068185133847
6.053176719400157,-0.6687657767386881,5.2527912261041045,1.9113886609948294
6.04648906163277,-0.6966818097767961,5.271905112714053,2.01807496329117
6.039522243535003,-0.726437479317974,5.292085862346965,2.12579261731002
6.032257868741823,-0.7580340100591315,5.313343788520065,2.234543375192682
6.024677528641232,-0.7914369987489964,5.335689222271991,2.344294089144267
6.016763158653742,-0.8265667343755615,5.359132163163434,2.4549643055511052
6.008497491309986,-0.863286228854119,5.383681806218945,2.5664107213882015
5.999864629021444,-0.9013866524304526,5.409345913432827,2.6784080502298924
5.99085076249714,-0.9405699902137621,5.436129993935126,2.7906259961310402
5.981445062595003,-0.9804289968522167,5.464036253896436,2.9026023698790375
5.971640772626481,-1.0204249970764423,5.493062277595227,3.0137130021655723
5.961436522655716,-1.059864843573727,5.523199407616882,3.1231401270509287
5.950837874219979,-1.0978794723250433,5.554430808887392,3.229842428179975
5.9398590794967285,-1.133408000863951,5.586729233169192,3.332531980578592
5.928524999488089,-1.1651930624662936,5.6200545529749775,3.4296657051683455
5.916873068863426,-1.1917946604874916,5.654351210026661,3.519461143085646
5.904955122258551,-1.2116304933567243,5.689545821457518,3.599947306238883
5.892838817324984,-1.2230493206252275,5.725545294519907,3.6690595363816496
5.8806083241187315,-1.2244393517871597,5.762235889883723,3.7247811149928407
5.86836393060086,-1.214365375992816,5.799483701033651,3.7653231703639465
5.856220276840932,-1.1917176484284373,5.83713693273729,3.7893199220779885
5.8443031003566475,-1.155845951284441,5.87503013195807,3.796003343900477
5.832744640843803,-1.1066487935443656,5.9129901653970744,3.78531680562673
5.821678152908359,-1.0445942901828433,5.950843333453342,3.75793644187081
5.811232210006531,-0.9706654007181994,5.98842269787205,3.715191150763829
5.801525555999349,-0.886242064536266,6.025574609379688,3.6588991420824932
5.792663135353986,-0.79294797202897,6.062163600800512,3.591159347097575
5.784733655633696,-0.6924943874143685,6.098075194271488,3.5141418485233498
5.777808711759552,-0.5865474581224003,6.133216612756722,3.429912803627362
5.771943237178328,-0.47663348832146557,6.167515740792996,3.340312693299068
5.767176902295113,-0.36408456911171905,6.200918867725987,3.2468901910129984
5.763536056603996,-0.2500185900493007,6.233387769636117,3.150882703429714
5.761035870703504,-0.13534394887832396,6.264896596670415,3.0532298583889297
5.759682431214721,-0.02077918550818826,6.295428895254304,2.954606372680222
5.759474639359639,0.09312037199673351,6.324974958981106,2.855463485641674
5.760405843079607,0.20593442833579173,6.353529593837523,2.7560715934646747
5.762465187362965,0.3173512886806473,6.38109030977217,2.6565597754859773
5.765638700249771,0.4271448015301397,6.40765590752703,2.556950163228683
5.7699101482650725,0.5351552180161975,6.433225409159316,2.4571865643765864
5.775261700445235,0.6412738752421172,6.457797274803082,2.3571575851478377
5.781674439197656,0.7454312931355866,6.48136885065456,2.2567148936204737
5.789128752129011,0.8475881535442581,6.503935999590765,2.1556874000652346
5.797604633664454,0.94772862087587,6.525492873591418,2.0538921177119818
5.807081919873212,1.0458555092918382,6.546031794768537,1.9511423856201247
5.817540474966131,1.1419868686121675,6.565543218624739,1.847254029899817
5.828960343652252,1.2361536311325194,6.584015758923737,1.742049934934255
5.841321879963577,1.3283980253210181,6.60143625827308,1.6353634041544929
5.854605860216788,1.4187725160746498,6.617789892314625,1.5270406147156612
5.868793585377534,1.5073390739440813,6.633060298461782,1.4169424127450168
5.883866976116975,1.5941686078759223,6.647229722589232,1.3049456546075553
5.899808662195734,1.679340418424744,6.6602791791353075,1.190944273254419
5.916602066379982,1.7629415419006556,6.672188621867852,1.0748502356395007
5.934231481798988,1.8450658611605317,6.682937124224247,0.9565945562169538
5.952682140410593,1.9258128560281376,6.692503069786416,0.8361285419211059
5.971940268970874,2.0052858556392295,6.700864355205627,0.7134254654628351
5.991993127527266,2.0835896361238513,6.7079986098602555,0.5884828962433255
6.0128290238885045,2.1608271796742256,6.7138834388226885,0.46132596174196394
6.034437295685247,2.237095375168136,6.718496698440108,0.33201186656356513
6.056808249436928,2.312479396869303,6.721816817105744,0.20063605999672943
6.079933043405621,2.387045448713935,6.723823177705712,0.06734051214484527
6.10380349789276,2.4608315128054583,6.72449658282716,-0.06767537471218374
6.128411813020815,2.533835702748302,6.723819829080038,-0.20414064448844355
6.153750170048298,2.6060018146290496,6.721778422635154,-0.3416948777561112
6.179810188194589,2.6772017229251843,6.718361473857593,-0.4798660054233026
6.206582205423841,2.747214435509664,6.71356281380336,-0.6180436075916554
6.234054349778937,2.8157019738295164,6.707382377727444,-0.7554479744642818
6.262211369517232,2.8821828765385504,6.699827897982801,-0.8910961182411986
6.2910331982826175,2.946005143766571,6.690916936800389,-1.0237673816089516
6.3204932497202835,3.006321926738018,6.6806792629843,-1.1519734005552067
6.350556468987664,3.0620752052599336,6.6691595289787475,-1.2739399134620264
6.3811772210402635,3.1119948379592275,6.656420129844127,-1.38761090758234
6.412297169419856,3.154622082287951,6.6425440207683035,-1.4906879497883565
6.443843390242735,3.188366826632986,6.62763714127042,-1.5807176453409553
6.475727058509065,3.211604837131819,6.6118299648170105,-1.6552358593041454
6.507843106880383,3.2228139949989494,6.595277606223969,-1.7119667943898154
6.540071246830372,3.2207368666978544,6.578157938280071,-1.7490583970105613
6.572278615497351,3.2045437567045467,6.560667354309965,-1.7653168024410408
6.6043240530643965,3.1739612628835747,6.543014186285554,-1.7603896433849795
6.636063665693232,3.1293326259786087,6.525410289851704,-1.7348500392355044
6.667356991953018,3.071590646610571,6.508061789459349,-1.6901539199196356
6.698072898419124,3.002147502743179,6.491160250260153,-1.6284771009110228
6.728094373446556,2.922728465053111,6.474875479251042,-1.5524709915366097
6.757321658097087,2.8351883723357747,6.459350769335677,-1.464992860545988
6.785673541820445,2.741347137965369,6.444700840730217,-1.3688629646095791
6.813087013200098,2.642867461986374,6.431012211084122,-1.2666821672313686
6.839515687819962,2.541182005339156,6.418345389411808,-1.1607208815728423
6.864927507873354,2.437464888205475,6.406738180596079,-1.052872332942044
6.8893021567554085,2.332636011970509,6.396209457266659,-0.9446538802461161
6.912628516875113,2.2273856144026816,6.386762918464198,-0.8372384233743995
6.93490237301914,2.122208499342923,6.378390534230454,-0.7315007134196293
6.956124458012569,2.017440513554279,6.371075527096258,-0.6280677946605651
6.976298863148112,1.9132928073830229,6.364794849149652,-0.5273670232863399
6.995431791221942,1.8098816772544768,6.359521178916788,-0.42966834876023235
7.013530607994487,1.707253277199812,6.355224495429185,-0.3351196961708916
7.030603140766485,1.605403344917674,6.351873298467477,-0.24377554360625453
7.046657174215661,1.504292507006379,6.349435543031414,-0.1556194152764408
7.061700099285725,1.4038578754579583,6.34787934887865,-0.07058124524665986
7.075738678040304,1.3040216448444746,6.347173536426183,0.011449418894807481
7.088778894488749,1.2046973253111684,6.347288030615132,0.09061349588195186
7.100825867741861,1.1057941465950563,6.348194165573951,0.16707499094656403
7.111883809207812,1.0072200673649996,6.349864915483417,0.2410155511015261
7.121956009881462,0.9088837336871178,6.352275070994432,0.31263047564581015
7.131044847218333,0.8106956544457685,6.3554013757508905,0.3821258081755339
7.139151803762791,0.7125688003873326,6.359222633832646,0.4497162224293947
7.146277491766664,0.6144187856817807,6.36371979605694,0.5156234818421416
7.152421679623482,0.5161637545225337,6.368876030875361,0.5800753042897728
7.157583317168708,0.4177240683201199,6.374676783918259,0.6433045018328327
7.161760557851909,0.319021869768127,6.381109828936587,0.7055482926347536
7.16495077654959,0.21998058711283142,6.3881653118629345,0.7670477005171525
7.167150582420718,0.12052443436237795,6.395835788868106,0.8280469681732209
7.168355826764342,0.020577960313365187,6.404116258549838,0.8887929137590564
7.168561606367476,-0.07993429912161235,6.413004187687428,0.9495341578175932
7.167762263376259,-0.18108800468641428,6.422499529265604,1.0105201382126816
7.165951383329395,-0.2829589620785528,6.432604730647731,1.071999814486857
7.163121793708609,-0.3856227467166299,6.4433247287926,1.1342199389201113
7.159265566241443,-0.48915389403026743,6.454666928181801,1.1974227382941915
7.15437402730114,-0.5936245138920411,6.466641155564743,1.2618428063901286
7.14843778216222,-0.6991021486208661,6.479259583628645,1.32770295086884
7.141446760676011,-0.8056466449828562,6.492536613137333,1.3952086679399254
7.133390294226182,-0.9133057513933732,6.506488699816733,1.4645408335709762
7.124257236712249,-1.0221090832122628,6.5211341081524425,1.5358461025666135
7.114036145880126,-1.1320600258060474,6.536492569178109,1.6092244026220364
7.102715545622066,-1.2431250766389388,6.552584813204329,1.684712813239923
7.090284294855676,-1.3552200831047345,6.569431941336728,1.7622650562463433
7.076732094024629,-1.468192845970698,6.587054591899192,1.8417258435727515
7.062050165564922,-1.5818016847516736,6.6054718503349195,1.922799507825507
7.046232148717405,-1.6956898854562092,6.624699845413175,2.0050128016609685
7.0292752498628435,-1.8093565893479633,6.644749973429785,2.0876726583532856
7.0111816839693635,-1.9221257725991685,6.665626700013318,2.1698212557068186
6.991960426243372,-2.033116634663013,6.687324912570387,2.250193095188712
6.9716292598967415,-2.141220978186458,6.709826843522274,2.3271820291369467
6.950217050114877,-2.2450957858135854,6.733098663813643,2.398829905988457
6.927766092256741,-2.343181469807944,6.757086962873528,2.4628517574203386
6.904334277558662,-2.4337568460733965,6.7817154804477315,2.516713325580272
6.879996709097928,-2.515038906759473,6.806882613703534,2.5577725924474537
6.854846320030333,-2.585327285460928,6.832460339628009,2.5834854782302674
6.828993047175723,-2.643179940348407,6.858295194410311,2.5916570074089624
6.802561247772239,-2.6875913036746635,6.884211764484401,2.5806975872355955
6.775685334735492,-2.718133704155449,6.910018740356756,2.5498290921961373
6.748503997693938,-2.7350246729205603,6.935517031278717,2.4991876740412957
6.721153750964732,-2.739099653463389,6.96050890801913,2.4297937369169884
6.693762754430098,-2.731696185720331,6.9848068453883,2.3433967467905363
6.666445792572895,-2.7144800378568115,7.008240812856205,2.242236964663493
6.639300992194327,-2.689255278373609,7.03066318250284,2.1287826761468733
6.612408439410591,-2.657795952582479,7.051951009264309,2.0054957690102735
6.585830479884766,-2.6217221914043796,7.0720059669544115,1.8746579743240352
6.559613257970723,-2.5824268319216834,7.090752546697652,1.738266739085958
6.533788989651506,-2.541046333867711,7.108135214088511,1.597992470425219
6.508378526312829,-2.4984639550407466,7.124115138792764,1.4551806568678878
6.483393886762422,-2.4553325760504037,7.138666945361442,1.310881459779718
6.458840561001918,-2.4121068822549177,7.151775759959239,1.1658925076585782
6.434719492179369,-2.3690778044859404,7.163434685035825,1.020805014239568
6.41102871413451,-2.3264050172373913,7.173642735178221,0.8760473402150356
6.387764663962136,-2.2841454467215847,7.182403208580371,0.7319230994460266
6.36492320949492,-2.2422771337018923,7.1897224395748305,0.5886428432963396
6.342500438157901,-2.200718587369841,7.195608868007794,0.4463494596789282
6.320493252284203,-2.1593441481724214,7.200072362604583,0.30513796006478544
6.298899810802479,-2.1179960092924346,7.203123742205231,0.1650705187118002
6.277719850709555,-2.0764935415754944,7.204774447392349,0.02618763005934635
6.256954915293799,-2.034640496924881,7.2050363236929424,-0.11148383804087952
6.23660851032455,-1.9922305722801759,7.2039214853125335,-0.24792503808399965
6.216686204601748,-1.9490517223403476,7.201442234931694,-0.3831214486460369
6.197195687378344,-1.904889524456397,7.197611020445233,-0.5170606667049117
6.178146792133781,-1.8595298272763974,7.1924404137781845,-0.6497313532193698
6.1595514938610165,-1.8127608560654913,7.185943100245991,-0.7811230728085465
6.1414238853003615,-1.7643749009034762,7.178131869517905,-0.9112268264890309
6.123780136291327,-1.7141696774163295,7.169019601253015,-1.0400361210658278
6.106638439517163,-1.6619494215382578,7.1586192400423565,-1.1675484525692872
6.090018945301781,-1.607525758444468,7.146943755516664,-1.2937671064412266
6.073943687717336,-1.5507183699397091,7.134006084452252,-1.4187031959720922
6.058436504017939,-1.4913554732182412,7.119819052492531,-1.542377874343768
6.043522949285756,-1.4292741162753526,7.104395273749093,-1.664824665723069
6.0292302081230025,-1.3643202908314627,7.087747027091862,-1.7860918680102567
6.015587005214688,-1.296348862121577,7.06988610841176,-1.9062449845770608
6.002623516593473,-1.2252233162024047,7.05082365856599,-2.0253691448082054
5.990371283431449,-1.1508153296458277,7.030569967117907,-2.143571473326242
5.97886313013499,-1.0730041739749825,7.009134252384645,-2.2609833648779216
5.96813308839524,-0.9916759786213403,6.986524418735866,-2.3777626149581885
5.958216328609027,-0.9067228926135271,6.962746792586284,-2.4940953436906272
5.949149099682892,-0.8180422082946054,6.9378058391493775,-2.6101976297822147
5.940968677599947,-0.7255355425396655,6.911703862851556,-2.7263167388941003
5.93371332217455,-0.629108215751212,6.884440695462614,-2.842731781309187
5.927422240017038,-0.5286690314183996,6.856013377649522,-2.9597535599460376
5.922135549702854,-0.424130746393343,6.826415842050062,-3.077723261217727
5.91789424223892,-0.31541164417165535,6.7956386094378844,-3.1970094836746465
5.914740125797204,-0.20243879373283646,6.763668514601138,-3.3180028735032687
5.912715737859876,-0.08515381223113459,6.730488485866105,-3.441107316615618
5.911864199737565,0.03647772795947386,6.696077412699949,-3.5667261933720527
5.912228977017159,0.16245167632287644,6.6604101507662286,-3.6952416002110615
5.913853493780389,0.2927033374760031,6.623457734764118,-3.8269836552881515
5.916780527155149,0.4270753569219452,6.585187898211236,-3.9621860342647945
5.9210512807243685,0.5652719244062616,6.545566037868588,-4.100922806493277
5.9267039999684314,0.7067951638810059,6.504556809803655,-4.243020711120545
5.933771951607241,0.8508595540952908,6.46212660269245,-4.387940814143165
5.942280547148194,0.9962816334017188,6.418247194551019,-4.5346251998302805
5.952243363482211,1.141346588313146,6.372900942552716,-4.681310044380396
5.963656829365342,1.2836628206001481,6.326087842108913,-4.825319178461848
5.976493457571343,1.4200326264272536,6.277834650324294,-4.962875456880673
5.990693783835615,1.5463922517186321,6.2282058957554876,-5.089001839700868
6.006157706352802,1.6579020267253752,6.177315877358479,-5.197622305425315
6.022736726620056,1.7492788230523963,6.125339654304226,-5.281989669627671
6.04022951485058,1.8154269975906783,6.0725197576079495,-5.335519367462881
6.0583837848264865,1.852312806365844,6.0191645639333204,-5.352957120510771
6.076906912890145,1.8578610787813312,5.965634992728213,-5.33158135651033
6.095485523677958,1.8325337647411923,5.912319179163109,-5.27197833249267
6.11381086132537,1.779310717393579,5.859599395838183,-5.178011451878697
6.131603968499306,1.7030529663735983,5.807819281319396,-5.055961541060626
6.148634498163042,1.6095187125100625,5.75725966590879,-4.913208653963425
6.164729685288142,1.504410681347542,5.7081275793691555,-4.75696906078745
6.179773792101617,1.3927188619420519,5.660557888761281,-4.593440167026728
6.1937009807210375,1.2784214620316061,5.614623487091014,-4.427430766371218
6.206485195341354,1.1644639692372467,5.570349179427302,-4.2623618413221775
6.218129835033726,1.0528936428761617,5.52772556101408,-4.100468995224405
6.228658771462488,0.9450491611201711,5.486720871061836,-3.9430710208378
6.23810926307369,0.8417459413635155,5.447290160853458,-3.79082595532928
6.246526722487324,0.7434311748207654,5.409381901300166,-3.643941694160951
6.253961034235532,0.6503027126160532,5.372942484358556,-3.5023351018291238
6.260464061361692,0.5623953393838266,5.3379191333402645,-3.3657457402983875
6.266088014755531,0.47964103861322727,5.304261675937281,-3.2338139950126528
6.270884425141663,0.4019098875177576,5.271923535987154,-3.1061330556859583
6.274903524016841,0.3290371216789682,5.240862205430295,-2.9822824801931205
6.27819389523363,0.2608405989897326,5.211039380628364,-2.8618491485682704
6.2808023012235275,0.1971317332070714,5.182420889142681,-2.7444397632592086
6.2827736185555985,0.1377220583666898,5.154976491510089,-2.6296877805944443
6.284150839139265,0.08242691556700521,5.128679613704144,-2.517256735409157
6.284975108294935,0.031067277679935015,5.103507046350053,-2.4068412735754956
6.285285781071734,-0.016529603357270807,5.0794386336142985,-2.298166763282388
6.285120485038162,-0.0605302689679021,5.056456965981474,-2.1909880558859824
6.284515182348483,-0.10109554271827151,5.034547085422615,-2.0850877664688285
6.2835042269213,-0.13838123649241055,5.013696207757927,-1.9802743110934646
6.282120414556376,-0.1725389454573164,4.993893464646992,-1.8763798500227415
