th1 (rad),w1 (rad/s),th2 (rad),w2 (rad/s),a1 (rad/s^2),a2 (rad/s^2)
5.110173956570726,1.3181165173858072,1.9129391896350478,-0.6176517750652634,8.749653779406309,-0.5924831184329826
5.123355121744584,1.4056130551798702,1.9067626718843953,-0.6235766062495932,8.575282708845844,-0.8489688718257099
5.137411252296383,1.4913658822683287,1.9005269058218994,-0.6320662949678503,8.377678848246553,-1.144023889222513
5.1523249111190665,1.5751426707507943,1.8942062428722208,-0.6435065338600754,8.156137819955138,-1.4795698424071397
5.168076337826575,1.6567040489503457,1.8877711775336201,-0.6583022322841467,7.910474639039857,-1.856797147441416
5.184643378316078,1.7358087953407444,1.8811881552107788,-0.6768702037585609,7.641121882427068,-2.2760237379397625
5.202001466269486,1.812220014165015,1.8744194531731933,-0.6996304411379585,7.349218050546876,-2.736571295171106
5.220123666411136,1.8857121946704838,1.8674231487618136,-0.7269961540896696,7.036678963249136,-3.236670319057178
5.238980788357841,1.956078984302975,1.860153187220917,-0.7593628572802413,6.706244724929229,-3.7734058073597803
5.25854157820087,2.0231414315522676,1.8525595586481145,-0.7970969153538391,6.361495140258046,-4.342714628212213
5.2787729925163935,2.086756382954848,1.8445885894945762,-0.8405240616359613,6.006827605378331,-4.939443711144632
5.299640556345942,2.1468246590086313,1.8361833488782164,-0.8899184987474076,5.647393514461662,-5.557474853289492
5.3211088029360285,2.2032985941532477,1.8272841638907424,-0.9454932472803025,5.288992076988738,-6.189917328759823
5.343141788877561,2.256188514923135,1.8178292314179394,-1.0073924205679008,4.937923971595317,-6.829363908277605
5.3657036740267925,2.3055677546390885,1.8077553072122603,-1.0756860596506768,4.600811157669732,-7.4681998794117375
5.388759351573183,2.3515758662157857,1.7969984466157536,-1.1503680584447942,4.284392988724825,-8.098948932126358
5.412275110235341,2.394419796103034,1.7854947660313056,-1.2313575477660577,3.9953120081979074,-8.714635166204536
5.436219308196371,2.434372916185013,1.773181190553645,-1.318503899428103,3.7399049504973907,-9.309137776095136
5.460563037358221,2.471771965689987,1.7599961515593638,-1.4115952771890545,3.5240151147620544,-9.877514768942953
5.485280757015121,2.5070121168376076,1.7458801987874732,-1.5103704248784842,3.352841223719034,-10.416274627741826
5.510350878183497,2.5405405290747978,1.7307764945386883,-1.6145331711559023,3.230835188973946,-10.92357997117057
5.535756283474245,2.5728488809645373,1.7146311628271294,-1.723768970867608,3.1616572191618926,-11.399374385201606
5.56148477228389,2.6044654531561564,1.6973934731184532,-1.837762714719624,3.1481919993444594,-11.84543178099075
5.587529426815451,2.635947373149601,1.679015845971257,-1.9562170325295316,3.19262493473683,-12.265335790537392
5.6138889005469474,2.6678736224969692,1.6594536756459617,-2.0788703904349055,3.296573378561881,-12.6644038317203
5.640567636771917,2.700839356282588,1.6386649717416126,-2.2055144287521085,3.4612649093887335,-13.049575802136234
5.667576030334743,2.7354520053764753,1.6166098274540917,-2.336010186773471,3.687753424078971,-13.429290527866463
5.6949305503885075,2.772329539617265,1.593249725586357,-2.4703030920521356,3.977164152950658,-13.813374150471226
5.72265384578468,2.8121011811467715,1.5685466946658355,-2.6084368335568477,4.330960542599935,-14.212963997351885
5.750774857596148,2.855410786572771,1.542462326330267,-2.7505664735303665,4.751228988729715,-14.640489799892483
5.779328965461875,2.902923076460068,1.5149566615949634,-2.8969713715292915,5.2409812584445605,-15.109732137540504
5.808358196226476,2.9553328890445134,1.4859869478796706,-3.0480686929046965,5.804478728749779,-15.635976360856317
5.837911525116922,3.013377676332011,1.4555062609506235,-3.2044284565132597,6.4475869035908255,-16.236279433180318
5.868045301880242,3.0778535453679194,1.423461976385491,-3.366791250845063,7.1781726253046285,-16.92986720301121
5.8988238373339215,3.1496352716209657,1.3897940638770403,-3.536089922875175,8.006559306813662,-17.738680026146547
5.930320190050131,3.2297008646891023,1.3544331646482886,-3.7134767231366403,8.946056083427102,-18.688083728805083
5.962617198697022,3.3191614255233732,1.3172983974169221,-3.900357560424691,10.013572259639465,-19.807756804473076
5.995808812952256,3.419297148119768,1.2782948218126753,-4.098435128469422,11.230312888738949,-21.132745224527177
6.030001784433454,3.5316002770071573,1.2373104705279812,-4.309762580714694,12.622512187331177,-22.70462590435925
6.065317787203525,3.657825398880469,1.1942128447208342,-4.536808839758287,14.222072190744706,-24.572602049863416
6.1018960411923295,3.800046120787916,1.1488447563232513,-4.782534860256921,16.06677874650199,-26.794091161722307
6.139896502400209,3.960713908252936,1.101019407720682,-5.050475771874144,18.199348588670258,-29.433797250051
6.1795036414827385,4.142707394139639,1.0505146500019407,-5.344813744374654,20.66367668728757,-32.55904468322891
6.220930715424135,4.349344161012515,0.9970665125581941,-5.670404191206943,23.49480857638986,-36.226602694113105
6.26442415703426,4.584292246776413,0.9403624706461247,-6.032670218148074,26.695410922994018,-40.451018654985596
6.310267079502024,4.851246356006353,0.8800357684646439,-6.43718040469793,30.18429111946955,-45.13439631884307
6.358779543062088,5.153089267201048,0.8156639644176646,-6.888524367886361,33.69036388609686,-49.920492859649656
6.4103104357340985,5.489992906062017,0.746778720738801,-7.387729296482857,36.552387037863554,-53.91739657490195
6.465210364794719,5.855516776440653,0.6729014277739724,-7.9269032622318765,37.402349279870435,-55.256699197749235
6.523765532559126,6.229540269239357,0.5936323951516537,-8.47947025420937,33.87525304196601,-50.68586535893509
6.58606093525152,6.568292799659018,0.50883769260956,-8.98632890779872,23.016132646255617,-36.126894997080406
6.65174386324811,6.798454126121574,0.41897440353157284,-9.347597857769523,3.640817905124822,-9.952246845725199
6.7197284045093255,6.834862305172822,0.3254984249538776,-9.447120326226775,-19.96248323275187,21.882512607554336
6.788077027561053,6.635237472845303,0.23102722169160983,-9.228295200151232,-38.96585188137097,47.17683446510227
6.854429402289506,6.245578954031593,0.1387442696900975,-8.756526855500208,-47.92913727817335,58.51009513846283
6.916885191829822,5.76628758124986,0.05117900113509542,-8.17142590411558,-48.51341837307469,58.30306639919178
6.974548067642321,5.281153397519113,-0.030535257906060376,-7.588395240123662,-44.96939432622211,52.48149297569172
7.027359601617512,4.831459454256892,-0.106419210307297,-7.063580310366745,-40.28046135271158,45.15368048233404
7.075674196160081,4.428654840729776,-0.17705501341096444,-6.612043505543404,-35.79412801834051,38.147367634236616
7.119960744567379,4.070713560546372,-0.2431754484663985,-6.2305698292010385,-31.94410203757214,32.03152890565649
7.160667880172843,3.75127254017065,-0.3054811467584089,-5.910254540144473,-28.784949254588653,26.860273035173226
7.198180605574549,3.4634230476247634,-0.3645836921598536,-5.641651809792741,-26.244048816806924,22.519682050265516
7.232814836050797,3.200982559456694,-0.421000210257781,-5.416454989290085,-24.220710200913427,18.862573741428353
7.264824661645364,2.95877545744756,-0.4751647601506819,-5.227829251875802,-22.620187785124624,15.753832930204442
7.29441241621984,2.7325735795963135,-0.5274430526694399,-5.070290922573758,-21.362733370732894,13.0818803417391
7.321738152015803,2.5189462458889844,-0.5781459618951775,-4.939472119156367,-20.383881866439847,10.75849169962418
7.346927614474693,2.3151074272245857,-0.6275406830867412,-4.831887202160125,-19.632120177420997,8.71530277662718
7.370078688746939,2.1187862254503758,-0.6758595551083424,-4.744734174393853,-19.066143158461422,6.899930519854847
7.391266551001443,1.9281247938657615,-0.7233068968522809,-4.6757348691953045,-18.652403089515698,5.272609803491385
7.4105477989401,1.7416007629706045,-0.7700642455442339,-4.62300877116039,-18.36311357138766,3.8035154255355414
7.427963806569806,1.5579696272567278,-0.8162943332558378,-4.584973616905035,-18.17468649078505,2.470699901943588
7.443543502842373,1.3762227623488774,-0.8621440694248881,-4.560266617885599,-18.066533515828915,1.2585180114762549
7.457305730465862,1.1955574271905882,-0.9077467356037441,-4.547681437770836,-18.020163609476086,0.15641054466097917
7.469261304737768,1.0153557910958273,-0.9532235499814524,-4.5461173323242265,-18.018521957942156,-0.8420615100477361
7.479414862648726,0.8351705715164057,-0.9986847233046947,-4.554537947424704,-18.045531238484138,-1.7400201666483144
7.48776656836389,0.6547152591315644,-1.0442301027789418,-4.571938149091187,-18.085809029829953,-2.537979944527208
7.494313720955206,0.47385716883326484,-1.0899494842698536,-4.597317948536459,-18.124544043484764,-3.2345159319232764
7.499052292643539,0.2926117283984172,-1.1359226637552182,-4.629663107855691,-18.147518357758937,-3.8269272187139616
7.501978409927522,0.11113654482082783,-1.182219294833775,-4.667932380042831,-18.1412629544111,-4.3119170957304425
7.503089775375731,-0.07027608472328317,-1.2288986186342035,-4.711051551000136,-18.093329832597878,-4.6862952756421805
7.502387014528498,-0.251209383049262,-1.2760091341442048,-4.757914503756558,-17.99265642986155,-4.947690468446571
7.499874920698005,-0.4311359473478775,-1.3235882791817704,-4.807391408441023,-17.82998819967836,-5.095244806844422
7.495563561224526,-0.6094358293446611,-1.3716621932661806,-4.858343856509467,-17.598314837126843,-5.130246681387685
7.48946920293108,-0.7854189777159295,-1.4202456318312753,-4.9096463233233445,-17.293267273491125,-5.056648089051594
7.48161501315392,-0.9583516504508407,-1.4693420950645086,-4.96021280421386,-16.913418926391937,-4.881409460172867
7.472031496649412,-1.12748583971476,-1.5189442231066472,-5.009026898815589,-16.460438237749106,-4.614621426173777
7.460756638252264,-1.292090222092251,-1.5690344920948032,-5.055173113077326,-15.939051640972238,-4.269370009897719
7.447835736031342,-1.4514807385019735,-1.6195862232255764,-5.097866813176303,-15.35679640160688,-3.8613379573705653
7.433320928646323,-1.6050487025180422,-1.6705648913573394,-5.1364801927500086,-14.723568810505085,-3.408166635496782
7.417270441621143,-1.7522843906230932,-1.7219296932848396,-5.170561859104977,-14.051000681234406,-2.9286344050850666
7.399747597714912,-1.8927943974354373,-1.7736353118758894,-5.1998482031558275,-13.351720801844372,-2.441732277291489
7.3808196537405575,-2.026311605453881,-1.8256337939074476,-5.224265525928742,-12.638573140492486,-1.9657306298513144
7.360556537686018,-2.152697336858806,-1.877876449166735,-5.2439228322272555,-11.923867219431198,-1.5173290268528874
7.33902956431743,-2.271936009053118,-1.9303156774890076,-5.259096122495785,-11.218727808606937,-1.1109653747048542
7.316310204226899,-2.3841232871391873,-1.9829066387139653,-5.270205776242833,-10.532593275733786,-0.7583345345790111
7.2924689713555075,-2.489449219896525,-2.0356086964763938,-5.277789121588624,-9.872888776487182,-0.46813583705981426
7.267574479156543,-2.5881781076613968,-2.08838658769228,-5.282470479959222,-9.244876801128799,-0.24603973770896864
7.2416926980799285,-2.6806268756726848,-2.1412112924918723,-5.284930877336311,-8.651667572297171,-0.09484089925589531
7.214886429323202,-2.7671435513956566,-2.1940606012652353,-5.28587928632887,-8.094358040413363,-0.014750910797316306
7.1872149938092456,-2.8480871317997902,-2.246919394128524,-5.286026795436843,-7.572261574065332,-0.003778978154873452
7.158734122491247,-2.9238097475404436,-2.2997796620828925,-5.286064585218392,-7.083190183847038,-0.05815175916461931
7.129496025015843,-2.994641649378914,-2.3526403079350766,-5.286646102810038,-6.623755583731566,-0.17273160107461794
7.099549608522054,-3.0608792052162297,-2.405506768963177,-5.288373418820784,-6.18966259472758,-0.34140311195040723
7.068940816469891,-3.1227758311635054,-2.458390503151385,-5.291787449940288,-5.77597651745399,-0.5574090165753381
7.037713058158256,-3.1805355963380455,-2.511308377650788,-5.297361540106041,-5.377353789628961,-0.8136260574026267
7.005907702194875,-3.2343091342343353,-2.5642819930518486,-5.305497800680067,-4.988231688281007,-1.1027794794758918
6.973564610852532,-3.2841914511171453,-2.6173369710586494,-5.316525595474826,-4.602977700936225,-1.4176001621938348
6.940722696341361,-3.3302212281265073,-2.670502227013398,-5.330701597096764,-4.2160024895485915,-1.7509319129577785
6.907420484060095,-3.3723812530219934,-2.723809242984365,-5.348210916226342,-3.8218423256228626,-2.0957982148056478
6.873696671529875,-3.4105996762782222,-2.7772913521466287,-5.369168898374398,-3.4152177909043155,-2.4454382833672916
6.839590674767093,-3.4447518541872655,-2.8309830411303727,-5.393623281208071,-2.991075723498593,-2.793322066420624
6.8051431562252205,-3.4746626114222514,-2.8849192739424536,-5.421556501872277,-2.5446211062992123,-3.13315315691043
6.770396530110998,-3.5001088224852435,-2.939134838961176,-5.452888033441381,-2.0713450374885505,-3.4588677315786986
6.735395441886145,-3.520822272860129,-2.99366371929559,-5.487476710757168,-1.5670542152264473,-3.764636718873373
6.700187219157543,-3.5364928150123935,-3.0485384864031615,-5.525123077945902,-1.0279065704268877,-4.044877504121385
6.664822291007419,-3.5467718807166624,-3.1037897171826203,-5.565571852987116,-0.4504568011057226,-4.294280592915144
6.629354572200253,-3.5512764487277195,-3.1594454357124913,-5.608514658916267,0.16828543006087857,-4.507855722060762
6.593841807712976,-3.549593594427111,-3.215530582301654,-5.6535932161368745,0.8307830284657062,-4.681000846328059
6.558345871768704,-3.541285764142454,-3.2720665144630225,-5.700403224600155,1.538884500960979,-4.809596139674083
6.52293301412728,-3.5258969191328444,-3.329070546709024,-5.748499185996896,2.293723906161905,-4.890123538082389
6.487674044935951,-3.5029596800712253,-3.386555538568993,-5.79740042137772,3.095611069200929,-4.919810351891304
6.4526444481352385,-3.472003569379216,-3.44452954278277,-5.846598524896633,3.943917589752861,-4.896793075525161
6.4179244124414465,-3.4325643934816874,-3.5029955280317364,-5.895566455651885,4.836966496284968,-4.820294787900422
6.38359876850663,-3.3841947285188376,-3.561951192588255,-5.943769403530889,5.771935672905411,-4.690806635417605
6.349756821221441,-3.3264753717897837,-3.621388886623564,-5.990677469885065,6.744787124414403,-4.510261104535743
6.316492067503543,-3.2590275005456397,-3.6812956613224146,-6.035780080930422,7.750235391476468,-4.2821825159842035
6.283901792498087,-3.181525146630875,-3.741653462131719,-6.078601906090264,8.781768585937083,-4.011798880440182
6.252086541031778,-3.0937074607715043,-3.8024394811926214,-6.1187198948946655,9.831734219384265,-3.7060994354227548
6.2211494664240625,-2.9953901185776615,-3.863626680141568,-6.155780889248893,10.891498994595906,-3.373824249179014
6.191195565238286,-2.8864751286317025,-3.925184489034057,-6.189519131740683,11.951686978434847,-3.025376457856979
6.162330813951969,-2.766958258847354,-3.9870796803514637,-6.2197728963192525,13.002494326287982,-2.6726539348351412
6.134661231363495,-2.636933315584474,-4.049277409314656,-6.246499435667604,14.034071562735845,-2.328805052766155
6.10829189820765,-2.4965925999571157,-4.111742403671332,-6.269787486195265,15.036957223036342,-2.00792190342236
6.083325972208079,-2.346223027726752,-4.174440278533285,-6.289866705229489,16.002540500807417,-1.7246928229834202
6.059863741930811,-2.186197622718678,-4.23733894558558,-6.307113633459323,16.923526518200497,-1.4940431592134955
6.0380017657036245,-2.016962357536673,-4.300410081920173,-6.322054065051458,17.794376821396025,-1.3307978635434368
6.017832142128258,-1.839018589322713,-4.363630622570688,-6.335362043686892,18.611700186446274,-1.2494010066341377
5.999441956235031,-1.6529015874582502,-4.426984243007557,-6.347856053753234,19.374574743975472,-1.2637255511900027
5.982912940360448,-1.4591558400184954,-4.49046280354509,-6.360493309265134,20.08479119367167,-1.3870021300856445
5.968321381960263,-1.2583079280817788,-4.554067736637741,-6.37436333056599,20.747017442485514,-1.6318891734802583
5.955738302679445,-1.0508377536569236,-4.617811369943401,-6.390682222300793,21.368896098326548,-2.010699860898414
5.945229925142876,-0.837148792673658,-4.681718192166409,-6.410789220909777,21.9610966347277,-2.535795481768863
5.93685843721614,-0.6175378263263811,-4.745826084375507,-6.4361471757274655,22.537352678850564,-3.2201510947959586
5.930683058952876,-0.39216429953787546,-4.810187556132782,-6.468348686675425,23.114521024731435,-4.078098599285131
5.926761415957497,-0.1610190892905611,-4.874871042999536,-6.509129672668276,23.712702059463457,-5.126254362818831
5.9251512250645915,0.07610793130407345,-4.939962339726219,-6.5603922162964645,24.355460468679116,-6.384641985683951
5.925912304377632,0.3196625359908646,-5.005566261889184,-6.624238636153304,25.07017832452005,-7.878021972748286
5.929108929737541,0.570364319236065,-5.071808648250717,-6.703018855880787,25.888554885578746,-9.637431022674976
5.934812572929901,0.8292498680918525,-5.138838836809525,-6.799393166107537,26.847226826065278,-11.701897277426648
5.94310507161082,1.0977221363525054,-5.2068327684705995,-6.916412138881803,27.988392825147233,-14.120197772668151
5.954082292974345,1.3776060646039778,-5.275996889859417,-7.057614116608485,29.360130215128574,-16.95228218709879
5.967858353620385,1.6712073667552636,-5.346573031025502,-7.227136938479473,31.015665482619276,-20.269433994304613
5.984570427287938,1.9813640215814563,-5.418844400410297,-7.429831278422519,33.009941937281674,-24.151013642529772
6.004384067503753,2.311463440954273,-5.493142713194522,-7.6713414148478165,35.38986557656935,-28.672961814829367
6.027498701913295,2.6653620967199663,-5.569856127343,-7.95807103299611,38.17049803951711,-33.8775819022111
6.054152322880495,3.0470670771151376,-5.649436837672961,-8.296846852018222,41.2812245163906,-39.70265787248018
6.084622993651647,3.4598793222790434,-5.732405306193143,-8.693873430743023,44.451130591822405,-45.82714304385481
6.119221786874437,3.9043906281972673,-5.819344040500573,-9.152144861181572,46.98386207874498,-51.36333399187664
6.15826569315641,4.374229248984717,-5.910865489112388,-9.665778201100338,47.381256099429535,-54.3354137869783
6.202007985646257,4.848041809979012,-6.007523271123391,-10.209132338970122,42.94877128379147,-51.12075636150412
6.250488403746047,5.277529522816927,-6.109614594513093,-10.720339902585163,30.153664523681908,-36.91131613850004
6.303263698974217,5.579066168053746,-6.216817993538944,-11.089453063970163,7.369061215315201,-9.4513637887567
6.359054360654754,5.652756780206898,-6.327712524178646,-11.183966701857731,-20.45655564900901,24.582509640106974
6.415581928456823,5.448191223716808,-6.439552191197223,-10.93814160545666,-42.75625793227951,50.96484973044202
6.470063840693991,5.020628644394013,-6.54893360725179,-10.42849310815224,-53.24695187243482,61.482481724721445
6.520270127137931,4.4881591256696645,-6.653218538333313,-9.813668290905026,-54.24218164081062,59.584965687520516
6.5651517183946275,3.945737309261558,-6.751355221242363,-9.217818634029822,-50.77944854696451,52.18620593739695
6.6046090914872435,3.437942823791913,-6.843533407582662,-8.695956574655852,-46.166857863776855,43.683726320157646
6.638988519725163,2.976274245154144,-6.93049297332922,-8.259119311454276,-41.811158229483745,35.859685392350755
6.668751262176705,2.558162662859307,-7.013084166443763,-7.900522457530768,-38.131251690074805,29.180628556825088
6.694332888805298,2.176850145958559,-7.092089391019071,-7.608716171962517,-35.15872299806357,23.621216804217084
6.716101390264884,1.8252629159779232,-7.1681765527386965,-7.372504003920347,-32.80288345108983,19.01728226090453
6.7343540194246625,1.4972340814670249,-7.2419015927779,-7.1823311813113015,-30.949751008282306,15.192308337625773
6.7493263602393325,1.1877365713842019,-7.313724904591013,-7.030408097935044,-29.49411347490282,11.995071973278476
6.761203725953175,0.8927954366351736,-7.384028985570364,-6.910457378202259,-28.347106342761244,9.305998367141893
