th1 (rad),w1 (rad/s),th2 (rad),w2 (rad/s)
6.1424731732920375,-1.4101963969227422,1.0511611311951563,2.7919837301096297
6.12837120932281,-1.336014722045691,1.0790809684962526,2.6610025383031846
6.1150110621023535,-1.2666355581856812,1.1056909938792845,2.534832970315609
6.102344706520497,-1.2016722126747617,1.1310393235824405,2.4128940889142463
6.090327984393749,-1.1407712270172554,1.155168264471583,2.29466676831228
6.078920272123576,-1.0836101229670834,1.1781149321547058,2.1796894319469193
6.068084170893905,-1.0298944929239238,1.199911826474175,2.0675531498448545
6.057785225964666,-0.9793548893379309,1.2205873579726236,1.9578966469254189
6.047991677071287,-0.9317437693321257,1.240166324441878,1.8504015163892555
6.038674239377966,-0.8868326309388336,1.2586703396057706,1.7447877802981426
6.029805913068578,-0.8444094058752607,1.276118217408752,1.6408098513701055
6.021361819009825,-0.8042761318973023,1.292526315922453,1.5382529005967371
6.013319057690852,-0.766246903900451,1.3079088449284204,1.4369296090532178
6.005656588651847,-0.7301460899582026,1.3222781410189526,1.3366772697610603
5.998355127752266,-0.6958067920233684,1.3356449137165631,1.237355200921109
5.991397059832032,-0.6630695283834381,1.3480184657257743,1.138842431767381
5.984766364548197,-0.6317811145219285,1.3594068900434482,1.0410356245966346
5.978448553402978,-0.6017937198042091,1.3698172462894145,0.9438471999497525
5.972430616204936,-0.5729640787876118,1.379255718288912,0.8472036357247346
5.96670097541706,-0.5451528376050638,1.3877277546461593,0.7510439147699908
5.96124944704101,-0.5182240175911987,1.3952381937938592,0.6553180990160619
5.956067206865098,-0.49204458000140816,1.4017913747840198,0.5599860113452533
5.951146761065084,-0.46648407726166086,1.4073912348974724,0.465016009132584
5.9464819202924675,-0.44141437765399594,1.4120413949887982,0.3703838357189312
5.942067776515928,-0.4167094516792325,1.4157452333459875,0.27607153802213197
5.937900681999135,-0.39224520954219005,1.4185059487262088,0.18206644008994316
5.933978229903714,-0.36789938027613894,1.4203266131271082,0.08836016369138268
5.930299236100952,-0.3435514239633626,1.421210214764022,-0.005052311927475225
5.926863721861318,-0.3190824693180585,1.4211596916447473,-0.09817355818971306
5.923672897168138,-0.29437526957588617,1.4201779560628502,-0.1910045796791123
5.920729144472379,-0.2693141701801539,1.4182679102660591,-0.283545676948259
5.918036002770577,-0.24378508216655667,1.4154324534965765,-0.37579729526555916
5.915598151948912,-0.21767545542545033,1.411674480543921,-0.4677608646760935
5.913421397394658,-0.19087424616260093,1.40699687189716,-0.5594396365902305
5.911512654933032,-0.16327187288708056,1.4014024755312577,-0.650839522031305
5.909879936204161,-0.1347601551308243,1.3948940803109446,-0.7419699366687249
5.908532334652853,-0.10523222885210413,1.3874743809442573,-0.8328446578422257
5.907480012364332,-0.0745824320999045,1.379145934365835,-0.9234826989605259
5.906734188043333,-0.04270615402392754,1.3699111073762298,-1.0139092069541955
5.906307126503094,-0.00949963971214201,1.359772015306688,-1.104156388905453
5.906212130105973,0.02514025736942955,1.3487304514176333,-1.1942644745999853
5.906463532679667,0.0613163843664476,1.3367878066716334,-1.2842827225857263
5.9070766965233314,0.09913166938946105,1.3239449794457763,-1.3742704784225366
5.908068013217226,0.1386895841610106,1.310202274661551,-1.4642982952087042
5.9094549090588355,0.18009470097847158,1.2955592917094638,-1.5544491282190105
5.91125585606862,0.22345335720265827,1.2800148004272738,-1.6448196176257537
5.913490389640646,0.26887444176801956,1.2635666042510163,-1.7355214758324171
5.916179134058327,0.31647031958931005,1.246211389492692,-1.82668299894976
5.91934383725422,0.3663579111947446,1.2279445595031944,-1.9184507253823209
5.9230074163661675,0.4186599464042649,1.208760052249371,-2.010991268326036
5.92719401583021,0.47350641230523516,1.1886501395661107,-2.1044933530955308
5.931929079953262,0.531036216989632,1.1676052060351554,-2.1991700943861745
5.9372394421231585,0.5913990912090856,1.1456135050912937,-2.2952615524410644
5.943153433035249,0.6547577497667499,1.122660889566883,-2.393037609966296
5.949701010532917,0.7212903322448669,1.09873051346722,-2.4928012123967322
5.956913913855366,0.7911931371617467,1.0738025013432528,-2.5948920109096636
5.964825845226983,0.8646836525821161,1.0478535812341563,-2.6996904373966033
5.973472681752804,0.9420038658907715,1.0208566768601903,-2.807622218535963
5.982892720411711,1.023423799967195,0.9927804546748307,-2.919163294242198
5.993126958411383,1.1092451628872164,0.9635888217324087,-3.034845031324841
6.004219410040255,1.1998048983528253,0.9332403714191603,-3.1552594955999673
6.016217459023784,1.2954782600690093,0.9016877764631606,-3.2810643318884036
6.029172241624473,1.3966807666193606,0.8688771331442765,-3.4129864483188137
6.043139049290667,1.5038679628112224,0.8347472686610884,-3.551823124672152
6.058177728918779,1.6175312228276717,0.7992290374143669,-3.6984382308335233
6.074353041147056,1.7381867314287696,0.7622446551060317,-3.8537497438192525
6.091734908461343,1.8663530496328775,0.7237071576678391,-4.0187023785417
6.110398438957672,2.002509996042958,0.683520133882422,-4.194215453603327
6.130423538918102,2.1470275565075125,0.6415779793463888,-4.381090530011992
6.151893814483177,2.3000478006995984,0.5977670740462689,-4.579855338380736
6.1748942924901735,2.4612953695956774,0.5519685206624616,-4.790510040179203
6.199507246186131,2.629784483242269,0.5040634202606695,-5.0121309139747146
6.225805091018553,2.8033879128791184,0.45394211112092236,-5.242282362906776
6.253838970147344,2.9782496132007124,0.4015192874918546,-5.476209530775156
6.283621466279351,3.148085520720853,0.34675719218410306,-5.705869395818649
6.31510232148656,3.3035672667742038,0.2896984982259166,-5.919065102720051
6.3481379941543015,3.43224072310473,0.2305078471987161,-6.099304507486324
6.382460401385349,3.519684676619112,0.16951480212385284,-6.227356980905764
6.41765724815154,3.552478792530927,0.1072412323147952,-6.285297506033991
6.45318203607685,3.5225184843560675,0.04438825725445529,-6.26240169331423
6.4884072209204104,3.430563401612216,-0.018235759678687014,-6.15997496916614
6.5227128549365325,3.286437531854375,-0.07983550937034842,-5.991565592981618
6.555577230255076,3.1054532910023456,-0.1397511653001646,-5.778007150108691
6.5866317631651,2.903491865148698,-0.1975312368012515,-5.54067529038717
6.615666681816586,2.693531693936864,-0.2529379897051232,-5.296794832807234
6.642601998755955,2.484501759359827,-0.30590593803319555,-5.057959964305254
6.667447016349554,2.2817160050128154,-0.3564855376762481,-4.8308062452239735
6.690264176399682,2.087868904778764,-0.4047936001284878,-4.618419960224211
6.71114286544747,1.9039858050326675,-0.45097779973072993,-4.421657883384008
6.730182723497797,1.7301264305879922,-0.49519437856457005,-4.240111772020392
6.747483987803677,1.5658434592627397,-0.537595496284774,-4.072729217111861
6.763142422396305,1.4104591044190884,-0.5783227884558926,-3.9181826437738794
6.777247013440496,1.2632225385040516,-0.6175046148936314,-3.7750753457556008
6.789879238825536,1.123394483135011,-0.6552553683511874,-3.642049162590989
6.801113183656886,0.9902891738875699,-0.6916758599770972,-3.517835480596104
6.811016075395762,0.8632922004396323,-0.7268542147830583,-3.401274825522246
6.819648997400158,0.7418651490240601,-0.7608669630382808,-3.291319804915612
6.827067648890399,0.6255433469059297,-0.793780161087437,-3.187029794708441
6.833323082359458,0.5139302686395332,-0.8256504590345214,-3.08756203001812
6.838462385045854,0.4066905717452378,-0.8565260793347026,-2.992161610756109
6.842529290763306,0.30354281669814476,-0.8864476954422637,-2.9001517136632256
6.845564718930287,0.20425240945789302,-0.9154492125788959,-2.8109246211433496
6.847607243024866,0.10862501693577792,-0.9435584587903294,-2.7239338037802083
6.848693493194224,0.016500549239092777,-0.9707977968281315,-2.638687094670407
6.848858498686615,-0.0722522792972115,-0.9971846677748356,-2.554740893293021
6.848135975893642,-0.15774083806129383,-1.022732076707766,-2.471695290890175
6.846558567513029,-0.24005296143144222,-1.0474490296166676,-2.3891899934007497
6.844158037898715,-0.3192608718579587,-1.071340929550675,-2.3069009178100908
6.840965429180135,-0.39542469119379237,-1.094409938728776,-2.2245373454689754
6.8370111822681965,-0.4685955818876686,-1.1166553121834657,-2.1418395271362565
6.83232522644932,-0.5388185539876276,-1.1380737074548282,-2.0585766468527873
6.826937040909444,-0.6061349683943875,-1.158659473923356,-1.9745450640254918
6.8208756912255,-0.6705847619330877,-1.178404924563611,-1.88956676467927
6.8141698436061695,-0.7322084157613722,-1.1973005922104036,-1.8034879634489742
6.806847759448556,-0.7910486854192013,-1.2153354718448934,-1.7161778074407794
6.7989372725943635,-0.8471521083828509,-1.2324972499193012,-1.6275271415897028
6.790465751510535,-0.9005703032048841,-1.2487725213351983,-1.5374473026200977
6.781460048478486,-0.9513610730850456,-1.2641469943613992,-1.4458689152419604
6.771946437747635,-0.999589325911162,-1.2786056835138189,-1.3527406698611366
6.761950544488523,-1.045327822335932,-1.2921330902124302,-1.2580280659241985
6.751497266265164,-1.0886577632355847,-1.304713370871672,-1.1617121091395621
6.740610688632809,-1.129669227870139,-1.3163304919630676,-1.0637879542964706
6.729313996354107,-1.1684614741911459,-1.3269683715060323,-0.9642634883221808
6.717629381612196,-1.2051431129954384,-1.336611006389254,-0.8631578506498134
6.705577950482241,-1.2398321679879964,-1.345242584895752,-0.7604998899817986
6.693179628802361,-1.2726560342861268,-1.35284758379557,-0.6563265581824927
6.680453068459499,-1.3037513484661452,-1.3594108493773949,-0.550681243360269
6.667415554974838,-1.333263783917243,-1.3649176618109975,-0.44361204523025577
6.654082917135665,-1.3613477860162577,-1.3693537822633,-0.33516999659340996
6.640469439275503,-1.388166262457317,-1.3727054822292342,-0.22540723521945757
6.626587776650929,-1.413890244941608,-1.3749595545814288,-0.1143751305605192
6.612448874201513,-1.4386985393289966,-1.376103305887034,-0.0021223695192164743
6.598061888808223,-1.462777382244658,-1.3761245295822262,0.11130699508496679
6.583434114985776,-1.486320122986958,-1.3750114596313765,0.2258755306979306
6.568570913755907,-1.509526950362362,-1.3727527043243972,0.3415544446356154
6.553475644252283,-1.5326046847422268,-1.369337159878041,0.45832563775815105
6.538149597404861,-1.5557666561547105,-1.3647539035004594,0.5761837951656962
6.522591930843315,-1.5792326895444924,-1.3589920655488026,0.6951385195552995
6.5067996039478695,-1.6032292183883319,-1.3520406803532496,0.8152165158479474
6.490767311763986,-1.627989547548173,-1.3438885151947702,0.9364638387786117
6.474487416288504,-1.6537542854208234,-1.334523876806984,1.0589482180711203
6.457949873434296,-1.6807719638541334,-1.323934394626273,1.182761478179773
6.441142153795754,-1.709299861539786,-1.3121067798444752,1.3080220707385941
6.424049155180356,-1.7396050420145366,-1.2990265591370893,1.434877736853727
6.406653104760211,-1.7719656099775634,-1.284677781768552,1.5635083117337507
6.388933448660435,-1.8066721777464032,-1.2690426986512144,1.6941286736217624
6.370866726882971,-1.8440295148061256,-1.252101411914997,1.8269918191033807
6.3524264317349095,-1.8843583236381716,-1.2338314937239632,1.9623920122660654
6.333582848498528,-1.92799703828032,-1.2142075736013025,2.1006678976107573
6.314302878115725,-1.9753034689995554,-1.1932008946251949,2.2422053732883773
6.294549843425729,-2.026656002629349,-1.170778840892311,2.3874398724194554
6.274283283399436,-2.0824538914071353,-1.1469044421681165,2.5368574655814498
6.253458744485364,-2.143115889837409,-1.121535867512302,2.6909938305488152
6.23202758558699,-2.2090760784139825,-1.094625929206814,2.8504295657352654
6.20993682480285,-2.2807750698855584,-1.0661216335494612,3.0157794471020014
6.187129074103995,-2.358643820734645,-1.0359638390784411,3.187671894410573
6.163542635896648,-2.44307582280981,-1.0040871201343353,3.3667129177984387
6.13911187766855,-2.53438135415322,-0.9704199909563509,3.553425913128498
6.113768064127018,-2.632714572564319,-0.934885731825066,3.748154643093149
6.0874409184013745,-2.7379605666253553,-0.8974041853941345,3.9509115978093714
6.060061312735121,-2.849565631062834,-0.8578950694160408,4.161148468103299
6.031565656424492,-2.9662920190697917,-0.8162835847350077,4.37742243901855
6.001902736233794,-3.0858832582280113,-0.7725093603448222,4.596938338054157
5.971043903651514,-3.2046480586322534,-0.7265399769642806,4.8149765794690085
5.938997423065192,-3.3170265044593426,-0.6783902111695905,5.02429346484005
5.905827158020599,-3.4153080103448907,-0.6281472765211901,5.21472671618978
5.87167407791715,-3.489814834928057,-0.5760000093592923,5.373439298767158
5.836775929567869,-3.5299509345017435,-0.5222656163716207,5.486354231396479
5.801476420222852,-3.526325774126041,-0.46740207405765594,5.541069351586431
5.766213162481591,-3.4735107622769683,-0.41199138054179163,5.530636473231122
5.731478054858822,-3.372151402199499,-0.3566850158094804,5.456434789520259
5.697756540836827,-3.229048906434685,-0.30212066791427783,5.328227220267396
5.66546605177248,-3.055000821810165,-0.24883839571160388,5.161130584445934
5.634916043554378,-2.8616913236109287,-0.19722708986714454,4.9713077329232584
5.606299130318269,-2.659239791108622,-0.14751401253791196,4.772608536760594
5.579706732407183,-2.4551113264673474,-0.09978792717030602,4.575113540116649
5.555155619142509,-2.2541340652741715,-0.054036791769139524,4.385205189961252
5.532614278489767,-2.059046446678282,-0.010184739869527004,4.206357441967173
5.512023814022984,-1.8711393581626727,0.03187883455014472,4.040041317223503
5.493312420441358,-1.6907922256573416,0.07227924772237976,3.886472731673496
5.476404498184785,-1.517856620067106,0.11114397503911472,3.745143048178597
5.461225931984114,-1.3519073709906526,0.14859540552090067,3.615163404822947
5.447706858274207,-1.1923973570403916,0.18474703956913013,3.4954748788300587
5.435782884703803,-1.0387483297519324,0.2197017883574307,3.3849702940588013
5.425395401406284,-0.890401471204853,0.25355149129801874,3.282560926179981
5.4164913866942355,-0.7468434993296593,0.2863771005598186,3.187210146481577
5.409022951700939,-0.6076183439819834,0.31824920202463436,3.0979478909247127
5.402946768261119,-0.4723305486478294,0.3492286809338815,3.0138744309992944
5.398223462774641,-0.3406440942273504,0.37936742524387446,2.934158503810816
5.394817021832367,-0.2122788231938204,0.40870901028198264,2.8580327578582394
5.392694233600428,-0.0870057218353858,0.437289337860565,2.7847882024812605
5.391824176382075,0.03535823248332351,0.4651372198853776,2.713768592568668
5.392177758706908,0.1549552774577076,0.49227490581106426,2.644365233882447
5.393727311481485,0.27189193301855696,0.5187185581498888,2.5760124341061443
5.396446230811671,0.38624384473191486,0.5444786824909502,2.508183675202499
5.40030866925899,0.49806037745194154,0.5695605192429752,2.440388498612959
5.405289273033509,0.6073689632968903,0.5939644042291048,2.3721700491965296
5.4113629626664785,0.7141792212529297,0.6176861047210701,2.3031032004925787
5.418504754879008,0.8184868693651385,0.6407171367259958,2.2327931733831865
5.426689623572659,0.9202774489042529,0.6630450684598277,2.160874556944149
5.435892398061702,1.0195298757250024,0.6846538140292692,2.0870106409796048
5.446087696818952,1.1162198288355203,0.7055239204390652,2.0108929726012685
5.457249895107307,1.2103229809239155,0.7256328501650778,1.9322410532320677
5.469353124916546,1.3018180708013793,0.7449552606973985,1.8508020970588017
5.48237130562456,1.3906898137523354,0.7634632816679865,1.7663507769763316
5.496278203762083,1.4769316428206258,0.7811267894377498,1.6786888893540193
5.5110475201902895,1.560548272209319,0.79791367833129,1.5876448744874272
5.526653002912383,1.6415580732793809,0.8137901270761643,1.4930731353809557
5.5430685836451765,1.7199952541134795,0.8287208584299738,1.3948531035522638
5.560268536186311,1.7959118352554237,0.8426693894654964,1.292888006858292
5.578227654538865,1.8693794170125184,0.8555982695340794,1.1871033008947542
5.59692144870899,1.9404907375659064,0.8674693025430269,1.0774447322657998
5.616326356084649,2.009361025996455,0.8782437498656849,0.9638760088736802
5.636419966344613,2.0761291600935645,0.8878825099544216,0.8463760592205377
5.657181257945549,2.1409586453243783,0.896346270546627,0.7249358693970445
5.6785908443987925,2.2040384384037623,0.9035956292405974,0.5995548927910235
5.7006312287828305,2.265583646259281,0.9095911781685077,0.4702370334290779
5.723287065245423,2.3258361384845583,0.9142935485027984,0.3369862091650629
5.746545426630269,2.3850651181599853,0.917663410594449,0.1998015056715173
5.770396077811869,2.4435677015718684,0.9196614256511642,0.05867193661728895
5.794831754827587,2.501669561020065,0.9202481450173371,-0.08642916985591717
5.819848450437788,2.5597256853388433,0.9193838533187779,-0.2355501319952302
5.8454457072911765,2.61812130814641,0.9170283519988256,-0.38876718634123375
5.87162692037264,2.6772730414216794,0.9131406801354133,-0.5461910171333945
5.898399650786857,2.7376302274995603,0.9076787699640794,-0.7079734591906542
5.925775953061852,2.7996764792520037,0.9005990353721728,-0.8743142370185784
5.953772717854372,2.863931305436398,0.891855893001987,-1.0454675118094805
5.982412030908736,2.930951599044351,0.8814012178838921,-1.2217478550872096
6.01172154689918,3.0013325741416375,0.8691837393330201,-1.4035350151179768
6.041734872640596,3.0757074287044914,0.8551483891818403,-1.591276430182496
6.0724919469276415,3.1547445206595874,0.8392356248800154,-1.7854857779710707
6.104039392134237,3.2391400683950975,0.8213807671003046,-1.986734788270889
6.136430792818189,3.329603168919506,0.8015134192175957,-2.195633868251371
6.169726824507384,3.42682803900574,0.779557080535082,-2.412794478438879
6.203995104897442,3.531445520592829,0.7554291357506931,-2.6387622253390344
6.23930956010337,3.643941703143415,0.7290415134973028,-2.8739038178135257
6.275748977134804,3.7645257844450466,0.7003024753191676,-3.1182230651543543
6.3133942349792544,3.8929224440458574,0.669120244667624,-3.3710715740131367
6.352323459419713,4.028058385424483,0.6354095289274926,-3.6307120142401073
6.392604043273958,4.16761526149562,0.5991024087850915,-3.893695502261306
6.434280195888914,4.307447954292644,0.5601654537624784,-4.1540522414561085
6.47735467543184,4.440947202598718,0.5186249313479173,-4.402406789310809
6.521764147457827,4.55859298280137,0.47460086345480923,-4.625363951794418
6.567350077285841,4.648190404082884,0.42834722393686503,-4.805854827779691
6.61383198132667,4.696435445004336,0.3802886756590681,-4.925349089981968
6.6607963357767135,4.692114469794887,0.3310351847592484,-4.968354708872419
6.707717480474662,4.630069064916825,0.28135163767052424,-4.9279783616113155
6.754018171123831,4.513709362044913,0.23207185405441108,-4.809429863327986
6.79915526474428,4.354105051174908,0.18397755542113123,-4.62870940543644
6.8426963152560285,4.1660799865755855,0.13769046136676683,-4.407089694135092
6.884357115121785,3.9638659524616635,0.09361956442541591,-4.164991573504331
6.923995774646401,3.758478098935553,0.05196964869037261,-3.918289221365751
6.961580555635757,3.5571297589213753,0.012786756476715094,-3.6774853689094678
6.99715185322497,3.3638502998323485,-0.023988097212379586,-3.448578058974392
7.030790356223294,3.1804439061223477,-0.05847387780212351,-3.234407031330856
7.062594795284517,3.0073349687507376,-0.09081794811543206,-3.035841576656655
7.092668144972024,2.844172862847631,-0.12117636388199861,-2.8526310988491073
7.121109873600501,2.6902185451709553,-0.1497026748704897,-2.6839496454449985
7.148012059052211,2.544574218835355,-0.17654217132493968,-2.5287201539587607
7.1734578012405645,2.4063118619080495,-0.2018293728645273,-2.385796574081526
7.197520919859645,2.274540566270951,-0.22568733860534254,-2.2540598534153613
7.2202663255223545,2.148438409689587,-0.24822793713949615,-2.132463870172905
7.24175070961925,2.0272645119313326,-0.2695525758412252,-2.0200532974323284
