th1 (rad),w1 (rad/s),th2 (rad),w2 (rad/s),a1 (rad/s^2),a2 (rad/s^2)
5.615022205725967,-2.757499726670248,4.230821762474262,-2.6757951143618492,1.0735113593173993,15.95810847567874
5.587447208459264,-2.746764613077074,4.204063811330643,-2.5162140296050617,1.7127520526201094,15.654385075951417
5.559979562328493,-2.729637092550873,4.178901671034593,-2.3596701788455476,2.3069106905065566,15.320367854748
5.532683191402985,-2.7065679856458074,4.155304969246138,-2.2064665002980677,2.857236883455422,14.957953478504509
5.505617511546527,-2.6779956168112533,4.133240304243157,-2.0568869655130224,3.3653201643270645,14.56948061972812
5.478837555378415,-2.6443424151679826,4.112671434588027,-1.9111921593157413,3.8330350592348763,14.157615087915582
5.452394131226735,-2.606012064575634,4.09355951299487,-1.7696160084365855,4.262483612757621,13.725245609481302
5.4263340105809785,-2.563387228448058,4.0758633529105035,-1.6323635523417726,4.655937856410985,13.275391490539612
5.400700138296498,-2.5168278498839483,4.059539717387086,-1.4996096374363765,5.015784241602872,12.811122857410911
5.3755318597976585,-2.4666700074679193,4.044543621012722,-1.3714984088622675,5.344471592585184,12.335493666156514
5.3508651597229795,-2.4132252915420676,4.0308286369241,-1.2481434722007023,5.644463695386329,11.851487228691191
5.326732906807559,-2.356780654588204,4.018347202202093,-1.1296285999137905,5.9181972427375955,11.361973634282913
5.303165100261676,-2.297598682160828,4.007050916202955,-1.0160088635709614,6.16804551352504,10.86967815852161
5.280189113440068,-2.2359182270255777,3.996890827567245,-0.9073120819857453,6.396287883551272,10.377159547320465
5.2578299311698125,-2.171955348190065,3.9878177067473874,-0.8035404865125406,6.605085042909071,9.886796936219122
5.236110377687912,-2.105904497760974,3.979782301882262,-0.7046725171503494,6.796459630944254,9.400784106641781
5.215051332710303,-2.0379399014515314,3.9727355767107584,-0.6106646760839316,6.972281886938847,8.92112978020103
5.194671933695788,-1.968217082582143,3.966628929949919,-0.5214533782819213,7.134259846003335,8.449662698195475
5.174989762869966,-1.8968744841221097,3.9614143961670996,-0.43695675129996653,7.283933577202528,7.988040314858364
5.156021018028746,-1.8240351483500845,3.9570448286541,-0.3570763481513829,7.422672956554515,7.53776003928001
5.137780666545245,-1.7498084187845393,3.953474065172586,-0.2816987477585828,7.551678483577182,7.100172083154825
5.120282582357399,-1.6742916339487675,3.9506570776950003,-0.21069702692703451,7.671984679652095,6.676493102001254
5.1035396660179115,-1.5975717871522466,3.94855010742573,-0.14393209590702197,7.784465643789901,6.267819950195544
5.087563948146389,-1.5197271307143476,3.9471107864666597,-0.08125389640506653,7.889842381704379,5.875143000376641
5.072366676839246,-1.4408287068973038,3.946298247502609,-0.02250246640130011,7.988691563872397,5.49935860205306
5.057958389770272,-1.36094179125858,3.946073222838596,0.03249111961923049,8.081455405019096,5.141280370076171
5.044348971857686,-1.280127237208389,3.9463981340347885,0.08390392331999219,8.168452389774481,4.801649099276466
5.0315476994856025,-1.1984427133106441,3.9472371732679883,0.13192041431275686,8.249888596532442,4.481141195753689
5.019563272352496,-1.1159438273453197,3.9485563774111156,0.17673182627029377,8.32586939396221,4.180375597199715
5.008403834079043,-1.0326851334056977,3.9503236956738186,0.21853558224229092,8.396411302884182,3.899919223606982
4.998076982744986,-0.9487210203768559,3.9525090514962415,0.2575347744783607,8.461453831407054,3.6402910553840324
4.988589772541218,-0.8641064820627854,3.955084399241025,0.293937685032201,8.520871104602103,3.4019649780925327
4.97994870772059,-0.7788977710167644,3.958023776091347,0.32795733481312633,8.57448312285027,3.1853715618282106
4.972159730010422,-0.6931529397882616,3.9613033494394783,0.35981105043140843,8.622066496487305,2.9908989591069353
4.96522820061254,-0.6069322748233886,3.964901459943792,0.3897200400224778,8.663364519371726,2.8188931087877083
4.959158877864306,-0.5202986296296713,3.968798660344017,0.41790897111035485,8.69809646103281,2.669657426294037
4.953955891568009,-0.4333176650193432,3.9729777500551204,0.4446055453732952,8.72596597623825,2.543452143843275
4.949622714917816,-0.34605800525696073,3.9774238055088533,0.47004006681172794,8.746668551867469,2.4404934406109398
4.946162134865246,-0.25859131973828603,3.982124206176971,0.49444500121783735,8.759897933246652,2.3609524740925525
4.943576221667864,-0.1709923404058195,3.987068656189149,0.5180545259587629,8.765351494690698,2.304954392893885
4.941866298263806,-0.08333882545891252,3.9922492014487365,0.5411040698877018,8.762734540857958,2.2725773802899867
4.941032910009216,0.004288519949667058,3.9976602421476137,0.5638298436906016,8.751763545602211,2.263851749468317
4.941075795208713,0.09180615540568916,4.003298540584519,0.5864683611852848,8.732168352378299,2.278759087373251
4.941993856762769,0.17912783892947215,4.009163224196373,0.6092559520590173,8.703693374248408,2.317231425954798
4.943785135152064,0.26616477267195626,4.015255783716963,0.6324282663185653,8.666097841806195,2.3791504082439596
4.946446782878783,0.35282575109001824,4.021580066380149,0.6562197704010049,8.619155153931077,2.4643464122359298
4.949975040389683,0.43901730262932903,4.028142264084159,0.6808632345233642,8.562651389634413,2.572597597646698
4.954365213415977,0.5246438165256732,4.034950896429392,0.7065892104998311,8.496383040133175,2.703628848270155
4.959611651581233,0.6096076469270049,4.042016788534391,0.7336254989825327,8.420154019713348,2.857110594559645
4.9657077280505035,0.6938091871241383,4.049353043524216,0.7621966049281291,8.333772013102134,3.032657515625883
4.972645819921745,0.7771469072551597,4.056975009573497,0.7925231800843879,8.237044217155344,3.229827135487021
4.980417288994296,0.8595173494267131,4.064900241374341,0.8248214514392581,8.129772536783625,3.448118343685633
4.989012462488564,0.9408150747945494,4.073148455888734,0.8593026348761145,8.011748300075654,3.6869698841731466
4.998420613236509,1.020932557795306,4.0817414822374944,0.896172333717846,7.882746566113857,3.945758867961398
5.008629938814462,1.0997600234564444,4.090703205574673,0.93562992239746,7.742520111250652,4.223799374258908
5.019627539049027,1.177185224568951,4.100059504798648,0.9778679161400491,7.5907931954775165,4.520341211958855
5.031399391294716,1.253093156523726,4.109838183960049,1.0230713282596375,7.427255229473482,4.834568919196418
5.0439303228599535,1.3273657088184607,4.120068897242645,1.0714170174516018,7.25155448415109,5.165601084366621
5.057203979948138,1.3998812536599716,4.130783067417162,1.123073028295268,7.063292006970208,5.512490078818261
5.071202792484738,1.4705141737296736,4.142013797700114,1.1781979290834506,6.862015931747026,5.874222300776542
5.085907934222035,1.5391343330471439,4.153795776990949,1.236940152091216,6.647216389856153,6.249719043104111
5.101299277552506,1.6056064969457053,4.166165178511861,1.2994373425222572,6.418321249318837,6.6378381151608385
5.117355342521964,1.6697897094388936,4.179159551937083,1.3658157236738655,6.174692923069623,7.037376371639673
5.134053239616352,1.7315366386695898,4.192817709173822,1.4361894873902623,5.915626497590155,7.447073328578248
5.151368606003048,1.7906929036454915,4.207179604047725,1.5106602206760449,5.640349437132503,7.865616077774129
5.169275535039503,1.8470963980168165,4.222286206254485,1.589316381453786,5.348023116131146,8.291645743766367
5.1877464990196716,1.9005766291781279,4.238179370069023,1.6722328388914498,5.037746422517589,8.723765759754421
5.206752265311453,1.9509540934033038,4.254901698457938,1.759470496488994,4.708561657124994,9.160552266836538
5.2262618062454855,1.9980397099745537,4.272496403422828,1.8510760191573594,4.35946292911804,9.60056696046525
5.246242203345231,2.041634339265734,4.291007163614402,1.947081688762012,3.9894072147465556,10.042372713920253
5.266658546737888,2.0815284114131996,4.3104779805020215,2.0475054159012145,3.5973282076702944,10.484552294943244
5.28747383085202,2.1175016934899027,4.330953034661033,2.1523509388506468,3.1821530455519995,10.925730451631978
5.30864884778692,2.1493232239454225,4.35247654404954,2.2616082433669664,2.742821952878566,11.364599569389066
5.3301420800263735,2.1767514434742083,4.37509262648321,2.3752542390608573,2.2783107993791094,11.799948982986171
5.351909594461116,2.1995345514679996,4.398845168873819,2.493253728890719,1.78765654516566,12.230697855637956
5.373904939975796,2.217411116919656,4.423777706162726,2.6155607074470986,1.2699855400229776,12.655931296712726
5.3960790511449925,2.2301109723198858,4.449933313237197,2.7421200204142258,0.7245446828010789,13.074939063636958
5.418380160868192,2.2373564191478965,4.477354513441339,2.8728694110505955,0.15073555277032216,13.487255757808601
5.440753725059671,2.2388637746756,4.506083207551845,3.0077419686286815,-0.4518481666507437,13.892700845636057
5.463142362806427,2.2343452930090923,4.536160627238132,3.1466689770850422,-1.0833792912605413,14.2914160666164
5.485485815736518,2.223511500096487,4.5676273170089825,3.2895831377512064,-1.7437505069224781,14.683896761767123
5.507720930737483,2.2060739950272623,4.600523148386495,3.4364221053688775,-2.432520358006833,15.071012267404555
5.529781670687755,2.181748791447194,4.634887369440184,3.587132228042923,-3.1488483764343096,15.45400862547323
5.551599158602227,2.1502603076828506,4.670758691720613,3.7416723142976553,-3.891413940567027,15.834484252580538
5.573101761679055,2.1113461682771804,4.70817541486359,3.900017156823461,-4.658310685871024,16.214325588415555
5.594215223361827,2.06476306141847,4.747175586431825,4.062160412707616,-5.446904391546215,16.595584699747903
5.614862853976011,2.010294017503008,4.787797190558901,4.228116259705095,-6.253636865339862,16.9802738028439
5.634965794151041,1.9477576488496093,4.830078353155953,4.397918997733534,-7.073751004715729,17.370042003928024
5.654443370639537,1.877020138802452,4.874057543133288,4.571619417772814,-7.900902489342781,17.765686491240714
5.673213572027562,1.7980111139090242,4.919773737311016,4.749276282685221,-8.72661120298827,18.16643333090873
5.691193683166652,1.7107450018791415,4.967266500137868,4.9309406159943086,-9.539490848438296,18.56890198623619
5.708301133185444,1.6153500933947584,5.0165759062978115,5.11662963585667,-10.324180186817625,18.96564462200759
5.724454634119391,1.5121082915265822,5.067742202656378,5.306286082076746,-11.059889113327321,19.343132363305234
5.739575717034657,1.401509400393309,5.120805063477145,5.499717405709799,-11.718479229837044,19.67906090028774
5.75359081103859,1.2843246080949386,5.175802237534243,5.696508014712676,-12.26204568078254,19.938898452547896
5.76643405711954,1.1617041512871134,5.23276731768137,5.895896999238155,-12.640098563821322,20.07175858940844
5.778051098632411,1.0353031656489002,5.291726287673751,6.096614585132239,-12.786728613464467,20.00604470570422
5.7884041302889,0.9074358795142555,5.352692433525074,6.296675032189282,-12.618674711561896,19.646010227254088
5.797478489084043,0.7812491323986366,5.415659183846967,6.493135134461823,-12.03605626649609,18.87150889121371
5.80529098040803,0.6608885697336757,5.480590535191585,6.68185022337396,-10.928591695888663,17.544656801535368
5.8118998661053665,0.551602652774789,5.547409037425324,6.857296791389314,-9.190848579904845,15.52817955802246
5.8174158926331145,0.4596941669757406,5.615982005339218,7.012578586969538,-6.749149205225477,12.719121811292764
5.822012834302872,0.3922026749234858,5.686107791208913,7.139769805082466,-3.598287552417999,9.095783923191371
5.825934861052107,0.3562197993993058,5.757505489259738,7.2307276443143795,0.16257214027646094,4.76413602682171
5.8294970590461,0.35784552080207044,5.829812765702881,7.278369004582597,4.31472548649793,-0.02236716976508792
5.833075514254121,0.4009927756670497,5.902596455748707,7.278145332884947,8.545241243903618,-4.895389871055077
5.837085442010792,0.4864451881060859,5.975377909077556,7.229191434174396,12.514479464902259,-9.458517153502298
5.841949893891853,0.6115899827551085,6.0476698234193,7.134606262639373,15.939425177231417,-13.392961786900493
5.848065793719404,0.7709842345274226,6.119015886045694,7.000676644770368,18.65288729076456,-16.529825455496162
5.855775636064679,0.9575131074350682,6.189022652493398,6.835378390215406,20.614823224670324,-18.859179170850403
5.865350767139029,1.1636613396817714,6.2573764363955515,6.646786598506902,21.882844051398582,-20.487199593219035
5.876987380535847,1.3824897801957572,6.32384430238062,6.441914602574712,22.56703525756568,-21.575448249071517
5.890812278337805,1.6081601327714141,6.388263448406367,6.226160120083996,22.791014733718274,-22.29074540559183
5.906893879665519,1.8360702801085969,6.450525049607207,6.003252666028078,22.668147035750867,-22.77622498703765
5.925254582466605,2.0627517504661057,6.510557576267487,5.775490416157702,22.291630205103157,-23.140822017244982
5.945882099971266,2.285668052517137,6.568312480429064,5.5440821959852515,21.733396309354205,-23.459953631271105
5.968738780496437,2.5030020156106794,6.623753302388916,5.309482659672541,21.047166015310296,-23.781112333076933
5.9937688006525445,2.7134736757637823,6.676848128985641,5.071671536341771,20.272695472046813,-24.13056144343662
6.020903537410183,2.9162006304842505,6.727564844349059,4.830365921907405,19.439752027189627,-24.51936759104958
6.050065543715025,3.1105981507561467,6.775868503568133,4.585172245996909,18.57128465638019,-24.948213970229986
6.081171525222587,3.2963109973199485,6.821720226028102,4.335690106294609,17.685718332677656,-25.41100307850104
6.114134635195786,3.473168180646725,6.865077127091048,4.081580075509599,16.798485983390076,-25.897453936591408
6.148866317002253,3.6411530404806256,6.9058929278461445,3.8226055361436853,15.922957633665051,-26.394921962487498
6.185277847407059,3.8003826168172763,6.944118983207582,3.5586563165188103,15.070914329222877,-26.88962772046538
6.223281673575232,3.951091760109505,6.979705546372769,3.2897600393141566,14.252683537412677,-27.367424018664938
6.262792591176328,4.0936185954836315,7.012603146765911,3.016085799127507,13.477019145616605,-27.814178793697874
6.303728777131164,4.228388786939798,7.042764004757186,2.737944011190528,12.750778220595484,-28.21580916747919
6.346012665000562,4.355896569145752,7.070143444869091,2.455785919515736,12.0784193192262,-28.55796976871404
6.38957163069202,4.476680762338014,7.094701304064248,2.170206221828596,11.46132330473019,-28.82537456398979
6.434338438315399,4.591293995385316,7.116403366282534,1.8819524761886979,10.896918183013511,-29.0007161665368
6.480251378269252,4.700263177215451,7.135222891044421,1.59194531452333,10.37757779604294,-29.063143677525833
6.527254010041407,4.80403895517588,7.151142344189655,1.3013138777480717,9.889268190188622,-28.9862799181022
6.575294399593166,4.902931637077766,7.164155482967136,1.0114510785670499,9.409950392890588,-28.735822371259392
6.624323715963944,4.997031141006672,7.174269993752806,0.7240928548544558,8.907840158946266,-28.266915380297146
6.67429402737401,5.086109542596135,7.18151092230135,0.4414237010514844,8.339812154742301,-27.52175715303934
6.725155122799972,5.169507664143557,7.185925159311865,0.16620612952109098,7.650561177359994,-26.42837283615147
6.776850199441408,5.246013275917157,7.187587220607076,-0.09807759884042372,6.7736136330425145,-24.902164349145753
6.8293103322005795,5.313749412247582,7.186606444618672,-0.3470992423318813,5.63583268746726,-22.852608961818817
6.882447826323055,5.370107739122255,7.183135452195353,-0.5756253319500695,4.167355502782463,-20.197849708307878
6.936148903714278,5.41178129415008,7.177379198875853,-0.7776038290331483,2.31824877083811,-16.888908870916566
6.990266716655778,5.434963781858461,7.169603160585521,-0.9464929177423139,0.08064422135964763,-12.941548862956544
7.044616354474363,5.435770224072058,7.160138231408098,-1.0759084063718793,-2.489602536991435,-8.466977943347429
7.098974056715083,5.410874198702143,7.149379147344379,-1.1605781858053537,-5.262722831198619,-3.685391530433964
7.153082798702105,5.358246970390157,7.137773365486326,-1.1974321011096933,-8.047814556390218,1.094255346136073
7.206665268406006,5.277768824826254,7.125799044475229,-1.1864895476483326,-10.63140124189457,5.532146373816742
7.259442956654269,5.171454812407308,7.113934148998745,-1.1311680839101652,-12.829167098486952,9.334675496645426
7.3111575047783415,5.043163141422439,7.102622468159644,-1.037821328943711,-14.527909016447149,12.317117977272227
7.361589136192566,4.897884051257967,7.092244254870207,-0.9146501491709887,-15.69994255175166,14.425779628721624
7.4105679767051456,4.740884625740451,7.083097753378497,-0.7703923528837725,-16.389106804416162,15.718055007795211
7.45797682296255,4.576993557696289,7.075393829849659,-0.6132118028058204,-16.681573030938036,16.319463643156215
7.503746758539513,4.410177827386908,7.069261711821601,-0.45001716637425826,-16.676810790229904,16.380180845161146
7.547848536813381,4.243409719484609,7.064761540157858,-0.2862153579226468,-16.467491524212573,16.04422957501371
7.5902826340082274,4.078734804242484,7.061899386578632,-0.1257730621725097,-16.12965208311857,15.433643620134653
7.6310699820506525,3.917438283411298,7.060641655956907,0.028563374028836852,-15.720412532593578,14.643902112603351
7.670244364884765,3.760234158085362,7.0609272896971955,0.17500239515487037,-15.279823695601497,13.745726160552804
7.707846706465619,3.607435921129347,7.062677313648744,0.31245965676039844,-14.834280947617719,12.789475099883974
7.743921065676913,3.45909311165317,7.065801910216348,0.4403544077592382,-14.400052713776251,11.80995475557503
7.778511996793445,3.3150925845154076,7.070205454293941,0.5584539553149884,-13.986292786186523,10.830641809766513
7.811662922638599,3.1752296566535425,7.07578999384709,0.6667603734126536,-13.5973722339792,9.867022589906819
7.843415219205135,3.0392559343137506,7.082457597581217,0.7654305993117217,-13.234580834958232,8.929074844438412
7.873807778548272,2.9069101259641683,7.090111903574335,0.8547213477561059,-12.897320070914754,8.023041859503822
7.902876879807914,2.7779369252550206,7.098659117051896,0.9349517663511441,-12.583915131116058,7.152667610753227
7.930656249060464,2.65209777394386,7.108008634715407,1.0064784424586763,-12.29215369450552,6.320040543424634
7.957177226799902,2.5291762369988047,7.118073419139994,1.0696788478929227,-12.019634238302668,5.526161736394173
7.98246898916989,2.408979894615778,7.128770207618923,1.1249404652568644,-11.763984111958427,4.771323036816803
8.006558788116047,2.2913400534961936,7.140019612271492,1.1726536956250324,-11.522989851244835,4.055356238513429
8.02947218865101,2.1761101549837454,7.151746149227742,1.2132072580101667,-11.294669092916052,3.3777958938811516
8.051233290200846,2.063163464054585,7.163878221807844,1.2469852169489781,-11.077304133752255,2.737984986955846
8.071864924841393,1.9523904227170623,7.1763480739773335,1.2743650668185367,-10.86945071141796,2.135143279175256
8.091388829068563,1.8436959156028827,7.189091724645519,1.2957164996102892,-10.669931159610922,1.5684116117570301
8.109825788224592,1.7369966040067735,7.202048889641622,1.3114006157278595,-10.477818086722055,1.0368809736118834
8.12719575426466,1.632218423139553,7.215162895798901,1.3217694254639782,-10.292412697031452,0.539612101767154
8.143517938496055,1.5292942961692384,7.228380590053541,1.3271655464816499,-10.113220502212894,0.07564932906546835
8.158810881457748,1.4281620911471093,7.241652245518357,1.3279220397723046,-9.939926243224892,-0.3559689793357812
8.173092502369219,1.3287628287148605,7.25493146591608,1.3243623499789468,-9.772369212826135,-0.7562019687173139
8.186380130656367,1.2310391365865991,7.26817508941587,1.3168003302917737,-9.610519739253343,-1.1259989790293197
8.198690522022233,1.1349339391940658,7.281343092718787,1.3055403405014805,-9.454457296863984,-1.4662929133840028
8.210039861414174,1.040389366225426,7.294398496123802,1.2908774113676404,-9.30435050641003,-1.7779940703677388
8.220443755076428,0.9473458611613257,7.307307270237478,1.273097470663963,-9.16043914722302,-2.0619843606340553
