th1 (rad),w1 (rad/s),th2 (rad),w2 (rad/s)
4.623025523922131,0.3892081028302052,6.261570860396464,2.5706444008892912
4.626917604950433,0.5201027968877925,6.287277304405357,2.5801123009699043
4.632118632919311,0.6512828465046914,6.313078427415056,2.588750285845061
4.638631461384358,0.782673602510059,6.338965930273507,2.596050417518692
4.6464581974094585,0.9141741310166751,6.364926434448694,2.601499029388789
4.655599938719625,1.0456583562411461,6.390941424742582,2.60457716405284
4.6660565222820365,1.1769764391600697,6.41698719638311,2.6047615424450794
4.677826286673637,1.307956444701954,6.4430348118075615,2.6015260617398517
4.6909058511206565,1.4384063442164134,6.46905007242496,2.594343813871497
4.705289914562821,1.5681163929084299,6.494993510563676,2.582689608802947
4.720971078491905,1.6968619137341951,6.520820406651706,2.566042976903214
4.737939697629247,1.8244065099341675,6.546480836420738,2.5438916130836247
4.756183762728589,1.950505717985702,6.571919752551574,2.5157352118379452
4.775688819908446,2.074911101395967,6.597077104669954,2.48108962720121
4.796437930922405,2.197374773575067,6.621888000941966,2.4394912750814335
4.818411678658156,2.3176543252262873,6.64628291369278,2.39050167765965
4.841588221910419,2.4355181185191856,6.6701879304693765,2.3337120308868844
4.865943403095611,2.5507508971016075,6.693525050778246,2.2687476569112635
4.8914509120666265,2.663159648191984,6.716212527347358,2.1952721840533513
4.9180825085485464,2.772579641145705,6.738165249187892,2.1129912783911715
4.9458083049600035,2.8788805567562505,6.759295161971804,2.0216557339953933
4.974597110527566,2.9819726140838796,6.779511719311758,1.9210637144481248
5.004416836668405,3.081812597964994,6.798722356456239,1.8110619277247848
5.035234962648055,3.178409691895453,6.816832975733488,1.6915455111180269
5.067019059567009,3.271831029175721,6.833748430844667,1.5624564038322963
5.099737369858767,3.362206891539448,6.84937299488299,1.423779993042897
5.1333594387741615,3.449735510298129,6.863610794813419,1.275539834861673
5.167856793877143,3.53468746132741,6.876366193162036,1.1177902741845707
5.203203668490417,3.6174096924690504,6.887544095903881,0.950606815145771
5.2393777654151075,3.6983292798829326,6.897050164055339,0.7740741240626902
5.276361058213936,3.777957077430462,6.904790905295966,0.5882715755457957
5.314140628988241,3.856891498132389,6.910673621051425,0.39325627561340437
5.352709543969565,3.935822745656272,6.9146061838075585,0.1890435094447569
5.392067771426128,4.015537891379891,6.9164966189020065,-0.02441543574943497
5.432223150339927,4.096927260617119,6.916252464544512,-0.2472581269952046
5.473192422946098,4.180992636428202,6.91377988327456,-0.47973857459163605
5.51500234931038,4.268857786970988,6.908982497528644,-0.7222575709803404
5.557690927180089,4.361781728198472,6.901759921818841,-0.97539566132131
5.601308744462074,4.461174864292251,6.892005965205628,-1.2399482722991273
5.645920493104996,4.568617544879562,6.879606482482636,-1.516961719784636
5.691606668553792,4.685879339388045,6.86443686528479,-1.8077671261926742
5.738465461947673,4.814934884013924,6.846359194022863,-2.114005892218134
5.786614810787812,4.957967432257224,6.8252191351006815,-2.437633768571388
5.836194485110385,5.117342245087307,6.800842797414967,-2.7808779629898486
5.8873679075612575,5.295515102306655,6.7730340177850685,-3.1460980676904726
5.940323058584324,5.494810402469289,6.7415730371081635,-3.535458379894388
5.995271162609018,5.71694950304898,6.706218453309219,-3.9502438280700947
6.052440657639507,5.962124502636708,6.666716015028518,-4.389532347404307
6.112061902665874,6.227305785500639,6.622820691554475,-4.847788084579952
6.174334960520881,6.503435818193074,6.574342810708675,-5.3108934004785375
6.239369318702812,6.771526786151282,6.5212338767038895,-5.750659002223372
6.307084586564325,6.999186922544309,6.463727286681656,-6.119984773535761
6.3770764557897675,7.142319054449188,6.402527438946298,-6.3553852952212955
6.448499646334259,7.158853125917442,6.3389735859940854,-6.396563635855064
6.520088177593434,7.033125224112879,6.275007949635535,-6.221034461179951
6.590419429834562,6.790308198391332,6.212797605023735,-5.864653332809196
6.658322511818476,6.48173323098408,6.154151071695643,-5.40092071317458
6.723139844128316,6.156222798728742,6.100141864563897,-4.900344959967406
6.7847020721156035,5.844637013090181,6.051138414964223,-4.408326927933392
6.843148442246505,5.560874915283742,6.007055145684889,-3.9463064206404956
6.898757191399342,5.308458660088294,5.967592081478484,-3.5209164176435563
6.951841778000225,5.085945854735836,5.932382917302049,-3.1315908361971445
7.002701236547583,4.89001142275232,5.901067008940077,-2.7749370800195976
7.0516013507751065,4.716914805213743,5.8733176381398815,-2.4468460633232536
7.0987704988272435,4.563108525591103,5.848849177506649,-2.1433891600058637
7.1444015840831545,4.425443466872412,5.82741528590659,-1.8611387740018868
7.188656018751878,4.301200681886748,5.8088038981665715,-1.597235957450723
7.2316680255707455,4.188056530237058,5.792831538592064,-1.3493566034479918
7.273548590873116,4.084028081136152,5.779337972557584,-1.1156436573456325
7.314388871684478,3.9874181157687723,5.7681815359841275,-0.8946337668393988
7.354263052842166,3.8967667599322864,5.759235198315734,-0.6851892601703339
7.393230720441489,3.810811496479277,5.752383305714031,-0.48643873493913914
7.431338835406281,3.728455181494601,5.74751891836464,-0.29772642959375817
7.4686233872212275,3.6487409495047274,5.744541654068702,-0.11856943595214284
7.5051107967162745,3.570832741960743,5.743355959709181,0.05137844673853684
7.540819124135882,3.4940002735857276,5.743869744176566,0.212357333955375
7.5757591268717395,3.417607408219489,5.7459933175161195,0.3645272804176093
7.6099352009539345,3.341103085574684,5.749638590320296,0.5079904302508516
7.643346231809681,3.2640140989572712,5.7547184946228045,0.6428098406567079
7.675986372799254,3.1859391645538975,5.7611465930293715,0.769025390631565
7.707845764444793,3.1065438449086433,5.768836846935687,0.8866670887594927
7.738911202893879,3.025555994237112,5.777703517823282,0.9957660300541555
7.76916676283625,2.9427614829733217,5.787661178123823,1.0963632141434605
7.798594377665983,2.8580000347629912,5.798624810265258,1.1885164184678456
7.827174378013614,2.771161071974055,5.810509974449936,1.272305313870434
7.854885988733354,2.6821795164566886,5.823233027588641,1.347835010269204
7.881707783897921,2.591031531511289,5.836711377691333,1.415238222504221
7.9076180992130345,2.497730219715535,5.850863759916375,1.474676247707291
7.93259540141019,2.402321310532056,5.865610522393448,1.5263389436271033
7.95661861451551,2.3048788827811215,5.880873911829719,1.5704438913135361
7.9796674033433215,2.2055011715753836,5.896578350742854,1.6072349153382164
8.001722415059076,2.1043065086841843,5.912650699896236,1.6369801208465378
8.022765480145917,2.001429440983128,5.929020501104701,1.659969590123749
8.042779774555749,1.897017064975283,5.945620197005939,1.676512863105468
8.061749945205502,1.7912256074691038,5.962385325636993,1.6869363074542434
8.079662201280193,1.6842172742567445,5.979254688711536,1.6915804654104332
8.09650437402276,1.5761573807053528,5.99617049336564,1.6907974473551939
8.112265947829814,1.4672117709783077,6.013078467839192,1.6849484264107726
8.126938065539596,1.3575445263748478,6.0299279521033,1.6744012747375667
8.140513510803345,1.2473159580939615,6.046671964850676,1.6595283705618598
8.152986670384285,1.1366808755608797,6.063267248556294,1.6407045953235513
8.164353479139894,1.0257871182015277,6.07967429450953,1.6183055325050504
8.174611350321909,0.9147743360757697,6.0958573498345805,1.5927058734655148
8.183759093682667,0.8037730029389132,6.111784408569235,1.56427803071037
8.191796823712057,0.6929036439561796,6.127427188876339,1.533390955231699
8.198725860151619,0.5822762593297445,6.1427610984286565,1.5004091516427285
8.204548622744916,0.47198992441959664,6.157765189945084,1.465691882617132
8.209268521989111,0.36213254647906906,6.172422108771255,1.4295925524888147
8.212889847453901,0.2527807578356346,6.186718034296144,1.392458258666257
8.215417655032258,0.1439999251959988,6.200642616882806,1.3546294986973009
8.216857654284219,0.035844254721323715,6.21418891186978,1.3164400203429398
8.217216096831432,-0.07164302741053341,6.227353312073209,1.2782168018604971
8.216499666557327,-0.1784294390756404,6.240135480091814,1.2402801498502738
8.214715372166571,-0.2844929707850777,6.252538281590317,1.20294390248725
8.21187044245872,-0.38982179834919456,6.264567720615189,1.1665157267477724
8.207972224475228,-0.49441399885103343,6.276232877882667,1.1312974993599654
8.203028084486718,-0.5982772887922557,6.287545852876267,1.0975857626665466
8.197045311598796,-0.7014288029271913,6.298521710502933,1.0656722484012526
8.190031023569524,-0.8038949320037756,6.309178432986945,1.0358444645578202
8.181992074249486,-0.9057112374249408,6.319536877632523,1.0083863430882305
8.172934961875237,-1.0069224607763396,6.3296207410634056,0.9835789491231007
8.162865737267474,-1.1075826462874336,6.339456530554637,0.9617012557851485
8.151789910804599,-1.2077553946606512,6.349073543112488,0.9430309924966832
8.139712356857991,-1.3075142673827578,6.358503853037455,0.9278455790023327
8.126637214184164,-1.4069433616981124,6.367782308827478,0.9164231621863085
8.112567780567183,-1.5061380779601992,6.3769465404493415,0.909043778217167
8.09750639978758,-1.605206103182965,6.386036978231513,0.905990668670008
8.08145433875575,-1.7042686373970615,6.395096884918213,0.9075517861324651
8.064411652381779,-1.8034618929996808,6.404172402779538,0.9140215324765734
8.046377033451781,-1.9029389017987963,6.413312618104303,0.9257027815475568
8.027347644433794,-2.002871670017884,6.422569645919779,0.9429092475318962
8.007318927733616,-2.103453728244518,6.431998738395098,0.9659682707103336
7.9862843904511704,-2.204903131208275,6.441658421102201,0.9952241035449699
7.964235359139088,-2.307465971253773,6.451610662137651,1.0310417917314736
7.9411606994265505,-2.4114204790601783,6.461921080054966,1.073811756187724
7.917046494635948,-2.517081794687436,6.472659197616843,1.1239551914275576
7.891875676689074,-2.624807499669574,6.483898749531119,1.1819304005663
7.8656276016923785,-2.7350040033676355,6.495718053536782,1.2482401822659863
7.838277561658702,-2.8481338682263573,6.508200455359442,1.3234403613373282
7.809796222976439,-2.9647241284476205,6.521434858972816,1.4081494969343227
7.780148981691962,-3.0853755864826855,6.535516353942159,1.5030596834103258
7.749295225827135,-3.2107729296049206,6.550546950776262,1.6089481325903205
7.717187496531086,-3.3416952391679837,6.5666364321021655,1.7266888127612723
7.6837705441394055,-3.4790259723259807,6.583903320229778,1.8572626824827279
7.648980284416146,-3.6237606159615003,6.6024759470546055,2.0017637631949525
7.612742678256531,-3.77700866646934,6.622493584686555,2.161396048685141
7.574972591591838,-3.939983910061542,6.644107545173406,2.337452393094924
7.535572752491222,-4.1139724069279975,6.667482069104355,2.531259984438739
7.494433028421942,-4.300259948907454,6.692794668948742,2.744066158964724
7.451430428932867,-4.499988456602836,6.720235330538389,2.9768209051110603
7.406430544366839,-4.713892187136844,6.7500035395895,3.2297862239073307
7.359291622495471,-4.941840008936244,6.782301401828573,3.5018680732929726
7.309873222406108,-5.182087386331664,6.817320082561503,3.7895355006522635
7.258052348542791,-5.430151198751488,6.855215437568026,4.08520666311562
7.203750836555276,-5.6773400042275375,6.8960675041991815,4.375153317371602
7.1469774365130005,-5.909344112841897,6.939819037372898,4.637505390668835
7.087883995384582,-6.106022327118267,6.986194091279586,4.841978126984787
7.026823772113399,-6.244260960232284,7.034613872549434,4.95399230998543
6.964381162511076,-6.305093388501903,7.084153795649288,4.944882534779493
6.901330228626057,-6.282599997799254,7.133602620997083,4.8046824065471325
6.838504228648064,-6.187968924254582,7.181649445062554,4.548081871675565
6.7766245394055185,-6.044433992046349,7.227130263779309,4.207412315952201
6.716180199485055,-5.877232262847132,7.269204386938831,3.818442905949202
6.657407876856583,-5.7061592956168505,7.307388815998324,3.409718636638269
6.600346283900414,-5.543501892735129,7.341486002364706,2.9994611024734206
6.544911264973063,-5.395356399111611,7.371480613389441,2.597294964452308
6.490957700981947,-5.263782176741434,7.397453563033964,2.207218459549352
6.438319879214533,-5.148559558319469,7.419525747629457,1.830065316807767
6.386834283631338,-5.048322678218433,7.437826400797535,1.4651124615462514
6.336351056849154,-4.961203949643018,7.452477525412998,1.1110106224947893
6.2867390173527244,-4.885170840896821,7.463587631637945,0.766283434721823
6.2378873089437565,-4.818188073622496,7.471250465985163,0.42957792133436234
6.189705428207532,-4.758287170310544,7.475546245198506,0.09977935119197767
6.142122556504426,-4.70358979589502,7.4765440387104265,-0.22394545958594264
6.095086658545476,-4.652310082177384,7.474304584114567,-0.5421417959337751
6.0485635577237025,-4.602749188005065,7.46888316615523,-0.8550795932250697
6.0025360658436515,-4.5532888439978825,7.46033237022298,-1.1627757934412724
5.9570031774036725,-4.5023871244502995,7.448704612288567,-1.4650221121172378
5.91197930615917,-4.448577791898282,7.434054391167394,-1.7614161900988865
5.867493528240187,-4.390473514055574,7.416440229266406,-2.0513952146656655
5.823588793099631,-4.326772656438858,7.395926277119749,-2.334271531175073
5.780321066535243,-4.256268999053247,7.372583561807998,-2.6092698519638287
5.73775837654471,-4.177863507804635,7.34649086328836,-2.875565585365156
5.695979741466664,-4.090577161012867,7.317735207434708,-3.1323236593125228
5.655073969856535,-3.9935637661551464,7.286411970841583,-3.378737063155563
5.6151383321949835,-3.8861216923318405,7.252624600210027,-3.614064214718088
5.576277115271665,-3.7677034857096383,7.216483958062846,-3.8376641979663915
5.538600080414569,-3.637922425508731,7.1781073160831825,-4.049028919955523
5.502220856159481,-3.4965552136206224,7.137617026883627,-4.247811306764678
5.467255304023276,-3.3435401669344635,7.095138913815981,-4.433848794742026
5.433819902353931,-3.1789704911734016,7.050800425868561,-4.6071815698053555
5.402030197442197,-3.003082449196638,7.004728610170507,-4.768065255054686
5.3719993729502304,-2.8162384829995606,6.95704795761996,-4.916978033801736
5.343836988120235,-2.6189055916991095,6.907878177281943,-5.054622506282226
5.3176479322032435,-2.4116294899915327,6.857331952219121,-5.181922895431668
5.293531637303328,-2.195005254768156,6.805512723264804,-5.300018519013431
5.271581584755647,-1.9696452959310573,6.75251253807467,-5.4102547092823325
5.251885131796336,-1.7361455510781039,6.698409990981847,-5.514172564133427
5.234523676285555,-1.4950508028844287,6.643268265340512,-5.6134990324449765
5.21957316825671,-1.2468199677934408,6.587133275016062,-5.710138846635905
5.207104968578776,-0.9917921408364426,6.530031886549703,-5.806169684992563
5.197187047170411,-0.7301541694536018,6.471970189699777,-5.90384162078458
5.189885505475875,-0.4619106801873751,6.412931773491931,-6.005581291288563
5.185266398674001,-0.1868579832620509,6.352875960579046,-6.114000096130585
5.183397818841381,0.09543554789414105,6.29173595961774,-6.231903723662452
5.184352174320322,0.3856376225833107,6.229416922381115,-6.362296679086825
5.188208550546156,0.6846390886139138,6.165793955590247,-6.5083689154465105
5.195054941432295,0.9935017462811266,6.100710266435781,-6.673439777033869
5.204989958895106,1.3133334667935794,6.0339758686654426,-6.860813236761185
5.218123293563042,1.6450307808088955,5.96536773629783,-7.073461663043433
5.234573601371131,1.9887865974038155,5.894633119667396,-7.313395631952232
5.254461467345169,2.34320141254467,5.821499163347873,-7.580492754234049
5.277893481470615,2.7037826476781146,5.745694235805533,-7.870478540772989
5.304931307947396,3.0606649814742597,5.666989450397803,-8.17180848193721
5.335537957762139,3.3957990118697072,5.58527136557843,-8.461758353301224
5.369495947880837,3.681085995649175,5.500653782045418,-8.703717904522161
5.406306807837328,3.880991144451603,5.413616603000197,-8.850530055280258
5.445116719281844,3.963612841132718,5.325111302447394,-8.859373568905808
5.484752847693172,3.9177345416361975,5.2365175667583355,-8.71484494824665
5.523930193109534,3.7621167418479855,5.149369117275869,-8.441442050628506
5.561551360528013,3.5357986814742506,5.064954696769584,-8.090241039462276
5.596909347342756,3.2785937051930665,4.984052286374961,-7.71256864546495
5.629695284394686,3.0187929559144253,4.906926599920312,-7.343813619945361
5.65988321395383,2.7719136001064753,4.833488463720858,-7.0022283685070885
5.687602349954895,2.5445133416033947,4.763466180035787,-6.694363495789181
5.7130474833709295,2.3381464194352417,4.696522545077896,-6.420476823651887
5.736428947565282,2.151982629521635,4.632317776841377,-6.17802227630903
5.757948773860499,1.9842444049748442,4.570537554078286,-5.963507992853807
5.777791217910248,1.8329135973395263,4.5109024741497485,-5.773371231814639
5.796120353883643,1.6960473426007638,4.453168761831602,-5.604340212317647
5.813080827309651,1.5719001012432787,4.397125359708426,-5.453549857944925
5.828799828322084,1.4589549759612535,4.342589861128976,-5.318548012823967
5.843389378081697,1.3559154622363194,4.289404381000737,-5.197258073827255
5.85694853270406,1.2616821170284056,4.237431800262464,-5.087928439520498
5.869565353874344,1.17532542079429,4.186552515867259,-4.989081973939938
5.881318608082287,1.0960597082681054,4.1366616961278595,-4.899470595094591
5.892279205164968,1.0232200096114858,4.087666990176913,-4.818036424289635
5.902511405261083,0.9562422521406,4.039486625934017,-4.743879359241679
5.912073827782489,0.8946466737205357,3.9920478323416,-4.67623034071639
5.921020294519694,0.8380240753651087,3.945285528934436,-4.614429431480025
5.929400535273346,0.7860244892918523,3.899141234619636,-4.557907862676103
5.937260780166264,0.7383478612692846,3.8535621559928748,-4.506173307564997
5.944644258778957,0.6947363957181005,3.808500422917225,-4.458797762583209
5.951591622736138,0.6549682671123304,3.7639124452913926,-4.415407528700224
5.958141305407261,0.618852452466294,3.7197583700043904,-4.375674884403982
5.964329829931923,0.5862244836325989,3.6760016211603506,-4.339311124174968
5.970192074768249,0.556942954002051,3.632608509918601,-4.306060704550145
5.97576150430827,0.5308866423578572,3.5895479028730994,-4.275696296267709
5.981070370731849,0.507952137886544,3.5467909399104225,-4.248014588038446
5.986149892110714,0.48805186559962943,3.504310794030038,-4.222832727436326
5.991030410766711,0.47111242162292755,3.4620824667556747,-4.199985318997377
5.99574153498294,0.4570731339860754,3.4200826135657008,-4.179321930032973
6.000312266322801,0.4458847678881971,3.378289394265371,-4.1607050813746325
6.0047711140016835,0.4375082964225664,3.3366823434516246,-4.144008722931863
6.009146196965909,0.43191366032387213,3.295242256222306,-4.129117211316839
6.0134653335691475,0.4290784458194215,3.2539510841091377,-4.115924816717932
6.017756118027342,0.42898642082324345,3.2127918359419585,-4.1043357858236735
6.022045982235574,0.43162588920018463,3.171748478083722,-4.094264973837953
6.026362241127576,0.43698785267096657,3.1308058283453426,-4.085639029116908
6.030732119654286,0.44506401055260075,3.0899494380541737,-4.078398068325546
6.035182759759812,0.45584467670168316,3.0491654573709184,-4.072497721344699
6.039741206526829,0.46931674505902815,3.0084404801574713,-4.0679113611474
6.044434373977419,0.4854618808817499,2.9677613665459974,-4.064632276930732
6.049288992786236,0.5042551426009724,2.92711504377669,-4.0626755145046
6.054331544212245,0.5256642381507384,2.886488288631644,-4.062079111456741
6.059588186593753,0.5496495825435737,2.8458674975170766,-4.062904505706197
6.065084682419188,0.5761652510023784,2.8052384524600145,-4.065235994334572
6.070846334929212,0.6051608240789548,2.7645860925166685,-4.0691792520572045
6.076897943170001,0.6365840160255293,2.7238942999960964,-4.074859061441243
