th1 (rad),w1 (rad/s),th2 (rad),w2 (rad/s),a1 (rad/s^2),a2 (rad/s^2)
2.628683016520843,0.5968559577527222,2.153694739159178,0.8837080655088158,-2.352094959503122,-5.927102528900675
2.63465157609837,0.5733350081576909,2.1625318198142662,0.824437040219809,-2.2490395566978076,-5.981244628732333
2.640384926179947,0.5508446125907128,2.1707761902164644,0.7646245939324857,-2.1511947810054046,-6.032769030166366
2.645893372305854,0.5293326647806588,2.178422436155789,0.7042969036308221,-2.058323157278593,-6.0821044451977535
2.6511866989536608,0.5087494332078728,2.1854654051920974,0.6434758591788445,-1.9701988638582761,-6.129651600620163
2.6562741932857397,0.48904744456929006,2.191900163783886,0.5821793431726429,-1.8866107935417862,-6.1757816762957
2.6611646677314327,0.4701813366338722,2.1977219572156126,0.5204215264096859,-1.8073654896427969,-6.220834737826998
2.6658664810977712,0.4521076817374442,2.2029261724797093,0.4582131790314159,-1.7322899433054548,-6.265118192724698
2.6703875579151455,0.43478478230438966,2.2075083042700236,0.39556199710416895,-1.6612342399525926,-6.308905298157736
2.6747354057381894,0.41817243990486375,2.211463924241065,0.3324729441225916,-1.5940740435315428,-6.3524337480212045
2.678917130137238,0.40223169946954834,2.214788653682291,0.2689486066423795,-1.5307129070165129,-6.395904367492969
2.6829394471319334,0.3869245703993832,2.2174781397487147,0.20498956296744983,-1.4710843964276625,-6.43947994453897
2.6868086928359274,0.3722137264351066,2.219528035378389,0.14059476352206013,-1.415154013481704,-6.483284229952105
2.6905308301002786,0.3580621863002895,2.2209339830136097,0.07576192122253908,-1.362920899000735,-6.5274011403736125
2.6941114519632814,0.34443297731028216,2.221691602225835,0.01048790981880296,-1.3144192955388125,-6.571874202164223
2.697555781736384,0.33128878435489406,2.2217964813240227,-0.05523083220283928,-1.2697197435654404,-6.616706277693175
2.700868669579933,0.31859158691923967,2.2212441730019945,-0.12139789497977103,-1.2289299812596106,-6.661859619236491
2.7040545854491254,0.30630228710664353,2.220030194052197,-0.18801649117213595,-1.192195513867465,-6.707256298777395
2.7071176083201918,0.29438033196796887,2.2181500291404754,-0.2550890541599099,-1.1596998150680229,-6.752779064060359
2.7100614116398716,0.28278333381728865,2.2155991385988765,-0.3226168448005135,-1.1316641203301894,-6.798272671681958
2.7128892449780446,0.27146669261398676,2.2123729701508714,-0.3905995715173331,-1.1083467713182618,-6.843545746183883
2.7156039119041844,0.2603832249008041,2.208466974435698,-0.4590350289791719,-1.0900420715120216,-6.888373209413105
2.7182077441531924,0.24948280418568392,2.2038766241459062,-0.5279187610733029,-1.077078616829703,-6.932499316235953
2.7207025721950493,0.2387120180173869,2.1985974365351733,-0.5972437542356624,-1.0698170715981323,-6.975641320527764
2.7230896923752232,0.22801384730140556,2.192624998992817,-0.66700016744094,-1.068647370017235,-7.017493778852995
2.7253698308482375,0.21732737360123322,2.1859549973184076,-0.7371751052294699,-1.0739853364708027,-7.057733478268888
2.72754310458425,0.20658752023652519,2.178583246266113,-0.8077524400121588,-1.0862687345829656,-7.096024949388647
2.729608979786615,0.19572483289069553,2.1705057218659913,-0.8787126895060453,-1.105952774487321,-7.132026496745002
2.731566228115522,0.18466530514582233,2.1617185949709308,-0.9500329544734953,-1.1335051297364935,-7.165396646523102
2.7334128811669802,0.1733302538484574,2.1522182654261957,-1.0216869209387263,-1.1694005386830972,-7.1958008782288285
2.735146183705465,0.16163624846162644,2.1420013962168083,-1.0936449297210145,-1.2141150887408143,-7.222918473576373
2.7367625461900813,0.1494950975742183,2.131064946919598,-1.1658741144567781,-1.268120304142824,-7.246449284908334
2.7382574971658236,0.13681389453279005,2.1194062057750305,-1.2383386073058615,-1.33187717691592,-7.2661201991162345
2.7396256361111515,0.12349512276363085,2.107022819701972,-1.3109998092970239,-1.4058302949683124,-7.281691053675292
2.740860587338788,0.10943681981394773,2.0939128216090017,-1.3838167198337767,-1.4904022287106486,-7.2929597512534965
2.7419549555369276,0.09453279752684124,2.080074654410664,-1.4567463173463118,-1.5859883370078065,-7.29976632021845
2.742900283512196,0.07867291415676317,2.065507191237201,-1.5297439805484963,-1.6929521434366928,-7.301995681437312
2.743687012653764,0.06174339272239624,2.050209751431716,-1.6027639373628695,-1.8116214143331588,-7.2995789074105595
2.744304446580988,0.04362717857906465,2.0341821120580876,-1.675759726436975,-1.9422850411845334,-7.292492797398405
2.7447407183667787,0.02420432816721932,2.017424514793718,-1.748684654410959,-2.0851907925566167,-7.280757640178304
2.744982761648451,0.0033524202416531507,1.9999376682496084,-1.8214922308127421,-2.240543956663886,-7.2644330918533715
2.745016285850867,-0.01905301932498571,1.981722745941481,-1.8941365617312758,-2.4085068472558344,-7.243612156384102
2.7448257556576174,-0.04313808779754405,1.9627813803241683,-1.9665726832951167,-2.5891990955048403,-7.218413317418615
2.744394374779642,-0.06903007875259246,1.943115653491217,-2.038756816469303,-2.7826986020529656,-7.188970927590775
2.743704073992116,-0.09685706477312211,1.922728085326524,-2.110646525745211,-2.9890429792600712,-7.155424012030568
2.742735503344385,-0.12674749456572282,1.9016216200690719,-2.1822007658655167,-3.2082312766265737,-7.117903683296817
2.7414680283987276,-0.15882980733198857,1.8797996124104166,-2.253379802698485,-3.440225754434283,-7.076519393136679
2.739879730325408,-0.1932320648763314,1.8572658143834317,-2.3241449966298515,-3.6849534532575436,-7.031344261377378
2.7379474096766447,-0.23008159940890685,1.8340243644171332,-2.3944584392436252,-3.9423073007864904,-6.982399724065902
2.7356465936825556,-0.2695046724167718,1.810079780024697,-2.464282436484284,-4.2121465022832325,-6.929639733080537
2.732951546958388,-0.3116261374396041,1.7854369556598542,-2.5335788338150893,-4.494295976248617,-6.872934720262287
2.7298352855839916,-0.3565690972020903,1.7601011673217033,-2.602308181017712,-4.788544621353051,-6.812055513859155
2.7262695946119706,-0.4044545434156208,1.734078085511526,-2.6704287361563037,-5.094642232989522,-6.74665736744105
2.7222250491778146,-0.45540096574551603,1.707373798149963,-2.7378953098307144,-5.412294926540992,-6.676264235312835
2.7176710395203596,-0.509523915010926,1.679994845051656,-2.8046579521838426,-5.741158968413941,-6.600253407615185
2.7125758003702503,-0.5669355046950654,1.6519482655298174,-2.8706604862599945,-6.080832964230686,-6.517840606206294
2.7069064453232996,-0.6277438343373722,1.6232416606672175,-2.9358388923220575,-6.430848405916986,-6.4280656419904805
2.7006290069799257,-0.6920523183965421,1.593883271743997,-3.0001195487419623,-6.790658635898915,-6.329778747888428
2.69370848379596,-0.7599589047555313,1.5638820762565775,-3.0634173362208466,-7.159626347849957,-6.221627730695598
2.6861088947484046,-0.8315551682340309,1.533247902894369,-3.1256336135278024,-7.5370098104205745,-6.102046130458051
2.6777933430660643,-0.9069252663382366,1.501991566759091,-3.186654074832383,-7.92194807440978,-5.969242637721791
2.668724090402682,-0.9861447470823343,1.4701250260107672,-3.246346501209601,-8.31344550623851,-5.8211920962592485
2.6588626429318585,-1.0692792021447195,1.4376615609986712,-3.3045584221721933,-8.710356082526818,-5.655628509910337
2.6481698509104112,-1.1563827629699877,1.4046159767769493,-3.361114707271297,-9.111367982794892,-5.470040574238373
2.636606023280711,-1.2474964427979365,1.3710048297042363,-3.4158151130136805,-9.514989129805567,-5.261670362854608
2.624131058852732,-1.3426463340959922,1.3368466785740996,-3.4684318166422266,-9.91953444880513,-5.0275159091951265
2.610704595511772,-1.4418416785840436,1.3021623604076773,-3.518706975734178,-10.323115745504296,-4.764338530332797
2.5962861787259315,-1.5450728360390866,1.2669752906503355,-3.5663503610375056,-10.723635234019357,-4.468675831364336
2.5808354503655404,-1.6523091883792802,1.2313117870399606,-3.611037119351149,-11.118783874198723,-4.136861396349166
2.5643123584817475,-1.7634970271212675,1.195201415846449,-3.6524057333146405,-11.506045794739656,-3.7650522019750294
2.5466773882105347,-1.8785574850686642,1.1586773585133026,-3.6900562553343907,-11.882710174067919,-3.3492647684089376
2.5278918133598482,-1.9973845868093434,1.1217767959599587,-3.72354890301848,-12.245892012926605,-2.8854209718167634
2.5079179674917547,-2.1198435069386092,1.084541306929774,-3.7524031127366477,-12.592563247193105,-2.369404267346924
2.4867195324223688,-2.24576913941054,1.0470172758024074,-3.776097155410117,-12.91959560184681,-1.7971267922809495
2.4642618410282635,-2.3749650954290082,1.0092563042483063,-3.7940684233329263,-13.223816462506477,-1.1646074198357361
2.4405121900739735,-2.507203260054073,0.971315620014977,-3.8057144975312838,-13.502078826163782,-0.4680603005601477
2.4154401574734328,-2.6422240483157107,0.9332584750396641,-3.8103951005368852,-13.751346077295025,0.2960072494287289
2.3890179169902757,-2.779737509088661,0.8951545240342952,-3.807435028042598,-13.968791914014718,1.1306894793604596
2.3612205418993892,-2.919425428228808,0.8570801737538692,-3.796128133248993,-14.151915222983032,2.0385724873855957
2.332026287617101,-3.060944580458638,0.8191188924213794,-3.775742408375137,-14.29866908228074,3.0216240840346904
2.301416841812515,-3.2039312712814456,0.781361468337628,-3.74552616753479,-14.407602380693692,4.081088453789255
2.2693775290997005,-3.3480072950883826,0.7439062066622801,-3.7047152829968972,-14.47801181541569,5.217392077878101
2.2358974561488165,-3.4927874132425396,0.7068590538323112,-3.652541362218116,-14.510101318674261,6.430068621221507
2.2009695820163913,-3.6378884264292823,0.67033364021013,-3.5882406760059014,-14.50514533393892,7.71771164647782
2.1645906977520983,-3.7829398797686715,0.6344512334500709,-3.5110635595411233,-14.465651897488787,9.077965009120085
2.1267612989544116,-3.9275963987435594,0.5993405978546597,-3.4202839094499224,-14.395521280344054,10.507561508620398
2.087485334966976,-4.071551611547,0.5651377587601605,-3.3152082943637184,-14.300196121281454,12.002420715636488
2.046769818851506,-4.214553572759814,0.5319856758165233,-3.1951840872073536,-14.186799653821263,13.557816760199652
2.004624283123908,-4.356421569298027,0.5000338349444498,-3.059605919605357,-14.064259915941518,15.168626162770476
1.9610600674309278,-4.497064168457442,0.4694377757483962,-2.9079196579776525,-13.943419828146387,16.829664457290953
1.9160894257463534,-4.6364983667389055,0.44035857916861965,-2.739623013404743,-13.837135783413425,18.536118365619398
1.8697244420789645,-4.77486972457304,0.41296234903457224,-2.554261829748549,-13.760370871676278,20.28407763106497
1.821975744833234,-4.912473433289803,0.38741973073708674,-2.351421053437899,-13.730292865001271,22.071167268718163
1.772851010500336,-5.0497763619398155,0.3639055202027077,-2.1307093807507176,-13.766391151686976,23.897276733983244
1.722353246880938,-5.187440273456685,0.34259842639520055,-1.891736613410885,-13.89062999411403,25.76537666443587
1.6704788441463712,-5.326346573397825,0.3236810602610917,-1.6340828467665265,-14.127656015938456,27.682404641481405
1.6172153784123928,-5.467623133557209,0.30734023179342645,-1.3572588003517123,-14.505072324841604,29.66018478928062
1.5625391470768206,-5.612673856805626,0.2937676437899093,-1.0606569524589062,-15.053773670787649,31.71631331172387
1.5064124085087645,-5.763211593513502,0.2831610742653203,-0.7434938193416676,-15.808293886425036,33.87487545127039
1.4487802925736295,-5.921294532377753,0.2757261360719036,-0.40474506482896366,-16.807023557622294,36.1667229598326
1.389567347249852,-6.089364767953976,0.27167868542361395,-0.043077835230637684,-18.091962656090494,38.62876351157736
1.3286736995703121,-6.2702843945148805,0.2712479070713076,0.34320979988513595,-19.70728081677738,41.30115339459167
1.2659708556251634,-6.4673572026826545,0.27468000507015894,0.7562213338310526,-21.69517328198803,44.220168084629954
1.2012972835983369,-6.684308935502535,0.28224221840846947,1.1984230146773522,-24.085957507806082,47.40233894757062
1.1344541942433115,-6.925168510580596,0.294226448555243,1.6724464041530585,-26.876421982531987,50.81131118865656
1.0652025091375055,-7.1939327304059155,0.3109509125967736,2.180559516039624,-29.985258694714936,54.29163487967975
0.9932631818334463,-7.493785317353065,0.33275650775716986,2.7234758648364217,-33.166803356557175,57.44320968742287
0.9183253286599157,-7.825453350918636,0.3599912664055341,3.29790796171065,-35.8590817437003,59.403424425700884
0.8400707951507294,-8.184044168355639,0.3929703460226406,3.891942205967659,-36.96337219276748,58.53566354778707
0.7582303534671729,-8.553677890283314,0.43188976808231716,4.4772988414455295,-34.672472125921296,52.195647179553916
0.6726935745643398,-8.900402611542527,0.4766627564967725,4.999255313241068,-26.788286397884733,37.20855831266732
0.5836895484489145,-9.168285475521374,0.5266553096291832,5.371340896367742,-12.272282565335265,12.117964105003422
0.49200669369370076,-9.291008301174728,0.5803687185928605,5.492520537417776,6.294955239701941,-19.26179138243777
0.39909661068195346,-9.228058748777707,0.6352939239670383,5.299902623593399,22.739601326624065,-47.85106047378153
0.3068160231941764,-9.000662735511467,0.6882929502029723,4.821392018855583,32.06059850491258,-66.14116479906521
0.21680939583906172,-8.680056750462342,0.7365068703915282,4.159980370864931,34.146646264340156,-73.6377970502321
0.1300088283344383,-8.33859028781894,0.7781066741001775,3.4236024003626095,31.868707954983034,-74.26024503512062
0.046622925456248895,-8.01990320826911,0.8123426981038037,2.6809999500114032,27.920055390913525,-71.81750389503438
-0.0335761066264422,-7.740702654359975,0.8391526976039176,1.9628249110610594,23.820025961698494,-68.50469259659954
-0.11098313317004195,-7.50250239474299,0.8587809467145282,1.2777779850950641,20.214610065490312,-65.27358156829786
-0.18600815711747187,-7.300356294088087,0.8715587265654788,0.6250421694120856,17.30825501547457,-62.42733001682744
-0.2590117200583527,-7.127273743933341,0.8778091482595997,0.0007688692438111433,15.121741953025415,-59.987069574105675
-0.33028445749768615,-6.976056324403087,0.8778168369520377,-0.5991018264972456,13.611755318077888,-57.868366734110026
-0.400045020741717,-6.839938771222308,0.8718258186870652,-1.1777854938383459,12.71912250263139,-55.95766897070916
-0.4684444084539401,-6.7127475461959945,0.8600479637486818,-1.7373621835454376,12.385415825970995,-54.14356599056514
-0.5355718839159,-6.5888933879362845,0.8426743419132274,-2.278797843451089,12.556647134938334,-52.32905063256787
-0.601460817795263,-6.463326916586901,0.8198863634787166,-2.802088349776768,13.182201363704849,-50.43615637957152
-0.6660940869611319,-6.3315049029498525,0.7918654799809489,-3.306449913572483,14.212444859608173,-48.407625159353486
-0.7294091359906305,-6.1893804543537705,0.7588009808452241,-3.790526165166018,15.596442388700686,-46.20735924690991
-0.7913029405341682,-6.033416030466763,0.7208957191935639,-4.252599757635117,17.28037233653795,-43.820206858462186
-0.8516371008388358,-5.860612307101384,0.6783697216172127,-4.690801826219739,19.206860536723884,-41.2511692505481
-0.9102432239098497,-5.668543701734145,0.6314617033550153,-5.10331351872522,21.31527313176008,-38.523982551818456
-0.9669286609271911,-5.455390970416544,0.5804285681677631,-5.488553344243405,23.542902397504257,-35.67903678383192
-1.0214825706313566,-5.219961946441502,0.525543034725329,-5.845343712081724,25.826903134476247,-32.7706629372764
-1.0736821900957716,-4.961692915096739,0.4670895976045118,-6.173050341454488,28.106777661065777,-29.86390484250341
-1.123299119246739,-4.680625138486081,0.4053590941899669,-6.471689389879522,30.327163656421853,-27.030973537718552
-1.1701053706315998,-4.377353501921863,0.3406422002911717,-6.741999125256708,32.440655124179564,-24.347644373954218
-1.2138789056508184,-4.052946950680067,0.2732222090386046,-6.98547556899625,34.410387884851495,-21.889891721458767
-1.254408375157619,-3.7088430718315517,0.2033674533486421,-7.204374486210838,36.212150770282996,-19.731055754331827
-1.2914968058759344,-3.3467215641287216,0.13132370848653369,-7.401685043754156,37.835840571359846,-17.939795884991657
-1.3249640215172216,-2.968363158415123,0.05730685804899212,-7.581083002604073,39.28615323680412,-16.579004558616607
-1.354647653101373,-2.5755016260470818,-0.018503971977048617,-7.746873048190239,40.58247620414487,-15.705733340434568
-1.3804026693618436,-2.169676864005633,-0.09597270245895101,-7.903930381594585,41.757985869823194,-15.372015821753019
-1.4020994380019,-1.7520970053074012,-0.17501200627489688,-8.057650539812116,42.85791397500823,-15.626235675530884
-1.4196204080549741,-1.323517865557319,-0.25558851167301805,-8.213912896567425,43.93675561125349,-16.514316326266957
-1.4328555867105472,-0.884150309444784,-0.3377276406386923,-8.379056059830095,45.05372662059626,-18.079345683566824
-1.441697089804995,-0.43361304323882144,-0.42151820123699324,-8.559849516665762,46.26481151250382,-20.356972519459315
-1.4460332202373831,0.029035071886216735,-0.5071166964036509,-8.763419241860355,47.60785340244829,-23.361404476326385
-1.445742869518521,0.5051136059106996,-0.5947508888222545,-8.99703328662362,49.07362139693307,-27.05205927450349
-1.440691733459414,0.9958498198800303,-0.6847212216884907,-9.267553879368654,50.54982392634188,-31.26259464587408
-1.4307332352606137,1.5013480591434492,-0.7773967604821772,-9.580179825827395,51.717169752786496,-35.56266429467706
-1.415719754669179,2.018519756671314,-0.8731985587404512,-9.935806468774166,51.87517686928821,-39.01941884365972
-1.395534557102466,2.537271525364196,-0.9725566234281928,-10.326000657210763,49.71603460166574,-39.87912558577916
-1.370161841848824,3.034431871380854,-1.0758166300003005,-10.724791913068554,43.240170764706555,-35.428021412393505
-1.3398175231350153,3.466833579027919,-1.183064549130986,-11.07907212719249,30.392845470786522,-22.82397191565193
-1.305149187344736,3.7707620337357843,-1.2938552704029107,-11.307311846349009,11.089617054345409,-1.8229068936706987
-1.2674415670073782,3.8816582042792382,-1.4069283888664008,-11.325540915285716,-10.573601554553342,22.234498160391972
-1.2286249849645858,3.7759221887337047,-1.520183798019258,-11.103195933681796,-27.962153792699226,40.66779779797341
-1.1908657630772488,3.4963006508067123,-1.631215757356076,-10.696517955702062,-37.3450458817719,48.77514592391768
-1.1559027565691817,3.1228501919889933,-1.7381809369130965,-10.208766496462884,-39.868614862353205,48.32478423201118
-1.1246742546492918,2.724164043365461,-1.8402686018777255,-9.725518654142771,-38.5734938100983,43.42659372371173
-1.0974326142156372,2.338429105264478,-1.9375237884191532,-9.291252716905653,-35.8082354869814,37.118819213399334
-1.0740483231629925,1.9803467503946641,-2.0304363155882097,-8.920064524771659,-32.79723667776906,30.894211073133647
-1.0542448556590458,1.6523743836169735,-2.1196369608359262,-8.611122414040322,-30.042548325417073,25.29509924915498
-1.037721111822876,1.3519489003628027,-2.2057481849763296,-8.358171421548771,-27.697766484185472,20.428112982823226
-1.0242016228192479,1.074971235520948,-2.2893298991918174,-8.15389029172054,-25.772682008997858,16.234944161834783
-1.0134519104640385,0.8172444154309694,-2.370868802109023,-7.991540850102192,-24.226466787087567,12.610248496033844
-1.0052794663097289,0.5749797475600937,-2.450784210610045,-7.865438365141854,-23.00610830282789,9.447119078271806
-0.999529668834128,0.34491866453181486,-2.5294385942614634,-7.770967174359136,-22.060759682408325,6.652015946017764
-0.9960804821888098,0.12431106770773159,-2.607148266005055,-7.704447014898959,-21.346093492775076,4.147792016918632
-0.9948373715117326,-0.08914986722001916,-2.6841927361540443,-7.662969094729772,-20.824725365717605,1.8725571152465843
-0.9957288701839327,-0.2973971208771952,-2.760822427101342,-7.644243523577306,-20.46522658054299,-0.22255518174886332
