th1 (rad),w1 (rad/s),th2 (rad),w2 (rad/s)
3.2077489370422607,2.058869410712576,5.379089772096823,-0.8708802352700914
3.2283376311493863,2.084437931129326,5.370380969744122,-0.8143892611493875
3.2491820104606797,2.1106270382885026,5.362237077132629,-0.7592398942215165
3.2702882808435647,2.1374829526249206,5.354644678190414,-0.7055120048504203
3.291663110369814,2.1650566098330697,5.34758955814191,-0.6532870026648391
3.3133136764681446,2.193402882664604,5.341056688115262,-0.6026491355446583
3.3352477052947904,2.2225799601609837,5.335030196759815,-0.5536866107427207
3.3574735048964004,2.252648865239656,5.329493330652388,-0.5064925677094886
3.3799999935487968,2.283673094978242,5.3244284049752935,-0.4611659289934663
3.402836724498579,2.3157183712839453,5.319816745685359,-0.41781215265727356
3.4259939082114186,2.3488524928346037,5.315638624158787,-0.3765439070866009
3.4494824331397647,2.383145282213797,5.31187318508792,-0.337481686938038
3.4733138859619026,2.4186686250427987,5.30849836821854,-0.3007543873034185
3.4975005722123305,2.455496600662254,5.305490824345506,-0.2664998519779049
3.522055538218953,2.4937057065733788,5.302825825825727,-0.2348654110141695
3.546992595284687,2.5333751814568237,5.300477171715586,-0.20600842253213084
3.572326347099255,2.5745874341971997,5.2984170874902645,-0.18009683404185597
3.598072221441227,2.6174285890066167,5.296616119149846,-0.15730977934043447
3.624246507331293,2.6619891595188374,5.295043021356442,-0.13783822838140142
3.6508663989264813,2.708364867677071,5.293664639072627,-0.1218857094118911
3.677950047603252,2.7566576264253504,5.2924457819785085,-0.10966912515433837
3.7055166238675055,2.806976708698379,5.291349090726965,-0.10141968789896712
3.733586390954489,2.8594401290466367,5.290334893847975,-0.09738400208039552
3.7621807922449553,2.914176268480222,5.289361053827171,-0.09782532721772334
3.7913225549297573,2.9713257777895095,5.288382800554993,-0.10302505892929577
3.8210358127076525,3.0310437996778408,5.287352549965701,-0.11328447092135292
3.851346250704431,3.0935025554062623,5.286219705256487,-0.12892676605975917
3.8822812762584937,3.1588943470297313,5.284930437595889,-0.15029948925673886
3.913870219728791,3.2274350311520372,5.283427442703322,-0.17777735787693946
3.9461445700403113,3.2993680234333302,5.281649669124552,-0.21176556488217252
3.9791382502746444,3.3749688930619772,5.27953201347573,-0.2527036029696336
4.012887939205264,3.45455059996697,5.277004977446034,-0.3010696395099146
4.047433445204933,3.538469409461511,5.273994281050935,-0.35738543392178307
4.082818139299548,3.627131480475006,5.270420426711717,-0.42222171772019335
4.119089454104299,3.7210000498735942,5.266198209534515,-0.49620383072797153
4.156299454603035,3.820603002234874,5.261236171227235,-0.5800171887086848
4.194505484625384,3.9265403816088953,5.255435999340149,-0.674411789011905
4.233770888441473,4.03949100320948,5.248691881450029,-0.7802043459308728
4.274165798473568,4.1602166510522816,5.2408898379907205,-0.8982756317578392
4.315767964984091,4.289561229413994,5.231907081673142,-1.0295589366133284
4.3586635772782305,4.428440400166149,5.221611492307009,-1.1750128662503834
4.402947981279892,4.577814275285486,5.209861363644505,-1.3355673987039631
4.448726124032747,4.738631073097359,5.1965056896574655,-1.5120254269754687
4.496112434763721,4.911722616581635,5.1813854353877105,-1.7048920165606858
4.545229660929538,5.097622720284611,5.164336515222104,-1.9140897785440292
4.596205888132384,5.296267766515661,5.145195617436664,-2.1385025258730925
4.649168565797541,5.506530072975745,5.123810592177933,-2.3752780683303736
4.704233866527298,5.7255438169172495,5.100057811494629,-2.618836072353396
4.761489304696471,5.947843821003455,5.073869450771095,-2.85961647639942
4.820967742906506,6.164505121953075,5.0452732860071015,-3.0828474322651753
4.882612794126036,6.36278868972126,5.0144448116844496,-3.2680692451500484
4.946240681023249,6.527159630986794,4.981764119232949,-3.3906684904533058
5.011512277333117,6.642477746116992,4.947857434328416,-3.4265791456419232
5.077937054794287,6.6989638731796575,4.913591642871997,-3.3595880151497615
5.144926693526084,6.696454728316349,4.879995762720499,-3.187669351166838
5.211891240809247,6.644765871064296,4.848119069208831,-2.923740390345473
5.278338899519889,6.55962136821525,4.818881665305376,-2.5899719703160566
5.343935113202042,6.457108043441132,4.792981945602215,-2.2098296275230496
5.408506193636453,6.349916040288683,4.770883649326985,-1.802548157652833
5.472005354039339,6.246237159994931,4.752858167750456,-1.381380234937935
5.5344677256392885,6.150354896521543,4.739044365401076,-0.9543099028935764
5.595971274604504,6.063762290416927,4.72950126637214,-0.5255870616914071
5.656608897508673,5.986172312293316,4.724245395755227,-0.0971612671546328
5.716470620631606,5.916238512388519,4.72327378308368,0.33026812567523517
5.775633005755491,5.852011071880778,4.726576464340432,0.7565686852331691
5.834153116474299,5.791206255754711,4.734142151192764,1.1817604395658292
5.892065179031846,5.7313599923959115,4.745959755588423,1.6057781172038028
5.949378778955805,5.66991566473996,4.762017536760461,2.028344662047105
6.006077935603205,5.604278014281174,4.7823009833809325,2.4489148033050783
6.062120715746016,5.531852286237071,4.806790131413983,2.8666643684871467
6.117439238608387,5.450079465509092,4.835456775098854,3.280511518137653
6.171940033263478,5.356473175941964,4.86826189028023,3.6891620646320784
6.225504765022898,5.248660368409127,4.905153510926551,4.09117411905364
6.2779913687069895,5.12442555940959,4.946065252117087,4.485038609512001
6.329235624301085,4.9817566834295794,4.990915638212207,4.869272475485325
6.379053191135381,4.818889390691355,5.03960836296706,5.242521069140692
6.427242085042295,4.634345792413172,5.092033573658467,5.603665843765566
6.473585542966426,4.426963237274783,5.1480702320961225,5.951933046931625
6.517855175339174,4.195908735161383,5.207589562565439,6.286999056637457
6.5598142626907885,3.940675167839551,5.270459553131814,6.609088325034866
6.599221014369184,3.66105646466447,5.336550436382162,6.91906065766303
6.635831579015829,3.357100483177943,5.405741042958793,7.218485660605848
6.669402583847608,3.0290404465420044,5.477925899564851,7.509703352834743
6.6996929883130285,2.6772085869116147,5.553022933093199,7.795870599862548
6.726465074182145,2.3019395527351327,5.630981639091824,8.080992132953714
6.749484469709496,1.9034772278358454,5.711791560421362,8.369930559162198
6.768519241987854,1.4819092428123588,5.795490866012983,8.668378348827206
6.783338334415978,1.0371734681997824,5.8821746495012555,8.982749456238725
6.793710069097976,0.5692194713531589,5.972002144063643,9.31989601993339
6.7994022638115075,0.07848180651218184,6.065201104262976,9.686453281086935
6.800187081876629,-0.43304448365608694,6.162065637073845,10.087428054448372
6.795856637040068,-0.9596255953990956,6.262939917618329,10.52334434319998
6.786260381086078,-1.487792916307579,6.368173361050329,10.984932551969772
6.771382451923002,-1.9900371779199055,6.478022686570027,11.44458556639915
6.751482080143803,-2.4177530570808545,6.592468542234018,11.84650682192776
6.727304549572994,-2.7010252207729137,6.710933610453296,12.105632431332126
6.700294297365265,-2.7697575619832127,6.831989934766617,12.134897199812098
6.672596721745433,-2.5980844462752772,6.953338906764738,11.903513292225078
6.64661587728268,-2.2315853385930318,7.07237403968699,11.471791909346313
6.624300023896749,-1.7566601451770611,7.187091958780453,10.9491387569761
6.606733422444979,-1.248265801026684,7.296583346350214,10.425686694315317
6.594250764434712,-0.7491728720933519,7.4008402132933675,9.947632921205717
6.586759035713778,-0.27705921124151633,7.500316542505424,9.52878557868565
6.583988443601363,0.1635563941348634,7.595604398292281,9.167056418277747
6.585624007542712,0.5735849045792263,7.687274962475058,8.854566003703635
6.591359856588505,0.955613739340218,7.775820622512095,8.582265622383673
6.600915993981907,1.3123453020737552,7.861643278735931,8.341690665888315
6.614039447002645,1.6460432385656187,7.945060185394814,8.125472960017671
6.630499879388301,1.9584023003345568,8.026314914994991,7.927379226858753
6.650083902391647,2.2505833299916707,8.105588707263578,7.742197424521437
6.672589735691564,2.5233048163958967,8.183010681508792,7.565595234676392
6.697822783855523,2.776947169242791,8.258666633855556,7.393993181671711
6.725592255547951,3.0116528187661404,8.332606565672274,7.224462587204981
6.755708783735612,3.227416094464846,8.404851191544324,7.054646695883701
6.787982944680261,3.424160981591333,8.47539765850316,6.8826996619821275
6.822224554496174,3.601806319169114,8.544224655122981,6.707237666331599
6.858242617687865,3.760318491915643,8.611297031786297,6.527297206430501
6.895845802607021,3.899751880270839,8.676570003850602,6.342296753609131
6.93484332140973,4.020277527696245,8.739992971386693,6.151999163248843
6.975046096686692,4.12220072877221,8.801512963019182,5.956473312910897
7.016268103974414,4.205968519815606,8.86107769614829,5.756054360629348
7.05832778917257,4.272168322373225,8.918638239754584,5.551302729286848
7.101049472396302,4.321519205117596,8.974151267047452,5.34296242369191
7.144264664447478,4.3548573602790555,9.027580891284371,5.131919584239862
7.187813238050269,4.3731174232075425,9.078900087126769,4.91916229972988
7.231544412282344,4.377311201066547,9.128091710124068,4.7057426774785185
7.275317524293009,4.368505234672178,9.175149136898852,4.4927420416162045
7.319002576639731,4.347798418870083,9.220076557315014,4.281239939963791
7.362480560828431,4.316300676268265,9.262888956714653,4.072287420735453
7.405643567591114,4.275113439212081,9.303611830922007,3.86688481959078
7.448394701983235,4.225312463731768,9.342280679117914,3.6659640942000906
7.4906478266205525,4.167933289598823,9.378940320059915,3.4703755689836124
7.532327159516541,4.103959480264666,9.413644075749751,3.2808788125534356
7.573366754319188,4.034313628745832,9.446452863875285,3.098137265851869
7.613709890606646,3.959851000732305,9.477434236533803,2.9227161684822334
7.6533084006139696,3.8813556024785996,9.506661398218625,2.7550832910770446
7.692121956638756,3.7995384052575436,9.534212231129397,2.5956119686933503
7.730117340691331,3.7150374265067856,9.56016835081633,2.4445859397286775
7.767267714956399,3.628419356207266,9.584614210213617,2.3022055221702824
7.803551908518472,3.5401824214372652,9.60763626543532,2.1685946996579206
7.838953732732844,3.4507601985683976,9.629322212431898,2.0438087396094633
7.873461334718528,3.36052610764737,9.649760299827992,1.92784202063488
7.907066595795002,3.2697983539794704,9.669038720034342,1.8206358032237147
7.939764579334797,3.1788451151016686,9.68724507806658,1.722085733374803
7.971553030485814,3.087889805007841,9.704465935400329,1.6320489212050218
8.002431928535893,2.997116279970679,9.72078642461238,1.5503504840173756
8.032403091335599,2.9066738803774843,9.736289929452553,1.4767894848166474
8.061469830139373,2.8166822298760374,9.75105782430072,1.4111442323516465
8.089636652438134,2.72723573639832,9.765169266624236,1.3531769373927924
8.116909009802118,2.6384077591801645,9.778701035998164,1.3026377424132842
8.14329308739392,2.550254421837648,9.791727413422297,1.2592681586555077
8.168795631612296,2.462818064169313,9.804320095008853,1.2228039563966666
8.19342381225399,2.376130334999556,9.81654813457282,1.1929775618079577
8.217185115603986,2.290214935484801,9.8284779101909,1.1695200178632574
8.240087264958834,2.205090027303172,9.840173110369532,1.1521625679915863
8.262138165231866,2.120770323455768,9.851694736049447,1.1406379202130286
8.283345868466423,2.0372688814024698,9.863101115251578,1.1346812469018897
8.303718557280447,1.9545986192693963,9.874447927720597,1.1340309715521197
8.323264543473142,1.8727735761784998,9.885788237436119,1.138429389366172
8.341992279234928,1.7918099375896175,9.89717253132978,1.147623163463403
8.359910378610824,1.7117268460895811,9.908648762964413,1.1613637332567515
8.377027647071719,1.6325470174450167,9.92026240029698,1.1794076662703554
8.39335311724617,1.5542971810502793,9.932056476959684,1.2015169795134855
8.408896089056672,1.4770083632126636,9.944071646754818,1.2274594515975792
8.4236661726888,1.400716031061236,9.956346241270793,1.2570089421627408
8.437673332999411,1.325460114261386,9.968916330692421,1.2899457309229676
8.450927934142026,1.2512849211681327,9.98181578800165,1.3260568847814935
8.463440783353708,1.1782389655508092,9.995076356849466,1.3651366580297757
8.475223173009216,1.1063747195567324,10.008727723429764,1.406986927634931
8.486286920204783,1.0357483081344165,10.022797592706114,1.4514176630412345
8.496644403286128,0.9664191596879915,10.037311769336526,1.4982474277555673
8.506308594883008,0.8984496272628769,10.052294243614082,1.5473039082438396
8.515293091155636,0.8319045940473762,10.06776728269652,1.5984244643215144
8.523612137096109,0.7668510763951157,10.083751527339736,1.6514566942598967
8.53128064786006,0.7033578369096692,10.100266094282334,1.7062590072317452
8.538314226229156,0.6414950193674083,10.117328684354652,1.7627011954627845
8.54472917642283,0.5813338163719302,10.13495569630928,1.8206649985132857
8.55054251458655,0.5229461796202439,10.153162346294414,1.8800446524536656
8.555771976382752,0.46640458150700487,10.17196279281895,1.9407474172799695
8.560436022197823,0.4117818354908472,10.19137026699175,2.002694076689521
8.564553840552732,0.35915098119050404,10.211397207758646,2.065819405243032
8.568145350364636,0.30858523856247483,10.232055401811076,2.1300725989032236
8.57123120275026,0.2601580337289036,10.253356127800108,2.195417665873396
8.57383278308755,0.213943097060915,10.275310304458843,2.2618337754587
8.57597221405816,0.17001463195564365,10.29792864221343,2.3293155632173432
8.577672360377717,0.12844755033563643,10.321221797845602,2.3978733908186665
8.578956835881073,0.08931776818581179,10.34520053175379,2.467533558617876
8.57985001356293,0.05270255133406324,10.36987586733997,2.5383384678040724
8.580377039076271,0.01868089804585777,10.39525925201801,2.6103467268561777
8.58056384805673,-0.012666059339995435,10.421362719286572,2.6836331936838826
8.58043718746333,-0.041254656800265715,10.44819905122341,2.758288939914734
8.580024640895328,-0.06699833466712253,10.475781940622557,2.834421116917712
8.579354657548656,-0.08980734518009846,10.504126151791734,2.9121526938385234
8.578456584096855,-0.10958857983432896,10.533247678730119,2.9916220255561083
8.577360698298513,-0.12624557805462974,10.56316389898568,3.072982192305937
8.576098242517967,-0.1396787955619381,10.593893720908738,3.1564000318414065
8.574701454562348,-0.1497862321354979,10.625457721227152,3.242054758328046
8.573203592240993,-0.15646454534701099,10.657878268810432,3.330136028417315
8.571638946787523,-0.159610810372517,10.691179629094606,3.4208412727208515
8.570042838683799,-0.15912512728041106,10.725388041821814,3.514372058762611
8.568451587410994,-0.15491432714904665,10.76053176240944,3.610929188170604
8.566902444139505,-0.14689708733216392,10.796641054291147,3.710706155713299
8.565433473266182,-0.13501083337873784,10.83374811584828,3.813880511397819
8.564083364932396,-0.11922087766949006,10.87188692096226,3.920602572247637
8.5628911561557,-0.09953231638475592,10.911092946684736,4.030980834765543
8.561895832991853,-0.07600526495666268,10.951402755032392,4.145063356478706
8.561135780342287,-0.04877403707140178,10.99285338859718,4.262814329908567
8.560648039971573,-0.01807083055140783,11.035481531896265,4.384085104764416
8.560467331666059,0.015745674699688367,11.079322382943909,4.508579085141319
8.560624788413056,0.05215674631192778,11.124408173795322,4.635810325248221
8.561146355876176,0.09044561912616314,11.170766277047804,4.76505638481567
8.562050812067437,0.1296566739045703,11.21841684089596,4.895307219173544
8.563347378806482,0.1685548313176248,11.267369913087697,5.025213698113961
8.565032927119658,0.20559022662283366,11.317622050068836,5.153041836585156
8.567088829385886,0.23887566395196175,11.369152468434688,5.276641876531139
8.569477586025405,0.2661868538910528,11.421918887199999,5.3934445660277355
8.572139454564315,0.28499728146770614,11.475853332860275,5.500499448213675
8.574989427378991,0.29255956539798683,11.530858327342411,5.594570253042438
8.577915023032972,0.2860418933170669,11.586804029872836,5.6722987459405845
8.580775441966143,0.26272029453106,11.643527017332241,5.730439011272047
8.583402644911454,0.22021497567936807,11.700831407444962,5.766148836177997
8.585604794668248,0.15674363832737936,11.758492895806743,5.777305911740986
8.587172231051522,0.07135112966108959,11.816265954924154,5.76279948316888
8.587885742348133,-0.035930946635051156,11.873893949755843,5.722740395901266
8.587526432881782,-0.16403390264116624,11.931121353714856,5.658540469841029
8.58588609385537,-0.3109296023091277,11.987706758413266,5.572836670852044
8.58277679783228,-0.47382628368150337,12.043435125121785,5.46927002419066
8.578038534995464,-0.6494462716618428,12.098127825363692,5.35216171008229
8.571544072278845,-0.834334074509862,12.151649442464516,5.226147874687086
8.563200731533748,-1.0251436551771884,12.203910921211387,5.095835160810791
8.552949294981975,-1.218867010629082,12.254869272819494,4.965523632744139
8.540760624875684,-1.4129857296488302,12.304524509146935,4.839020764260459
8.526630767579196,-1.6055456841016724,12.35291471678954,4.719548137048802
8.51057531073818,-1.795167805913288,12.400110198160029,4.60972704696067
8.492623632679047,-1.981013794365263,12.446207468629636,4.511621885303721
8.472813494735394,-2.1627258512427376,12.491323687482673,4.4268195492604105
8.451186236222966,-2.3403564166353146,12.535591882975277,4.3565266325443
8.427782672056614,-2.514299486205215,12.57915714930072,4.301671295872845
8.40263967719456,-2.6852308647598226,12.622173862259448,4.263001832322601
8.375787368546963,-2.854061367509727,12.664803880582674,4.24117817269853
8.347246754871865,-3.0219047121045546,12.70721566230966,4.236855683300997
8.31702770775082,-3.1900605516217246,12.749584219142669,4.2507627035055
8.285127102234602,-3.3600125654428,12.792091846177724,4.283774601763971
8.251526976580175,-3.5334415201866354,12.834929592195364,4.336987949780083
8.216192561378309,-3.7122535246248276,12.878299471693165,4.411798908442656
8.179070026132061,-3.898624120341869,12.922417460777591,4.509990138643114
8.140083784928642,-4.095059092571908,12.967517362164022,4.633830328487613
8.099133194002922,-4.3044724406003585,13.013855665448899,4.7861891808561134
8.056088469596919,-4.530279727613571,13.06171755725746,4.97066697584172
8.010785672320782,-4.776498630239157,13.111424227015878,5.191728261736673
7.963020686018391,-5.047832575608645,13.163341509633245,5.454806322916043
7.912542360262305,-5.349676085100737,13.217889572862406,5.766292234579365
7.8590455994112975,-5.687896449440063,13.2755524952082,6.133203852343031
7.8021666349168965,-6.0680642556282,13.336884533731629,6.562073740320019
7.741485992360615,-6.493436638587528,13.40250527113483,7.056076344274812
7.6765516259747395,-6.960362818734867,13.473066034577577,7.608521908276982
7.60694799778739,-7.449169638872487,13.549151253660348,8.189981654474236
7.532456301398666,-7.910027635534493,13.63105107020509,8.728332394420885
7.453356025043321,-8.252895508959156,13.7183343941493,9.09450213753175
7.370827069953729,-8.371278148982547,13.809279415524617,9.13573596158267
7.287114288463904,-8.220645631597453,13.900636775140445,8.78576465132225
7.20490783214793,-7.8745575275804605,13.988494421653668,8.143916464466628
7.126162256872125,-7.461510430705183,14.069933586298333,7.387090428168668
7.051547152565074,-7.072519722453102,14.14380449058002,6.640546811964404
6.980821955340542,-6.7441329786707875,14.210209958699664,5.953934091789887
6.913380625553835,-6.482038916988194,14.269749299617564,5.333970127465467
6.848560236383952,-6.280528395314791,14.32308900089222,4.771431153051291
6.785754952430804,-6.131366215442117,14.370803312422732,4.253476451018068
6.724441290276383,-6.026858774686217,14.413338076932913,3.767947623577407
6.6641727025295205,-5.960608077194031,14.451017553168686,3.304481869291287
