th1 (rad),w1 (rad/s),th2 (rad),w2 (rad/s),a1 (rad/s^2),a2 (rad/s^2)
4.241502068647639,2.2846228193861338,4.787936057192878,2.60266513774521,11.775403870372074,-3.0009392822908127
4.264348296841501,2.4023768580898546,4.8139627085703305,2.5726557449223018,12.0828865723789,-3.5686497473902183
4.288372065422399,2.5232057238136436,4.839689266019554,2.5369692474483996,12.395056187681643,-4.172715241204045
4.313604122660536,2.64715628569046,4.865058958494038,2.495242095036359,12.711743569830988,-4.812768307302284
4.340075685517441,2.77427372138877,4.890011379444402,2.4471144119633363,13.032829949312363,-5.487922540905378
4.367818422731329,2.9046020208818937,4.914482523564035,2.3922351865542826,13.358198503010728,-6.196608917761181
4.3968644429401476,3.038184005912001,4.938404875429578,2.3302690973766707,13.687654546708458,-6.9363639219843005
4.427246282999268,3.1750605513790853,4.961707566403344,2.2609054581568278,14.020801819930643,-7.703553173026327
4.458996888513059,3.3152685695783917,4.984316620984913,2.1838699264265644,14.356858376553912,-8.493009060149635
4.492149574208843,3.458837153343931,5.006155320249179,2.098939835825068,14.694390858925637,-9.297554756287855
4.526737945742282,3.6057810619331874,5.027144718607429,2.0059642882621893,15.030940687900019,-10.107380404135187
4.562795756361614,3.7560904688121877,5.047204361490051,1.9048904842208374,15.362510750121501,-10.909231575046201
4.6003566610497355,3.9097155763134026,5.066253266332259,1.7957981684703754,15.682878329864845,-11.685368165115491
4.639453816812869,4.066544359612051,5.084211248016963,1.6789444868192205,15.982702942849558,-12.412259257667875
4.68011926040899,4.226371389040546,5.1010006928851555,1.5548218942425418,16.248412958746634,-13.059005993201275
4.7223829742993955,4.388855518628012,5.11654891182758,1.4242318343105291,16.460893343614412,-13.585546190305559
4.7662715294856755,4.553464452064156,5.1307912301706855,1.2883763724074735,16.59407466011432,-13.940814745471233
4.811806174006317,4.719405198665299,5.14367499389476,1.148968224952761,16.613660618646268,-14.061241045501408
4.85900022599297,4.885541804851762,5.155164676144287,1.008355814497747,16.476443971242542,-13.870280156846933
4.907855644041487,5.0503062445641875,5.1652482342892645,0.8696530129292775,16.13093946162333,-13.28008191908226
4.958358706487129,5.211615639180421,5.173944764418557,0.7368521937384549,15.52033369096736,-12.196787939713285
5.010474862878933,5.366818976090094,5.181313286355942,0.6148843143413221,14.588821747441493,-10.531022935274
5.064143052639834,5.512707193564509,5.187462129499355,0.509574084988582,13.291932951568763,-8.214418833223553
5.119270124575479,5.645626523080197,5.192557870349241,0.4274298966563465,11.610075884292403,-5.220941679357929
5.175726389806281,5.761727281923121,5.196832169315805,0.37522047986276724,9.562228933586967,-1.58834923221977
5.233343662625511,5.8573495712589905,5.200584374114432,0.35933698754056953,7.214335247052109,2.568429005018137
5.2919171583381015,5.929492923729511,5.204177743989837,0.3850212775907509,4.676454748094052,7.0609957186538805
5.351212087575397,5.9762574712104515,5.208027956765745,0.45563123477728973,2.085941069565502,11.65258075005317
5.410974662287502,5.9971168819061065,5.212584269113518,0.5721570422778215,-0.4196241554261747,16.099263329279648
5.470945831106563,5.992920640351845,5.2183058395362965,0.7331496755706179,-2.7301502821216714,20.193217543747902
5.530875037510081,5.965619137530628,5.225637336292003,0.9350818510080969,-4.78114574649169,23.792536322622507
5.5905312288853874,5.917807680065711,5.234988154802084,1.173007214234322,-6.557210220326611,26.829650446969712
5.649709305686044,5.852235577862445,5.246718226944426,1.441303718704019,-8.083048160411987,29.300865143026634
5.708231661464668,5.771405096258325,5.261131264131467,1.7343123701342853,-9.408369985036492,31.24603502541422
5.765945712427252,5.677321396407961,5.2784743878328095,2.0467727203884274,-10.592913249513904,32.72756105418029
5.822718926391332,5.571392263912822,5.298942115036694,2.3740483309302305,-11.695153277068226,33.81421387171148
5.87843284903046,5.45444073114214,5.322682598345996,2.712190469647345,-12.765521663759435,34.57129037136879
5.932977256341881,5.326785514504546,5.34980450304247,3.0579033733610332,-13.843334965206854,35.05615107893251
5.986245111486927,5.1883521648524775,5.38038353677608,3.408464884150358,-14.956149637565062,35.317347913326195
6.038128633135451,5.038790668476827,5.414468185617583,3.76163836328362,-16.120411526429194,35.395673516802724
6.088516539820219,4.877586553212535,5.452084569250419,4.115595098451648,-17.342619115194182,35.32591969190555
6.137292405352344,4.704160362060594,5.493240520234936,4.468854295370703,-18.6205352455668,35.138577075386614
6.18433400897295,4.5179550096049255,5.537929063188643,4.820240066124569,-19.9441871142003,34.861020223735586
6.229513559069,4.318513138462922,5.586131463849888,5.168850268361925,-21.29649161939584,34.51789482198153
6.2726986904536295,4.105548222268964,5.637819966533508,5.51402921658174,-22.65335867575986,34.130486119338784
6.313754172676319,3.879014635511365,5.692960258699325,5.855334077775128,-23.983085389636138,33.71483081170422
6.352544319031432,3.639183781615004,5.751513599477077,6.19248238589217,-25.244782287832386,33.2782640556607
6.388936156847582,3.38673595873668,5.813438423335999,6.525265026448777,-26.385497715211827,32.81400015784827
6.422803516434949,3.122880981584562,5.8786910736004865,6.853405028027259,-27.335682107934915,32.293293572998586
6.454032326250795,2.849524160505213,5.947225123880759,7.176337963757245,-28.002776925209563,31.65486456287463
6.482527567855847,2.569496391253117,6.018988503518332,7.492886609385991,-28.26326278536316,30.791918562468936
6.508222531768378,2.2868637633994853,6.093917369612192,7.80080579501068,-27.954883796893846,29.538822391623075
6.531091169402373,2.007314925430547,6.171925427562298,8.09619401892691,-26.87355806000734,27.663142094000996
6.551164318656679,1.7385793448304736,6.252887367751567,8.37282543986692,-24.78396626520527,24.874766100210707
6.568550112104983,1.490739682178421,6.336615622150236,8.621573100869027,-21.457500794539687,20.870397592369077
6.5834575089267675,1.276164674233024,6.4228313531589265,8.830277076792717,-16.750260393424973,15.431023939885954
6.596219155669098,1.1086620702987742,6.511134123926854,8.984587316191575,-10.715864592078987,8.566951201529372
6.607305776372085,1.0015034243779843,6.6009799970887695,9.070256828206869,-3.7065567137959197,0.6505974245605672
6.6173208106158645,0.9644378572400252,6.691682565370838,9.076762802452475,3.6239845931417167,-7.5759333221451195
6.626965189188264,1.0006777031714424,6.782450193395363,9.001003469231023,10.47762837846727,-15.198347966038302
6.636971966219979,1.105453986956115,6.8724602280876725,8.849019989570639,16.172498724851398,-21.457699564374167
6.64802650608954,1.267178974204629,6.960950427983379,8.634442993926898,20.34628760522468,-25.99766248521504
6.660698295831586,1.4706418502568759,7.0472948579226475,8.374466369074748,22.98543752045759,-28.885076807718097
6.675404714334155,1.7004962254614517,7.131039521613395,8.085615600997567,24.31053884774412,-30.451511951249227
6.6924096765887695,1.943601613938893,7.21189567762337,7.781100481485074,24.62913107066681,-31.103555713848618
6.711845692728159,2.189892924645561,7.28970668243822,7.470064924346588,24.233835859413617,-31.199364491551904
6.733744621974615,2.4322312832396973,7.3644073316816865,7.158071279431069,23.35888367646814,-31.00272054777939
6.758066934807012,2.6658201200043785,7.435988044475997,6.848044073953275,22.17493847112693,-30.684929314526023
6.784725136007055,2.887569504715648,7.50446848521553,6.541194780808015,20.80028483323942,-30.345158747545586
6.813600831054211,3.095572353048042,7.56988043302361,6.237743193332559,19.315295861898775,-30.03273818343994
6.844556554584692,3.28872531166703,7.6322578649569355,5.93741581149816,17.774790820799133,-29.765247259342086
6.877443807701362,3.466473219875021,7.691632023071917,5.639763338904739,16.217021889758378,-29.54142672353293
6.912108539900112,3.6286434387726048,7.7480296564609645,5.34434907166941,14.669655755337129,-29.34979632564119
6.948394974287838,3.775339996325976,7.801473147177659,5.050851108412998,13.15352130951031,-29.174185065991043
6.986148374251098,3.9068752094210795,7.851981658261789,4.759109257753088,11.684840693991644,-28.997179479946237
7.025217126345309,4.0237236163609955,7.8995727508393205,4.469137462953626,10.276489463293979,-28.802204962507563
7.065454362508919,4.126488510993935,7.944264125468857,4.18111541332855,8.938666176105055,-28.574712602200666
7.106719247618858,4.215875172754986,7.986075279602143,3.8953682873065434,7.6792237150496705,-28.302773841898727
7.148877999346408,4.292667409905483,8.025028962475208,3.612340548887556,6.503823617759749,-27.97727565334689
7.191804673445463,4.3577056460830805,8.061152367964084,3.3325677923540873,5.416012294397214,-27.5918416486125
7.235381729906294,4.411865769027052,8.094478045887625,3.0566493758679623,4.417275954751665,-27.14256436342666
7.279500387596564,4.456038528574569,8.125044539646305,2.7852237322336957,3.5071031739650995,-26.62761003543
7.32406077288231,4.491109560314221,8.152896776968642,2.5189476318793957,2.6830660760244207,-26.04674263782052
7.368971868485453,4.517940221074465,8.178086253287436,2.2584802055011908,1.9409203523192233,-25.400804636922853
7.414151270696197,4.537349424597657,8.200671055342449,2.004472159131962,1.2747189757312387,-24.691185801139348
7.459524764942174,4.5500966143549695,8.220715776933769,1.7575603011205687,0.6769333739158382,-23.919307575600094
7.505025731085723,4.556865948094128,8.238291379944975,1.5183672253645677,0.13857827521639834,-23.08614904812198
7.550594390566665,4.558251730846292,8.25347505219862,1.2875057348833479,-0.3506579817428994,-22.191841820384447
7.596176907875128,4.554745151028863,8.266350109547455,1.0655873166795033,-0.8022674392154918,-21.235365739227966
7.6417243593854165,4.546722476636708,8.27700598271425,0.8532336592872237,-1.2287395814867805,-20.214385736009437
7.687191584151783,4.53443508082184,8.285538319307122,0.6510898019271294,-1.6433074315771539,-19.125281413618495
7.732535934960001,4.518002006506069,8.292049217326394,0.45983698779094445,-2.059575799501769,-17.963433256276055
7.777715955025062,4.497406248511051,8.296647587204303,0.2802026552281839,-2.4909754981005223,-16.72383734574462
7.822690017510173,4.472496493530046,8.299449613756584,0.11296428177073767,-2.9499878454041863,-15.402115270410427
7.867414982445473,4.442996615076004,8.300579256574292,-0.0410568709333666,-3.4471032339634426,-13.995954398450172
7.911844948596233,4.40852558273637,8.300168687864957,-0.18101641491786832,-3.989526545931341,-12.506940863597567
7.955930204423597,4.368630317277057,8.298358523715779,-0.306085823553844,-4.579728012036411,-10.942623480974905
7.999616507596367,4.322833037156692,8.29529766548024,-0.41551205836359306,-5.214055939666944,-9.318478974269789
8.042844837967934,4.270692477760023,8.291142544896603,-0.508696848106291,-5.881749846102737,-7.65927786821289
8.085551762745535,4.211874979298996,8.28605557641554,-0.5852896267884199,-6.564762999506711,-5.999256776549789
8.127670512538526,4.1462273493039286,8.280202680147656,-0.6452821945539178,-7.238750542872374,-4.380588842345995
8.169132786031565,4.073839843875205,8.273749858202118,-0.6890880829773778,-7.875354277092396,-2.849978254304867
8.209871184470316,3.9950863011042808,8.266858977372344,-0.7175878655204264,-8.445543833901215,-1.4537469233962523
8.24982204748136,3.9106308627652684,8.25968309871714,-0.7321253347543889,-8.923384007585886,-0.23234544237405522
8.288928356109013,3.8213970226894096,8.252361845369597,-0.7344487891781295,-9.28937584558293,0.7844630993917446
8.327142326335906,3.7285032642335802,8.245017357477815,-0.7266041581842121,-9.53260077042603,1.5806242642953314
8.364427358978242,3.63317725652932,8.237751315895974,-0.7107979155412588,-9.651266846001205,2.1544407469585094
8.400759131543536,3.536664588069308,8.230643336740561,-0.6892535080716737,-9.651743713454602,2.5169846412432104
8.436125777424229,3.440147150934762,8.223750801659845,-0.6640836616592416,-9.546559711306502,2.6889766159298816
8.470527248933577,3.344681553821697,8.217109965043253,-0.6371938954999428,-9.351987139468037,2.697059031056106
8.503974064471793,3.2511616824270164,8.210738026088254,-0.6102233051893817,-9.085764039405118,2.570277079009452
8.536485681296062,3.160304042032965,8.20463579303636,-0.5845205343992872,-8.765294053834616,2.3372785624250167
8.568088721716391,3.072651101494619,8.198790587692367,-0.561147748775037,-8.40644515943551,2.024417175346715
8.598815232731337,2.988586649900264,8.193179110204616,-0.5409035770215699,-8.022906219745973,1.6547034257765754
8.628701099230339,2.9083575877028043,8.1877700744344,-0.5243565427638042,-7.625977116278858,1.247421626606168
8.657784675107367,2.8320978165400157,8.182526509006763,-0.5118823264977425,-7.22464873441269,0.8181997416856281
8.686105653272767,2.7598513291958886,8.177407685741786,-0.5037003290808861,-6.825846969288085,0.3793431755102465
8.713704166564726,2.691592859503008,8.172370682450977,-0.4999068973257837,-6.434747316126624,-0.05970967246916633
8.740620095159757,2.6272453863417415,8.16737161347772,-0.5005039940504754,-6.055099225046445,-0.4919043385997829
8.766892549023174,2.566694394091277,8.162366573537215,-0.5054230374364732,-5.68952570978575,-0.9121147507823902
8.792559492964086,2.5097991369934194,8.15731234316285,-0.5145441849442971,-5.339782193136637,-1.3167422751422042
8.81765748433402,2.456401315062053,8.152166901313407,-0.5277116076957191,-5.006970201812831,-1.70337849153834
8.84222149748464,2.4063316130439247,8.14688978523645,-0.5447453926111026,-4.691708040754375,-2.070530501566306
8.86628481361508,2.359414532636381,8.141442331310339,-0.5654506976267656,-4.394263683545669,-2.4174023833753493
8.889878958941443,2.315471895800924,8.135787824334072,-0.589624721460519,-4.1146561487675966,-2.743724407644855
8.913033677899453,2.2743253343132483,8.129891577119466,-0.6170619655369676,-3.852731522513465,-3.049621437124223
8.935776931242586,2.2357980190881137,8.123720957464096,-0.6475581799082099,-3.608219128528237,-3.3355126533332333
8.958134911433467,2.1997158278028315,8.117245375665014,-0.6809133064415422,-3.3807724896653877,-3.602035849758759
8.980132069711495,2.1659081029061777,8.1104362426006,-0.7169336649391298,-3.1699988572890745,-3.849990700939688
9.001791150740557,2.134208114333287,8.103266905951207,-0.7554335719485267,-2.9754802999426486,-4.080296509821832
9.02313323188389,2.1044533113338604,8.095712570231722,-0.796236537046745,-2.7967886734005725,-4.293960887655705
9.044177764997228,2.0764854245998547,8.087750204861255,-0.839176145923302,-2.6334962452467354,-4.492056615382478
9.064942619243226,2.0501504621473874,8.079358443402022,-0.8840967120771268,-2.485183308103728,-4.675704580781114
9.0854441238647,2.02529862906635,8.07051747628125,-0.930853757884938,-2.3514437707998193,-4.846061199752817
9.105697110155363,2.0017841913583516,8.0612089387024,-0.9793143698824661,-2.231889449495727,-5.0043091339291195
9.125714952068947,1.9794652968633943,8.051415795003575,-1.0293574612217573,-2.1261535758537518,-5.151650430364852
9.145509605037581,1.9582037611048568,8.041122220391356,-1.0808739655254058,-2.0338938836566354,-5.289301450030673
9.16509164264863,1.9378648222682904,8.030313480736103,-1.1337669800257126,-1.954795518110828,-5.418489134882989
9.184470290871312,1.9183168670871822,8.018975810935846,-1.1879518713745425,-1.8885739247255497,-5.54044830042228
9.203653459542183,1.8994311278399267,8.0070962922221,-1.2433563543787653,-1.8349778102173844,-5.656419741386076
9.222647770820583,1.881081349737753,7.994662728678312,-1.299920551792626,-1.793792220814946,-5.767649010062148
9.24145858431796,1.8631434275296035,7.981663523160386,-1.3575970418932475,-1.764841749162514,-5.87538577549287
9.260090018593257,1.8454950100379783,7.968087552741454,-1.4163508996481762,-1.7479938560693393,-5.980883702063405
9.278544968693636,1.828015071477285,7.953924043744973,-1.4761597366688102,-1.7431622745125648,-6.085400800997346
9.296825119408409,1.8105834487321593,7.939162446378285,-1.5370137446787837,-1.7503104478430336,-6.190200210543231
9.31493095389573,1.7930803442537289,7.923792308931497,-1.598915746784216,-1.769454939553734,-6.2965513516934415
9.332861757338268,1.7753857948581915,7.907803151463654,-1.6618812603011506,-1.8006687358215865,-6.405731386899062
9.35061561528685,1.7573791074999756,7.891184338860643,-1.7259385741701412,-1.844084341847018,-6.519026879394651
9.36818940636185,1.7389382640815054,7.873924953118941,-1.7911288429640877,-1.8998965461301023,-6.6377355095457
9.385578789002665,1.7199392986202044,7.8560136646893,-1.8575061980595446,-1.9683646902429046,-6.763167650273077
9.402778181988866,1.7002556517177754,7.837438602708705,-1.9251378745622754,-2.0498142318934307,-6.896647533238855
9.419780738506043,1.679757509398841,7.818187223963082,-1.994104349894664,-2.1446373219443937,-7.039513647030159
9.436578313600032,1.6583111361793972,7.798246180464135,-2.0644994863649657,-2.253292026460287,-7.193117892569583
9.453161424961825,1.6357782159147942,7.777601185600485,-2.1364306652906615,-2.3762997065691134,-7.35882287227242
9.469519207120973,1.612015218849103,7.756236878947578,-2.210018894013386,-2.5142399142973026,-7.5379964990030315
9.485639359309463,1.58687281970613,7.734136690007444,-2.285398859003416,-2.66774196228587,-7.732002867422056
9.501508087506524,1.5601954000832712,7.71128270141741,-2.362718887677637,-2.837472068331321,-7.942188020274455
9.517110041507356,1.531820679399958,7.687655512540633,-2.4421407678803813,-3.0241146491193276,-8.16985884960634
9.532428248301356,1.5015795329087647,7.6632341048618295,-2.5238393563764445,-3.2283459269587356,-8.416252879914556
9.547444043630444,1.4692960736391774,7.637995711298065,-2.60800188517559,-3.450797503872438,-8.682496068068858
9.562137004366836,1.4347880986004529,7.611915692446309,-2.6948268458562787,-3.6920069356134197,-8.969545006245669
9.57648488535284,1.3978680292443186,7.584967423987746,-2.7845222959187352,-3.9523515958035205,-9.278109017776593
9.590463565645283,1.3583445132862835,7.557122201028559,-2.8773033860965014,-4.231961260925848,-9.608546594242913
9.604047010778146,1.316024900677025,7.528349167167594,-2.9733888520389304,-4.5306038964197315,-9.960729464749182
9.617207259784916,1.2707188617128278,7.498615278647205,-3.0729961466864224,-4.847538148627974,-10.333866392446076
9.629914448402044,1.222243480226548,7.4678853171803405,-3.176334810610883,-5.1813251793113055,-10.726277716807807
9.642136883204309,1.170430228433435,7.4361219690742315,-3.283597587778961,-5.529591956877326,-11.135110989025897
9.653841185488643,1.1151343088646617,7.403285993196442,-3.39494869766922,-5.888738339310594,-11.555988263922545
9.66499252857729,1.0562469254715559,7.369336506219749,-3.5105085803084455,-6.2535818764280355,-11.982577480258687
9.675554997832005,0.9937111067072755,7.334231420416665,-3.6303343551110325,-6.61693816350318,-12.406085033136087
9.685492108899078,0.9275417250722436,7.297928076865555,-3.7543952054423935,-6.969142118818176,-12.814675747682177
9.6947675261498,0.8578503038840619,7.2603841248111305,-3.8825419629192153,-7.297528462412114,-13.192842142507436
9.70334602918864,0.7848750192599407,7.2215587051819385,-4.01447038434429,-7.5859099520095015,-13.52076963282246
9.71119477938124,0.7090159197398457,7.181414001338496,-4.149678080672515,-7.8141214620620625,-13.773780541717187
9.718284938578638,0.630874705119225,7.13991722053177,-4.287415886089686,-7.957737591104227,-13.921988569146711
9.72459368562983,0.5512973292081828,7.097043061670873,-4.426635771781154,-7.988119220799173,-13.930354457206718
9.730106658921912,0.471416137000191,7.052776703953062,-4.565939316353221,-7.87299306114292,-13.759394152379686
9.734820820291914,0.39268620638876184,7.007117310789529,-4.703533257877018,-7.5778019287228,-13.366833412303336
