th1 (rad),w1 (rad/s),th2 (rad),w2 (rad/s),a1 (rad/s^2),a2 (rad/s^2)
0.24096652602317156,2.6686656148676158,3.130999304334495,2.5439128474370962,-4.599035085662963,-6.3308120264126755
0.26765318217184775,2.622675264010986,3.156438432808866,2.4806047271729694,-4.865027350431001,-6.285357678610172
0.2938799348119576,2.574024990506676,3.1812444800805957,2.417751150386868,-5.12025972893638,-6.233525777935961
0.31962018471702436,2.522822393217312,3.205421991584464,2.355415892607508,-5.36449536894598,-6.1751702389421474
0.34484840864919747,2.4691774395278525,3.2289761505105394,2.2936641902180868,-5.5975417210695335,-6.110206746249291
0.369540183044476,2.413202022317157,3.2519127924127202,2.232562122755594,-5.819256223340544,-6.038620323983008
0.39367220326764757,2.3550094600837514,3.2742384136402762,2.1721759195157637,-6.0295503846229215,-5.960470406489766
0.4172222978684851,2.2947139562375223,3.295960172835434,2.112571215450866,-6.228392299895321,-5.875893491833658
0.4401694374308603,2.232430033238569,3.3170858849899427,2.0538122805325294,-6.415807663394164,-5.785103508260893
0.462493737763246,2.1682719566046273,3.337624007795268,1.9959612454499205,-6.591879373875687,-5.688390065005986
0.48417645732929226,2.1023531628658705,3.357583620249767,1.9390773447998606,-6.7567458495260695,-5.58611479182765
0.5051999889579509,2.0347857043706097,3.3769743936977656,1.8832161968815841,-6.910598188034152,-5.478705996050238
0.525547846001657,1.9656797224902682,3.3958065556665815,1.8284291369210817,-7.053676319898934,-5.3666518814666695
0.5452046432265597,1.895142959291279,3.4140908470357925,1.774762618106415,-7.186264310187809,-5.2504925803555835
0.5641560728194724,1.823280316189401,3.4318384732168568,1.722257692302859,-7.308684965874823,-5.130811248507304
0.5823888759813665,1.7501934665306527,3.4490610501398855,1.670949579817786,-7.421293902925422,-5.008224464255663
0.5998908106466729,1.6759805275013984,3.465770545938063,1.6208673351752294,-7.524473219964896,-4.883372157036442
0.6166506159216869,1.6007357953017494,3.4819792192898156,1.572033613604865,-7.618624914313915,-4.756907270090864
0.6326579738747043,1.5245495461586103,3.4976995554258643,1.5244645409039563,-7.704164162138425,-4.629485336886634
0.6479034693362905,1.447507904537226,3.512944200834904,1.47816968753509,-7.78151256824864,-4.501754122986287
0.6623785483816628,1.3696927788547397,3.527725897710255,1.4331521463052272,-7.8510914735284905,-4.374343455804449
0.6760754761702101,1.2911818641194548,3.542057419173307,1.3894087117471827,-7.913315389910631,-4.247855335262319
0.6889872948114046,1.2120487102203485,3.555951506290779,1.3469301583945594,-7.968585615026886,-4.1228543899767605
0.7011077819136081,1.1323628540700796,3.5694208078747245,1.3057016144947917,-8.017284061894895,-3.9998587173978195
0.7124314104543089,1.0521900134511306,3.5824778240196724,1.2657030273208134,-8.05976732390975,-3.879331123176083
0.7229533105888202,0.9715923402120331,3.5951348542928807,1.2269097160890525,-8.096360982572465,-3.7616707558005995
0.7326692339909405,0.8906287303863085,3.607403951453771,1.1892930085310465,-8.127354155299013,-3.6472051178607905
0.7415755212948036,0.8093551888333184,3.6192968815390816,1.1528209573524386,-8.152994273726168,-3.536182425690246
0.7496690731831368,0.7278252460960567,3.630825091112606,1.1174591330955361,-8.17348207950173,-3.4287642850802977
0.7569473256440974,0.6460904253010394,3.6419996824435614,1.0831714902447331,-8.18896682488916,-3.325018652556105
0.7634082298971078,0.5642007570521479,3.652831397346009,1.0499213037191721,-8.199541669847621,-3.2249130596723012
0.7690502374676292,0.4822053403536717,3.6633306103832006,1.0176721731224492,-8.20523927573316,-3.1283080921398363
0.7738722908711659,0.40015294759634007,3.673507332114425,0.9863890922010508,-8.206027608524614,-3.034951136522244
0.7778738203471294,0.31809267151109394,3.6833712230364357,0.9560395808358283,-8.201805981574157,-2.9444704348623256
0.7810547470622403,0.23607461169535238,3.692931618844794,0.9265948764872051,-8.192401389317634,-2.8563695219606218
0.7834154931791938,0.15415059780217605,3.702197567609666,0.8980311812675988,-8.177565209067895,-2.7700221610447664
0.7849569991572155,0.0723749457114971,3.711177879422342,0.8703309596571511,-8.156970377748818,-2.68466794098152
0.7856807486143305,-0.009194758065991085,3.7198811890189134,0.8434842802473359,-8.130209183838124,-2.5994087514646327
0.7855888010336706,-0.09049684990437233,3.728316031821387,0.8174901927326895,-8.09679185128718,-2.513206410877943
0.7846838325346268,-0.17146476841724415,3.7364909337487138,0.7923581286239101,-8.056146130904693,-2.424881783419701
0.7829691848504544,-0.2520262297262911,3.744414515034953,0.7681093107897131,-8.007618154406533,-2.3331157856128186
0.7804489225531915,-0.3321024112703564,3.75209560814285,0.744778152933585,-7.950474845393312,-2.2364527448044744
0.777127898440488,-0.4116071597242895,3.759543389672186,0.7224136254855402,-7.883908217766352,-2.13330663009124
0.7730118268432451,-0.4904462419019531,3.7667675259270412,0.7010805591846279,-7.807041922809612,-2.0219707247190017
0.7681073644242256,-0.5685166611300492,3.7737783315188875,0.6808608519374378,-7.718940428013474,-1.9006313427593111
0.7624221978129251,-0.6457060654101839,3.780586940038262,0.6618545385098448,-7.618621219729573,-1.7673862050311693
0.7559651371588233,-0.7218922776074796,3.7872054854233603,0.644180676459533,-7.505070413351434,-1.6202680720763598
0.7487462143827485,-0.796942981740994,3.7936472921879556,0.6279779957387694,-7.37726212382412,-1.4572741769331032
0.7407767845653386,-0.8707156029792352,3.7999270721453433,0.6134052539694385,-7.2341818904498565,-1.2764018984146075
0.7320696285355462,-0.9430574218837338,3.8060611246850375,0.6006412349852924,-7.074854357634576,-1.0756909575406366
0.7226390543167089,-1.0138059654600795,3.8120675370348907,0.5898843254098861,-6.898375282153693,-0.853272197411899
0.7125009946621081,-1.0827897182816164,3.8179663802889894,0.5813516034357671,-6.703947763246759,-0.6074227136353038
0.701673097479292,-1.149829195914084,3.823779896323347,0.575277376299414,-6.490922371405705,-0.33662673488841205
0.6901748055201511,-1.2147384196281412,3.8295326700863415,0.5719111089505299,-6.258840584459896,-0.03964121235906988
0.6780274213238697,-1.2773268254727401,3.8352517811758466,0.5715146968269392,-6.007480628210693,0.2844354301277411
0.6652541530691424,-1.3374016317548472,3.840966928144116,0.5743590511282166,-5.736904470703252,0.6360934910982936
0.651880136751594,-1.3947706764618797,3.8467105186553985,0.5807199860391995,-5.447504347333806,1.015343820309875
0.6379324299869752,-1.4492457199352178,3.8525177185157906,0.5908734242422983,-5.140046818493383,1.4216545418263977
0.623439972787623,-1.5006461881201516,3.8584264527582137,0.6050899696605623,-4.815712010432884,1.8538964425742206
0.6084335109064215,-1.5488033082244805,3.8644773524548195,0.6236289340863045,-4.476125399893212,2.310301187100191
0.5929454778241767,-1.5935645622234127,3.8707136417956827,0.6467319459573064,-4.12337931777807,2.7884367165318555
0.5770098322019426,-1.6347983554011933,3.877180961255256,0.674616313122625,-3.760041316128218,3.285204119395895
0.5606618486479307,-1.6723987685624755,3.8839271243864824,0.707468354316584,-3.389146716396354,3.796859851485004
0.5439378609623059,-1.7062902357264391,3.8910018079296482,0.745436952831434,-3.0141730806698876,4.319066372804268
0.5268749586050415,-1.736431966533138,3.8984561774579625,0.7886276165594767,-2.6389950521755976,4.846973030708305
0.5095106389397102,-1.762821917054894,3.9063424536235574,0.8370973468665597,-2.267819004181449,5.375327360810961
0.4918824197691612,-1.7855001070967085,3.914713427092223,0.8908506204746693,-1.9050981903215163,5.89861496772691
0.4740274186981941,-1.8045510889999237,3.9236219332969693,0.9498367701519385,-1.5554305358697462,6.411223916540951
0.45598190780819486,-1.8201053943586212,3.9331203009984885,1.013949009317348,-1.2234427360382116,6.90762730653671
0.43778085386460863,-1.8323398217190032,3.943259791091662,1.0830252823827151,-0.9136657827417903,7.382575654797423
0.4194574556474186,-1.8414764795464211,3.954090043915489,1.1568510389306894,-0.6304082501281363,7.831289156106876
0.4010426908519544,-1.8477805620477026,3.9656585543047957,1.235163930491758,-0.37763445563602527,8.249639059519772
0.38256488523147736,-1.851556906604063,3.9780101936097134,1.3176603210869557,-0.15885483052370347,8.63430750348117
0.36404931616543673,-1.8531454549093,3.991186796820583,1.4040033961217675,0.022964606061530002,8.982916270238228
0.34551786161634374,-1.8529158088486848,4.005226830781801,1.49383255882415,0.16546787718239123,9.294117013720856
0.3269887035278569,-1.8512611300768609,4.020165156370043,1.5867737289613584,0.2669456650678056,9.567638399887665
0.3084760922270883,-1.848591673426183,4.036032893659656,1.682450112960235,0.3263408703017016,9.804288970384441
0.2899901754928265,-1.845328264723166,4.0528573947892585,1.7804930026640793,0.3432233013103789,10.005918018471553
0.27153689284559485,-1.841896031710062,4.070662324815899,1.8805521828487948,0.31773581291829417,10.175339955215948
0.25311793252849424,-1.8387186735808791,4.0894678466443874,1.9823055824009543,0.250515998331492,10.316230199626379
0.23473074579268544,-1.8362135135975641,4.109290902468397,2.085467884397218,0.14259879381548746,10.433002310206025
0.2163686106567098,-1.8347875256594093,4.130145581312369,2.1897979074992784,-0.004694022599356238,10.530676786696642
0.1980207354001157,-1.8348344658854028,4.152043560387361,2.295104675366245,-0.18987147834350226,10.614751751066986
0.17967239074126168,-1.8367331806688378,4.1749946071410236,2.401252192876915,-0.4113928323902437,10.691084727575056
0.1613050589345733,-1.8408471089927403,4.199007129069793,2.5081630401526653,-0.6677844468042068,10.765793224195358
0.1428965878446459,-1.8475249534607823,4.22408875947132,2.615820972394619,-0.95775108419323,10.845180044962769
0.12442133831003807,-1.8571024643027145,4.250246969195266,2.7242727728442464,-1.2802800444793134,10.935687495469992
0.10585031366701092,-1.8699052647475076,4.277489696923708,2.833629647798946,-1.634737968156461,11.043883096613136
0.08715126101953584,-1.8862526444290721,4.305825993401697,2.9440684787650775,-2.0209614254995505,11.176478244550042
0.06828873457524512,-1.9064622586840676,4.335266678189348,3.055833261210578,-2.439343519152569,11.34038052702625
0.04922411198840444,-1.9308556938755932,4.365825010801454,3.1692370664808402,-2.8909196213381585,11.542780139998984
0.02991555504964851,-1.9597648900889748,4.397517381466263,3.28466486788083,-3.3774560352951304,11.791270995236786
0.010317906148758764,-1.9935394504419262,4.430364030145071,3.402577577833198,-3.901545798178816,12.094007560732514
-0.009617488355660498,-2.0325549084237142,4.464389805923403,3.5235176534405235,-4.466715977402842,12.459899048739151
-0.02994303743989764,-2.0772220681977425,4.499624982457808,3.648116643927915,-5.0775505148881495,12.898842961405753
-0.050715258121875065,-2.127997573346624,4.536106148897088,3.7771050735419722,-5.73983163413909,13.42199971019852
-0.0719952338553413,-2.185395889688015,4.573877199632507,3.9113250706439575,-6.460700417562047,14.042108132979706
-0.09384919275222145,-2.2500028938636354,4.612990450338947,4.051746151973755,-7.248832179519264,14.773836578434949
-0.1163492216908578,-2.322491215658828,4.653507911858685,4.199484517758105,-8.114612429355807,15.634152726540703
-0.13957413384744607,-2.403637339952386,4.695502757036266,4.355826045023512,-9.070280287380406,16.642671707782604
-0.16361050724696993,-2.49434014282619,4.739061017486501,4.5222527621013375,-10.129970269680339,17.821895599031922
-0.18855390867523183,-2.5956398455229936,4.784283545107514,4.700471718091657,-11.309515684195816,19.19716786104465
-0.21451030713046176,-2.7087350023649517,4.831288262288431,4.892443396702103,-12.625750268201804,20.795996224268286
-0.24159765715411127,-2.8349925050469698,4.880212696255452,5.100403358944786,-14.094809387419941,22.64607788596127
-0.269947582204581,-2.975940598921169,4.931216729844899,5.326864137804399,-15.728499479423684,24.770767874289557
-0.29970698819379266,-3.133225593715406,4.984485371222943,5.574571816547294,-17.52702536907507,27.17965525852109
-0.3310392441309467,-3.308495847406157,5.040231089388416,5.846368369132505,-19.465020362597862,29.8500403519144
-0.3641242026050083,-3.5031460510321355,5.098694773079742,6.144868772651649,-21.465705375066474,32.69213161540386
-0.39915566311532963,-3.7178031047828,5.160143460806258,6.471790088805688,-23.35536210522935,35.48701477754408
-0.43633369416315765,-3.951356725835094,5.224861361694314,6.826660236581128,-24.789461090433807,37.78504598638254
-0.47584726142150857,-4.199251336739432,5.293127964060125,7.204510696444954,-25.15153079787182,38.76542820155699
-0.5178397747889029,-4.450766644718151,5.365173071024575,7.592164978460524,-23.46915810859017,37.11728919983462
-0.5623474412360844,-4.6854582258040525,5.44109472080918,7.9633378704588695,-18.501556077158792,31.155054685168786
-0.6092020234941249,-4.870473786575641,5.520728099513769,8.274888417310557,-9.28939010733278,19.570607873853515
-0.6579067613598812,-4.963367687648969,5.603476983686875,8.470594496049092,3.723327240506025,2.974545672065636
-0.7075404382363709,-4.926134415243909,5.6881829286473655,8.500339952769748,17.87793144285332,-14.997013226366061
-0.75680178238881,-4.747355100815375,5.773186328175063,8.350369820506087,29.435545415818254,-29.265467387250165
-0.8042753333969638,-4.452999646657193,5.856690026380124,8.057715146633585,36.17548147709953,-36.88466662783987
-0.8488053298635357,-4.091244831886198,5.9372671778464605,7.688868480355186,38.432158546664,-38.41839861865496
-0.8897177781823977,-3.706923246419558,6.0141558626500125,7.304684494168637,37.842158893203404,-36.17083881360381
-0.9267870106465933,-3.3285016574875237,6.087202707591699,6.9429761060325985,35.92820042525382,-32.239971428773224
-0.9600720272214686,-2.9692196532349855,6.156632468652025,6.620576391744867,33.63082288176862,-27.898937461940395
-0.9897642237538185,-2.632911424417299,6.222838232569473,6.3415870171254625,31.410386781995136,-23.756418082435257
-1.0160933379979915,-2.318807556597348,6.286254102740728,6.10402283630111,29.448811655638284,-20.04291246730428
-1.039281413563965,-2.0243194400409648,6.34729433110374,5.903593711628067,27.791757536731335,-16.808356451454276
-1.0595246079643745,-1.7464018646736514,6.40633026822002,5.735510147113524,26.425888813133515,-14.027852317389296
-1.076988626611111,-1.4821429765423164,6.463685369691155,5.595231623939631,25.316103000421364,-11.651718250326935
-1.0918100563765343,-1.2289819465381027,6.519637685930551,5.478714441436361,24.422085164071877,-9.627176419121618
-1.1040998758419154,-0.984761094897384,6.574424830344914,5.3824426772451455,23.705025518430368,-7.906738875359191
-1.1139474867908892,-0.7477108397130803,6.628249257117366,5.303375288491553,23.129897234989873,-6.450690862642452
-1.12142459518802,-0.5164118673631816,6.681283010002281,5.238868379865129,22.66584281828785,-5.227112621794461
-1.1265887138616517,-0.28975343918030305,6.7336716938009324,5.186597253647184,22.285835011582734,-4.210982396568988
-1.1294862482534547,-0.06689508906447572,6.7855376663374045,5.144487429681494,21.966129696165822,-3.383024797826624
-1.1301551991440995,0.1527662078971825,6.836982540634219,5.110657181703227,21.68572951492381,-2.728571634429752
-1.1286275370651275,0.3696235030464206,6.888089112451252,5.08337146535893,21.425941337702373,-2.236527904878231
-1.1249313020346634,0.5838829164234444,6.938922827104841,5.061006186310148,21.170050200604884,-1.8984629781524671
-1.119092472870429,0.7955834184294932,6.9895328889679424,5.042021556528623,20.90310600969899,-1.707820231475422
-1.111136638686134,1.004614478526483,7.039953104533229,5.024943354213869,20.611808160002937,-1.659231824944518
-1.1010904939008692,1.2107325601265124,7.090202538075368,5.0083510359644245,20.284468658864476,-1.7479269900902807
-1.088983168299604,1.4135772467151573,7.140286048435012,4.990871766063521,19.911032586754278,-1.9692266468345447
-1.0748473958324525,1.6126875725827001,7.190194766095647,4.971179499595176,19.483134295051027,-2.3181217033938544
-1.0587205201066254,1.8075189155332103,7.239906561091599,4.947998282561238,18.99416820826957,-2.788935753189819
-1.0406453309512933,1.997460597615906,7.289386543917212,4.920108925029339,18.439354492998106,-3.375074458570048
-1.0206707249751343,2.181854142545887,7.3385876331675055,4.886358180443639,17.815782319523755,-4.068863511207201
-0.9988521835496754,2.3600119657411245,7.387451214971942,4.8456695453315675,17.122417043206863,-4.861474809587323
-0.9752520638922642,2.531236136173193,7.435907910425258,4.7970547972356945,16.360062260718774,-5.742936802356567
-0.9499397025305322,2.6948367587803808,7.483878458397615,4.739625429212129,15.531273023466259,-6.702220457059065
-0.9229913349427283,2.850149489015043,7.531274712689736,4.672603224641539,14.640221994727835,-7.727387828289769
-0.8944898400525779,2.9965517089623215,7.578000744936152,4.595329346358641,13.692525379134606,-8.80578655444212
-0.8645243229629547,3.1334769627536674,7.623954038399739,4.50727148081422,12.695039392389338,-9.924271535400477
-0.833189553335418,3.260427356677561,7.669026753207881,4.408028765460215,11.655640360248078,-11.069435013163448
-0.8005852797686424,3.3769837602800417,7.713107040862483,4.297334415328581,10.583001957598118,-12.22782842304922
-0.766815442165842,3.482813779856023,7.756080385015769,4.1750561310980885,9.486381637329984,-13.386163450769777
-0.7319873043672818,3.577677596229323,7.797830946326751,4.041194496590391,8.375425271664438,-14.531485123085499
-0.6962105284049885,3.661431848945967,7.838242891292654,3.895879645359536,7.259994996534709,-15.651315643459228
-0.6595962099155288,3.7340317989113143,7.87720168774625,3.7393664889249436,6.150020915427683,-16.733773137947818
-0.6222558919264156,3.795532008065591,7.914595352635499,3.5720287575454654,5.055373404880999,-17.767673650457848
-0.5843005718457597,3.846085742114401,7.950315640210953,3.394352021040887,3.9857498926358716,-18.742626980503143
-0.5458397144246157,3.88594324104076,7.984259160421362,3.2069257512358553,2.950568581553128,-19.64913695881609
-0.5069802820142081,3.9154489268562913,8.016328417933721,3.0104343816476944,1.9588618482335582,-20.478714529283565
-0.4678257927456452,3.935037545338627,8.046432761750198,2.805647236354859,1.0191638681864073,-21.224007921292507
-0.4284754172922589,3.945229184020491,8.074489234113747,2.5934071571419337,0.1393900761568518,-21.8789489216809
-0.389023125452054,3.94662308478206,8.100423305685165,2.3746176679251247,-0.6732901656794685,-22.438908658428
-0.3495568946042334,3.9398901831252653,8.124169482364417,2.1502285813408446,-1.4125824878427278,-22.90085133306352
-0.31015799277298073,3.925764358246838,8.145671768177825,1.9212200680102094,-2.073189576408921,-23.263470860943873
-0.27090034919051237,3.905032462482749,8.164883968857927,1.6885853594007707,-2.650915848251685,-23.52729405992785
-0.23185002456568488,3.878523304000232,8.181769822451935,1.453312418801492,-3.1427436633841634,-23.69473519589953
-0.19306479152568257,3.84709586736639,8.19630294663995,1.2163650668424968,-3.5468711223681266,-23.770090269968655
-0.15459383285201866,3.811627156142709,8.208466597308375,0.9786641641428102,-3.8627041356784875,-23.7594649343804
-0.11647756129059157,3.773000114785924,8.218253238949803,0.7410695147990062,-4.090799199750262,-23.670636545044516
-0.07874756014273233,3.7320921227884214,8.225663934097794,0.504363149348561,-4.232757587558342,-23.512857614122225
-0.04142663891484812,3.689764546912838,8.23070756559128,0.2692345732073387,-4.2910758121381205,-23.29661383954164
-0.004528993445719741,3.6468537887914567,8.233399911323353,0.036268434811922295,-4.268960659826151,-23.033354168290373
0.03193954444219483,3.604164182193195,8.233762595671472,-0.19406510687098144,-4.1701193888045385,-22.73521252114396
0.06798118626412678,3.5624629883051497,8.231821944602762,-0.42141723208242104,-3.998536645892121,-22.414740762248883
