th1 (rad),w1 (rad/s),th2 (rad),w2 (rad/s),a1 (rad/s^2),a2 (rad/s^2)
6.11935122496673,-1.446508899809322,5.276573857241502,-0.44216065447690334,-2.246730295760131,11.338154309701387
6.104886135968637,-1.4689762027669233,5.272152250696733,-0.32877911137988947,-2.110512167516106,11.320753528839255
6.090196373940968,-1.4900813244420843,5.268864459582934,-0.2155715760914969,-1.9865204051510217,11.300116586689182
6.075295560696547,-1.5099465284935945,5.2667087438220195,-0.10257041022460509,-1.8742321506955033,11.275839405788844
6.0601960954116105,-1.5286888500005495,5.265683039719773,0.010187983833283357,-1.7729696857709847,11.247444921420062
6.044909206911605,-1.5464185468582594,5.265784919558106,0.12266243304748398,-1.6818800404444236,11.214343919971418
6.029445021443022,-1.5632373472627037,5.267011543888581,0.23480587224719815,-1.5999106437089845,11.17579034865643
6.013812647970395,-1.5792364536997936,5.269359602611053,0.34656377573376246,-1.5257804945335303,11.130830596775317
5.998020283433397,-1.594494258645129,5.272825240368391,0.4578720817015156,-1.4579464395741404,11.07824636939587
5.982075340846946,-1.6090737230408703,5.2774039611854064,0.5686545453954743,-1.3945643677523671,11.016491049400713
5.965984603616538,-1.6230193667183939,5.283090506639361,0.6788194558894814,-1.333445527366494,10.943619948534979
5.949754409949354,-1.6363538219920588,5.289878701198256,0.7882556553748312,-1.2720088105435245,10.857215682168881
5.933390871729434,-1.649073910097494,5.297761257752004,0.8968278121965201,-1.2072308235165379,10.754311191110485
5.9169001326284585,-1.6611462183326595,5.306729535873969,1.0043709241076249,-1.1355969746758614,10.63131482184279
5.900288670445132,-1.6725021880794182,5.316773245115045,1.1106840723260527,-1.0530587719316264,10.48394451035407
5.883563648564338,-1.6830327757987344,5.327880085838306,1.2155235174295933,-0.9550051049249764,10.307181602001863
5.86673332080635,-1.6925828268479841,5.340035321012602,1.3185953334496119,-0.8362584926194587,10.095259175808707
5.84980749253787,-1.7009454117741787,5.3532212743470975,1.419547925207699,-0.6911109305752102,9.841704688873639
5.832798038420129,-1.7078565210799308,5.367416753599175,1.5179649720964354,-0.5134176089555857,9.53946167322395
5.815719473209329,-1.7129906971694866,5.382596403320139,1.613359588828675,-0.2967694809235306,9.181118847767708
5.798589566237634,-1.7159583919787218,5.398729999208426,1.705170777306352,-0.034765948957489363,8.759275295683612
5.781429982317847,-1.7163060514682966,5.415781706981489,1.7927635302631881,0.2785952960284596,8.267064412368763
5.764266921803164,-1.7135200985080121,5.433709342284121,1.8754341743868759,0.6484054639520324,7.698843768497997
5.747131720818084,-1.7070360438684917,5.4524636840279905,1.9524226120718557,1.0782233771066463,7.051029974167209
5.730061360379399,-1.6962538100974252,5.471987910148709,2.0229329118135277,1.5693900531008285,6.323016519428326
5.713098822278425,-1.6805599095664168,5.492217239266844,2.086163077007811,2.1203598990288124,5.518062649577675
5.696293223182761,-1.6593563105761286,5.513078870036922,2.1413437035035874,2.726164141897899,4.643993828516044
5.679699660077,-1.6320946691571496,5.534492307071957,2.187783641788748,3.3781423618413258,3.7135274853949896
5.663378713385428,-1.5983132455387363,5.556370143489845,2.224918916642698,4.064068343322054,2.744052574366475
5.6473955809300405,-1.5576725621055159,5.578619332656272,2.252359442386363,4.768746151263022,1.7567626518406323
5.631818855308985,-1.5099851005928857,5.601142927080136,2.269927068904769,5.475063370798085,0.7751664566403983
5.616719004303056,-1.4552344668849049,5.623842197769183,2.277678733471173,6.165380705042795,-0.17685074555590857
5.602166659634207,-1.3935806598344769,5.646618985103895,2.275910226015614,6.823044915862424,-1.0771154741565876
5.588230853035863,-1.3253502106758526,5.669378087364051,2.265139071274048,7.433770692806512,-1.9070499172050521
5.574977350929104,-1.2510125037477875,5.692029478076791,2.2460685721019975,7.98666512114345,-2.6530398862372255
5.562467225891626,-1.171145852536353,5.714490163797811,2.2195381732396253,8.474757216610966,-3.3071018333753597
5.550755767366263,-1.0863982803702432,5.736685545530207,2.1864671549058716,8.89501195403199,-3.866828191427566
5.539891784562561,-0.9974481608299233,5.758550217079266,2.1477988729915958,9.247913288188526,-4.334736273843289
5.529917302954261,-0.904969027948038,5.780028205809182,2.104451510253163,9.536764677840184,-4.717233328510649
5.52086761267478,-0.8096013811696362,5.801072720911714,2.0572791769680565,9.766870095778062,-5.02342796370773
5.512771598863083,-0.7119326802118556,5.821645512681394,2.0070448973309793,9.94473352068819,-5.263980858814499
5.505652272060965,-0.6124853450049738,5.841715961654704,1.9544050887428344,10.077369530820244,-5.450122544469887
5.499527418610915,-0.5117116496967713,5.861260012542132,1.8999038632981355,10.171770020848639,-5.592898610707499
5.494410302113947,-0.40999394948828494,5.880259051175114,1.8439748771910605,10.23453387882692,-5.702649131872968
5.490310362619065,-0.30764861070001576,5.898698799947025,1.7869483858723307,10.271641990001983,-5.788695167532231
5.4872338765120645,-0.20493219079999592,5.916568283805748,1.7290614341970083,10.28834822769663,-5.859189346332908
5.485184554604064,-0.10204870852302961,5.933858898147718,1.6704695407336791,10.289154709893527,-5.9210847787323075
5.484164067518834,0.0008428385759056689,5.950563593555055,1.6112586929463562,10.277842730792852,-5.980181435886712
5.484172495904593,0.10362126588383419,5.9666761804845185,1.551456878587489,10.257536344604885,-6.041217328532364
5.485208708563431,0.20619662932988303,5.982190749270393,1.4910447053021654,10.230781564508046,-6.107980489297533
5.48727067485673,0.3085044449749635,5.997101196323415,1.42996490040919,10.199629456554236,-6.183425398422893
5.490355719306479,0.41050073954050587,6.011400845327507,1.3681306464249612,10.165715627033416,-6.269783516979035
5.494460726701885,0.51215789581084,6.025082151791756,1.3054328112551707,10.130331681222179,-6.368661966844132
5.499582305659993,0.6134612126230619,6.038136479904308,1.2417461915867294,10.094486318147048,-6.4811273456822205
5.5057169177862235,0.7144060758045323,6.0505539418201755,1.1769349181299071,10.058955028972353,-6.60777349359202
5.512860978544269,0.8149956260942558,6.062323291001475,1.1108571831939869,10.024318090285899,-6.748773031290898
5.521010934805211,0.9152388069971148,6.073431862833415,1.043369452881078,9.99098685905673,-6.903912913400153
5.5301633228751825,1.0151486755876822,6.083865557362225,0.9743303237470764,9.959218414401077,-7.072614272120763
5.5403148096310595,1.114740859731693,6.093608860599696,0.9036041810258688,9.929118447353071,-7.253936602007863
5.551462218228377,1.2140320442052237,6.1026449024099545,0.8310648150057902,9.900632040705773,-7.4465659520324845
5.563602538670429,1.3130383646122814,6.110955550560012,0.7565991554854654,9.873521655956667,-7.648786318155484
5.576732922316552,1.4117735811718481,6.118521542114867,0.6801112923039105,9.847331295314374,-7.858432929837893
5.590850658128271,1.5102468941249918,6.125322655037906,0.6015269630055315,9.821335479087201,-8.072825664881117
5.605953127069521,1.608460248915864,6.131337924667962,0.5207987063567203,9.79447143434325,-8.288680500365642
5.622037729558679,1.7064049632592964,6.136545911731529,0.4379119013530639,9.765252822937736,-8.501996850729759
5.639101779191272,1.8040574914886738,6.14092503074506,0.3528919328457663,9.731663590112998,-8.707919067546591
5.657142354106158,1.9013741273898037,6.144453950073518,0.2658127421703004,9.691031307130192,-8.900571594849648
5.6761560953800565,1.9982844404611055,6.147112077495221,0.1768070262218039,9.639881030081519,-9.072869744231486
5.696138939784667,2.094683250761921,6.148880147757439,0.08607832877948902,9.573773638846069,-9.216312397571953
5.717085772292287,2.1904209871503815,6.149740931045234,-0.006084795196230508,9.487137411329256,-9.320769948495807
5.73898998216379,2.285292361263674,6.149680083093272,-0.09929249468118857,9.373108854433658,-9.374291331631719
5.761842905776427,2.379023449808011,6.14868715814646,-0.19303540799750576,9.223409098826242,-9.362968804630711
5.785633140274507,2.4712575407962736,6.146756804066485,-0.28666509604381285,9.02829560591266,-9.270918382177939
5.8103457156824705,2.5615404968554003,6.143890153106047,-0.37937427986559225,8.776644676395064,-9.080456173344379
5.8359611206510245,2.649306943619351,6.1400964103073905,-0.470178841599036,8.456235556205765,-8.772572339197298
5.862454190087218,2.7338692991814084,6.1353946218914,-0.557904564991009,8.054316125385306,-8.327816742025785
5.889792883079032,2.8144124604352614,6.12981557624149,-0.6411827324112669,7.558523817753871,-7.727700066617188
5.917937007683385,2.8899976986128,6.123403748917378,-0.7184597330774387,6.958200968790671,-6.956663247149536
5.946836984669512,2.9595797083007067,6.116219151586603,-0.7880263655489341,6.246068964390592,-6.0045589905068875
5.97643278175252,3.0220403979446124,6.108338887931113,-0.848071955454003,5.420106312113699,-4.869416486699868
6.006653185731966,3.0762414610657496,6.099858168376573,-0.8967661203210018,4.48532786277184,-3.560046978353031
6.037415600342623,3.121094739693468,6.090890507173364,-0.932366590104532,3.455031396735117,-2.0978592842379142
6.068626547739558,3.155645053660819,6.081566841272318,-0.9533451829469112,2.3510359229492503,-0.5171944813660487
6.100182998276166,3.1791554128903114,6.072033389442849,-0.9585171277605716,1.2025550620742884,1.1363391531424327
6.131974552405069,3.191180963511054,6.062448218165243,-0.9471537362291473,0.043650555033910805,2.8096145844823535
6.16388636204018,3.191617469061393,6.052976680802952,-0.9190575903843238,-1.0903768753210399,4.447305821928012
6.195802536730794,3.180713700308183,6.043786104899109,-0.8745845321650436,-2.166939785097078,5.997740848975226
6.227609673733875,3.159044302457212,6.035040259577459,-0.8146071236752913,-3.1596001549583494,7.418041288739924
6.259200116758447,3.1274483009076284,6.026894188340706,-0.7404267107878921,-4.050290997130965,8.677526370282267
6.290474599767523,3.086945390936319,6.019489921232827,-0.6536514470850694,-4.8300132610901505,9.758912856751515
6.321344053676887,3.0386452583254173,6.0129534067619765,-0.5560623185175543,-5.498134207640627,10.657471250230216
6.351730506260141,2.983663916249011,6.007392783576801,-0.4494876060152521,-6.060723053299535,11.37875044389403
6.381567145422632,2.9230566857160154,6.002897907516648,-0.3357001015763118,-6.528462668462959,11.93564060547733
6.410797712279792,2.8577720590313858,5.999540906500886,-0.2163436955215385,-6.914600687542584,12.345444668321283
6.439375432870106,2.78862605215596,5.99737746954567,-0.09288924883832568,-7.2332365731046995,12.627394985521082
6.467261693391666,2.7162936864249128,5.996448577057286,0.033384701016885135,-7.498068366215465,12.800805481738522
6.4944246302559145,2.6413130027627583,5.996782424067455,0.16139275583427037,-7.721594279028406,12.883863923180016
6.520837760283542,2.5640970599724744,5.998396351625798,0.29023139506607054,-7.914692872061887,12.892963646260057
6.546478730883267,2.4849501312518556,6.001298665576459,0.4191610315286711,-8.086481210938475,12.84243598455284
6.5713282321957855,2.404085319142471,6.005490275891746,0.5475853913741995,-8.244355405409001,12.744549079535677
6.59536908538721,2.3216417650883807,6.010966129805488,0.6750308821695563,-8.39413648047219,12.609663383887078
6.618585503038094,2.237700400283659,6.0177164386271835,0.8011275160084271,-8.540266094162241,12.4464638838884
6.640962507040931,2.1522977393420364,6.025727713787268,0.9255921548473112,-8.686015732760962,12.26221589439089
6.6624854844343515,2.0654375820144266,6.034983635335742,1.04821431379122,-8.833687709854766,12.063012201138429
6.683139860254496,1.9771007049158789,6.045465778473654,1.1688444358026044,-8.984796526909111,11.853994109809657
6.702910867303655,1.8872527396467877,6.05715422283168,1.287384376900701,-9.140225696913161,11.639538595144929
6.721783394700123,1.7958504826776562,6.0700280666006865,1.4037797628521502,-9.30035895543051,11.42340952531564
6.7397418995269,1.7028468931233511,6.084065864229208,1.5180138581053066,-9.465186748206634,11.208874049713328
6.756770368458133,1.608195025641285,6.099246002810261,1.63010259860244,-9.634389656045034,10.99878660500008
6.772852318714546,1.5118511290808345,6.115547028796286,1.7400904646524409,-9.807400462691025,10.795643268413553
6.787970830005354,1.4137771244539243,6.13294793344281,1.8480468973365765,-9.983446195519633,10.601608801037008
6.802108601249893,1.313942662498728,6.151428402416176,1.9540629853469464,-10.161570860259882,10.418517946239623
6.815248027874881,1.2123269538961292,6.170969032269645,2.0582481648093425,-10.340638860281844,10.247851539854155
6.827371297413842,1.1089205652933107,6.191551513917738,2.160726680207884,-10.51931830297147,10.09068684425965
6.838460503066775,1.003727382263596,6.213158780719817,2.261633548650481,-10.69604259642259,9.947620306093333
6.8484977768894115,0.89676695629937,6.235775116206321,2.3611097517114144,-10.868947981082345,9.818659731291023
6.857465446452405,0.7880774764885465,6.2593862137234355,2.4592963490243247,-11.035784008247619,9.703081790441157
6.86534622121729,0.6777196364060704,6.283979177213679,2.556327166928736,-11.19379362288041,9.599250022921511
6.872123417581351,0.5657817001772663,6.309542448882966,2.6523196671579514,-11.33955969753412,9.504388466911616
6.877781234583123,0.45238610320192507,6.336065645554545,2.7473635518270676,-11.468816035991123,9.414307312422858
6.882305095615142,0.3376979428420138,6.363539281072816,2.8415066249512964,-11.576223704551719,9.3230805102298
6.8856820750435626,0.22193570579649663,6.391954347322329,2.934737430053594,-11.655119058678203,9.222682476488758
6.887901432101527,0.1053845152097146,6.421301721622865,3.026964254818482,-11.697249363173938,9.102603818321407
6.888955277253625,-0.011587978422024775,6.45157136417105,3.117990293001696,-11.692527051598983,8.949486652835178
6.888839397469404,-0.1285132489380146,6.482751267101067,3.207485159530048,-11.62885587998531,8.746850726507324
6.887554264980023,-0.2448018077378677,6.514826118696368,3.2949536667951214,-11.492111842684281,8.475022829610062
6.8851062469026445,-0.3597229261647105,6.547775655364319,3.379703895091222,-11.266396162122444,8.111430643907816
6.881509017640997,-0.47238688778593496,6.5815726943152315,3.4608182015303,-10.934708643633755,7.631466979538459
6.876785148763138,-0.5817339742222725,6.616180876330534,3.5371328713256847,-10.480199919899329,7.010147674473942
6.870967809020915,-0.6865359734212657,6.651552205043791,3.607234348070424,-9.888122731250029,6.224737691744182
6.864102449286703,-0.785417200733766,6.687624548524496,3.669481724987866,-9.148481503358148,5.258357779169037
6.856248277279366,-0.8769020157673475,6.724319365774374,3.7220653027795563,-8.259152922916986,4.104275225856493
6.847479257121692,-0.9594935449965174,6.76154001880217,3.763108055038121,-7.228937013249142,2.7701512463948124
6.837884321671726,-1.0317829151290088,6.7991710993525505,3.790809567502069,-6.079694460130398,1.2810951759717044
6.827566492520436,-1.0925798597303127,6.837079195027571,3.8036205192617865,-4.846609163203901,-0.3197939076639441
6.816640693923133,-1.1410459513623517,6.875115400220189,3.8004225801851472,-3.5758748672967124,-1.9743717599611692
6.8052302344095095,-1.1768047000353188,6.91311962602204,3.7806788625855354,-2.319797103884504,-3.615912683479248
6.7934621874091565,-1.2000026710741638,6.9509264146478955,3.744519735750743,-1.130217316996685,-5.177874816556623
6.781462160698415,-1.2113048442441308,6.988371612005403,3.692740987585177,-0.051867267091006024,-6.602789280163678
6.7693491122559735,-1.2118235169150409,7.0252990218812545,3.62671309478354,0.8826583367458791,-7.848984052910424
6.7572308770868235,-1.202996933547582,7.06156615282909,3.548223254254436,1.6552348787470617,-8.893686591065787
6.7452009077513475,-1.1864445847601115,7.097048385371634,3.459286388343778,2.261738089138762,-9.732365511950409
6.733336461903747,-1.1638272038687238,7.131641249255072,3.361962733224274,2.709490854804758,-10.3752929605872
6.72169818986506,-1.1367322953206762,7.165260876587315,3.258209803618402,3.0137130313682974,-10.84279971583794
6.710330866911852,-1.1065951650069932,7.197842974623499,3.1497818064600227,3.193962021542017,-11.160552173451281
6.699264915261782,-1.074655544791573,7.229340792688099,3.03817628472551,3.2711946894657964,-11.355690124431682
6.688518359813867,-1.0419435978969152,7.259722555535354,2.924619383481193,3.265695801632013,-11.454141138435133
6.678098923834898,-1.009286639880595,7.288968749370166,2.8100779720968414,3.1958404385787578,-11.479054422574933
6.6680060574360915,-0.9773282354948075,7.317069529091134,2.695287427871092,3.0775176394718,-11.45011235896779
6.658232775081143,-0.9465530591000895,7.344022403369845,2.580786304281414,2.92400841077646,-11.383436672545225
6.648767244490142,-0.9173129749923249,7.369830266412659,2.4669519375559616,2.746136131328259,-11.291843517260673
6.639594114740219,-0.8898516136790423,7.394499785788219,2.3540335023833547,2.5525538070814022,-11.185266677600891
6.630695598603428,-0.8643260756082283,7.418040120812052,2.242180835607346,2.350078791307424,-11.071231372572436
6.622052337847346,-0.8408252876951541,7.4404619291681255,2.1314685218816214,2.144022357034837,-10.955310904501014
6.613644084970394,-0.8193850641248057,7.461776614386942,2.021915412836611,1.9384871986499335,-10.841532723811747
6.605450234329146,-0.8000001921383064,7.481995768515308,1.9135000855984936,1.7366221847256866,-10.732721872791513
6.597450232407763,-0.7826339702910495,7.501130769371293,1.8061728668705785,1.540833028610432,-10.63078182933113
6.589623892704852,-0.7672256400049452,7.519192498039999,1.6998650485772673,1.3529523275802369,-10.53691873875729
6.581951636304803,-0.7536961167291428,7.536191148525772,1.5944958611896944,1.1743744254689281,-10.451817330678782
6.574414675137511,-0.7419523724744536,7.5521361071376685,1.4899776878829065,1.0061609925230997,-10.375777108741719
6.566995151412766,-0.7318907625492226,7.567035884016498,1.3862199167954894,0.8491228575706812,-10.30881669803813
6.559676243787274,-0.7233995339735158,7.580898083184453,1.283131749815108,0.7038829258647696,-10.250753134348647
6.552442248447539,-0.716360704714868,7.593729400682603,1.1806242184716216,0.5709242224610093,-10.201261704500448
6.54527864140039,-0.7106514624902579,7.605535642867319,1.0786116014266172,0.4506263429833358,-10.159920856002099
6.538172126775487,-0.7061451990604245,7.616321758881585,0.9770123928665961,0.34329292669649,-10.126245750982987
6.531110674784883,-0.7027122697934596,7.626091882810251,0.8757499353567663,0.24917220742351226,-10.099713258437973
6.524083552086949,-0.7002205477192245,7.634849382163819,0.7747528027723866,0.16847224284009754,-10.079780549631174
6.517081346609756,-0.6985358252908235,7.642596910191543,0.6739549972760748,0.10137206020940452,-10.065898964053332
6.510095988356848,-0.6975221046887294,7.649336460164304,0.5732960076355414,0.04802967213875953,-10.057524424975142
6.5031207673099605,-0.6970418079673418,7.655069420240659,0.47272076338579005,0.008587695145485989,-10.054125383087204
6.4961503492302874,-0.6969559310158869,7.659796627874517,0.372179509554918,-0.016822866020331638,-10.055189035434553
6.489180789920129,-0.6971241596760902,7.663518422970066,0.2716276192005725,-0.02808023497708199,-10.06022638946215
6.482209548323367,-0.697404962025861,7.666234699162072,0.17102535530595098,-0.0250705461094571,-10.068776606099492
6.475235498703109,-0.6976556674869556,7.667944952715131,0.07033758924495605,-0.0076873314065436715,-10.08041095164476
6.468258942028239,-0.6977325408010211,7.66864832860758,-0.03046652027149155,0.02416839472631193,-10.094736608142206
6.461281616620229,-0.697490856853758,7.668343663404865,-0.13141388635291362,0.07058761879747251,-10.111400530105016
6.454306708051692,-0.6967849806657833,7.667029524541336,-0.2325278916539638,0.131652516606995,-10.130093487318822
