th1 (rad),w1 (rad/s),th2 (rad),w2 (rad/s)
0.1695396516986563,-2.0353945487069796,2.606099183236822,1.7725873413291369
0.14918570621158653,-2.0855639818764384,2.6238250566501136,1.6575247886585276
0.12833006639282213,-2.137194658781248,2.640400304536699,1.5415475073148472
0.10695811980500965,-2.1898369080516806,2.6558157796098474,1.4250179474253004
0.08505975072449284,-2.2429966345448276,2.6700659590841003,1.308382126809956
0.06262978437904457,-2.296137402798942,2.6831497803522,1.1921675509228056
0.039668410351055144,-2.3486845280937967,2.695071455861428,1.0769782442140463
0.016181565070117178,-2.4000312696892943,2.705841238303569,0.9634866184646131
-0.007818747626775764,-2.449547098582053,2.7154761044882147,0.852422081747543
-0.0323142186125963,-2.496587870473663,2.72400032530569,0.7445565083718936
-0.057280097317332926,-2.540507586695915,2.731445890389409,0.6406869276973305
-0.08268517318429208,-2.5806712878602256,2.7378527596663824,0.5416160242041111
-0.10849188606289434,-2.6164685141064767,2.7432689199084237,0.44813124580083563
-0.1346565712039591,-2.6473266970897145,2.7477502323664322,0.36098346643167856
-0.16112983817485624,-2.672723832445171,2.751360067030749,0.28086622275391065
-0.18785707649930794,-2.6921998206276023,2.754168729258288,0.20839653265723623
-0.21477907470558397,-2.705365954217721,2.75625269458486,0.14409820687694325
-0.24183273424776117,-2.7119121595933082,2.7576936766536297,0.0883883963647483
-0.26895185584369424,-2.7116117541056535,2.7585775606172773,0.04156789866623514
-0.29606797338475077,-2.7043236386834546,2.7589932396039396,0.003815502312774263
-0.3231112097715853,-2.689991993557279,2.7590313946270673,-0.024813594634437528
-0.3500111297071581,-2.668643668813174,2.758783258680723,-0.044385474885567586
-0.37669756639528984,-2.640383554170661,2.758339403931867,-0.05508166362911049
-0.40310140193699645,-2.605388271499721,2.757788587295576,-0.057190255908165955
-0.42915528465199365,-2.5638985613951255,2.7572166847364943,-0.051094586501799315
-0.4547942702659449,-2.516210736897423,2.756705738871476,-0.03726005671862517
-0.4799563776349191,-2.462667559874844,2.75633313830429,-0.016219732509319608
-0.5045830532336676,-2.4036488653265518,2.756170940979197,0.01144070057003577
-0.528619541886933,-2.339562221590731,2.756285347984897,0.0450980893725597
-0.5520151641028403,-2.2708338742948126,2.7567363288786226,0.08410659870382903
-0.5747235028457884,-2.1979001814769714,2.757577394865661,0.127811727518937
-0.5967025046605582,-2.12119970796717,2.7588555121408502,0.1755632273267253
-0.6179145017402299,-2.0411661093193865,2.7606111444141175,0.2267266697809724
-0.6383261628334237,-1.9582218994016,2.7628784111119273,0.280693484711447
-0.6579083818274397,-1.872773161193707,2.765685345959042,0.33688936114999685
-0.6766361134393768,-1.7852052276061292,2.7690542395705418,0.39478097052988803
-0.694488165715438,-1.6958793286563143,2.7730020492758407,0.45388103151799
-0.7114469590020012,-1.6051301737813108,2.7775408595910207,0.5137517883299902
-0.7274982607398143,-1.5132644141714027,2.7826783774743205,0.5740070175850264
-0.7426309048815283,-1.4205599104799231,2.7884184476501708,0.6343127118955197
-0.7568365039863275,-1.3272657166097566,2.794761574769126,0.694386611107789
-0.7701091611524251,-1.2336026807311777,2.8017054408802036,0.7539967646361385
-0.7824451879597369,-1.139764560164559,2.809245408526565,0.8129593114469907
-0.7938428335613825,-1.0459195468775035,2.8173750016410346,0.87113565918719
-0.8043020290301576,-0.9522121044635766,2.8260863582329065,0.928429232265551
-0.8138241500747934,-0.8587650247865033,2.835370650555562,0.984781942099589
-0.8224118003226584,-0.7656816221095111,2.845218469976558,1.0401705129435963
-0.8300686165437535,-0.6730479936101839,2.855620175105994,1.0946027753070733
-0.8367990964798554,-0.5809352869057466,2.866566202859065,1.148114017322041
-0.8426084493489129,-0.4894019269006238,2.8780473430322853,1.200763463618895
-0.8475024686179191,-0.39849576538039766,2.8900549776684743,1.2526309321275697
-0.8514874262717231,-0.30825612692720583,2.90258128698975,1.303813702259338
-0.8545699875409952,-0.21871573367591474,2.9156194240123434,1.3544236134235348
-0.8567571448777543,-0.12990249904565973,2.9291636601465787,1.4045844008693957
-0.858056169868211,-0.04184118684421308,2.9432095041552726,1.4544292663385294
-0.8584745817366531,0.04544506289628829,2.957753796818658,1.5040986737836026
-0.8580201311076903,0.13193333623366504,2.972794783556494,1.5537383552032906
-0.8567007977453536,0.21759966797206398,2.988332167108527,1.6034975081808447
-0.8545248010656329,0.3024178750903272,3.0043671421903353,1.653527164707194
-0.8515006223147297,0.3863584903940316,3.0209024138374074,1.7039787100466393
-0.8476370374107893,0.46938778551311316,3.037942200937874,1.7550025305171946
-0.8429431595556582,0.5514668725643744,3.055492226243046,1.8067467698945547
-0.8374284908300145,0.6325508744179236,3.073559693941992,1.8593561755298593
-0.8311029820858352,0.7125881544613403,3.0921532556972906,1.9129710170532648
-0.8239771005412219,0.7915195979744657,3.111282965867823,1.967726062606743
-0.8160619045614772,0.8692779386556478,3.1309602264938907,2.0237495998285344
-0.8073691251749208,0.9457871254343916,3.151197722492176,2.0811624912412072
-0.7979112539205768,1.0209617264333675,3.1720093474045883,2.1400772562388073
-0.7877016366562432,1.0947063687799505,3.1934101199669764,2.2005971745058592
-0.7767545729684436,1.1669152148941415,3.215416091712035,2.2628154084238687
-0.7650854208195023,1.2374714778782647,3.238044245796274,2.326814144829592
-0.7527107060407197,1.3062469806861372,3.26131238724457,2.392663759388347
-0.7396482362338583,1.3731017658341196,3.2852390248384533,2.4604220098407694
-0.7259172185755172,1.437883764506365,3.309843244936861,2.5301332674760073
-0.7115383809304535,1.5004285359658573,3.335144577611621,2.6018277993760366
-0.6965340955707949,1.5605590901643722,3.3611628556053814,2.6755211172529876
-0.6809285046691512,1.6180858082872722,3.387918066777911,2.7512134120399825
-0.6647476465862785,1.672806477595639,3.415430200898311,2.8288890967557556
-0.6480195818103222,1.7245064582425635,3.4437190918658684,2.908516483484686
-0.6307745172278966,1.7729590006261773,3.4728042567007154,2.9900476235147146
-0.6130449272216348,1.8179257321618785,3.5027047329358627,3.0734183426490294
-0.5948656699000161,1.8591573319524186,3.533438916362353,3.1585485063202743
-0.5762740965804919,1.8963944105312391,3.5650244014255557,3.2453425512293825
-0.5573101524751795,1.9293686094626608,3.5974778269378493,3.333690321623065
-0.5380164663805529,1.9578039319077971,3.63081473015408,3.4234682488156025
-0.5184384270614749,1.9814183101189906,3.6650494126422357,3.514540911946487
-0.498624243960285,1.9999254090409666,3.7001948217617007,3.606763016048842
-0.47862498986987534,2.013036656646846,3.736262451922189,3.6999818201172934
-0.4584946233034069,2.0204634812572335,3.773262270123362,3.794040042897014
-0.43828998849083456,2.021919723903066,3.811202670552332,3.888779267545076
-0.4180707912518039,2.017124179930557,3.850090463227783,3.9840438582415643
-0.39789954945249834,2.0058032087733557,3.8899309018101986,4.079685392512151
-0.3778415173647648,1.9876933345410555,3.93072775573532,4.175567602921905
-0.3579645840193542,1.9625437433482558,3.972483431764539,4.27157181159016
-0.33833914658587166,1.930118566818803,4.0151991498804405,4.367602831573861
-0.31903796091768366,1.8901988257255298,4.058875178196179,4.463595301721976
-0.30013597266042835,1.8425838940853598,4.1035111312133985,4.559520417475941
-0.28171013371957476,1.7870923330031783,4.149106335388158,4.655393020799043
-0.263839210389543,1.7235619357951273,4.195660265596148,4.751279019561651
-0.24660359103159174,1.6518488218474094,4.243173055791765,4.847303121869623
-0.23008510281311764,1.571825416399335,4.291646087010461,4.9436568954352405
-0.21436684864912428,1.4833771567545022,4.341082655964813,5.040607197294079
-0.19953307708157925,1.3863977717931335,4.391488727937754,5.138505065627448
-0.18566909936364792,1.280782990421208,4.442873778594029,5.237795223084271
-0.17286126945943583,1.166422545339562,4.495251730824871,5.33902640859734
-0.1611970440060402,1.0431903518194576,4.548641994910845,5.442862829199272
-0.15076514048784562,0.9109327598796114,4.6030706232028376,5.550097098533834
-0.1416558128890495,0.7694548097846191,4.658571594188176,5.661665092707423
-0.1339612647912033,0.6185044811288056,4.71518824511525,5.778663184435165
-0.12777621997991523,0.457755046720165,4.772974876959602,5.902368271191947
-0.12319866951271358,0.2867858846065074,4.831998559671522,6.0342608138704845
-0.1203308106666485,0.10506257795179713,4.892341167810227,6.176050602591842
-0.11928018488713052,-0.08808194792135329,4.954101673836146,6.329703891596586
-0.12016100436634405,-0.2934617546972838,5.017398712752112,6.497468384005412
-0.1230956219133169,-0.5120409109716104,5.082373396592166,6.6818883498272745
-0.128216031023033,-0.7449123404684757,5.149192280090438,6.885794181050607
-0.13566515442771776,-0.993228472330707,5.218050221900945,7.112235783520137
-0.14559743915102483,-1.2580395669917066,5.289172579736146,7.3643019585822715
-0.1581778348209419,-1.539960597958536,5.362815599321968,7.644719828343345
-0.17357744080052726,-1.8385306173960496,5.4392627976054015,7.955048927093639
-0.19196274697448776,-2.1510489497757392,5.5188132868763375,8.294171302942223
-0.21347323647224514,-2.470604519052327,5.60175499990576,8.655676041884526
-0.23817928166276842,-2.783106516567618,5.688311760324605,9.023844539636102
-0.2660103468284446,-3.0637836314997684,5.778550205720966,9.368820629247464
-0.29664818314344227,-3.2754980151740893,5.8722384120134405,9.644104881452916
-0.32940316329518315,-3.3740484125841954,5.968679460827969,9.79339733644446
-0.3631436474210251,-3.3249868759301378,6.066613434192414,9.772961331981667
-0.3963935161803265,-3.1249989132996903,6.16434304751223,9.58002990459098
-0.4276435053133234,-2.8071573602633295,6.26014334655814,9.259213587463087
-0.4557150789159567,-2.4216755125440472,6.35273548243277,8.876093378408447
-0.47993183404139717,-2.0120231244868494,6.441496416216855,8.485448253003055
-0.5000520652862657,-1.6051784008082186,6.526350898746885,8.119124863516344
-0.5161038492943478,-1.2140301390434391,6.607542147382048,7.790093413417441
-0.5282441506847823,-0.8429812383513198,6.6854430815162225,7.500347259205916
-0.5366739630682954,-0.4922760245850632,6.760446554108282,7.246759620447814
-0.541596723314146,-0.16048269742941496,6.83291415031276,7.024325479831008
-0.5432015502884402,0.1542777258630066,6.90315740511107,6.827694252454261
-0.5416587730298101,0.4537851790764594,6.971434347635613,6.651803403197712
-0.5371209212390455,0.7395102851201782,7.037952381667591,6.492089542533527
-0.5297258183878437,1.012559620499984,7.102873277092926,6.34451824540584
-0.5196002221828439,1.2736890472886175,7.166318459546985,6.205545828420259
-0.5068633317099577,1.5233444749965552,7.228373917831187,6.07206329499281
-0.4916298869599921,1.7617118567084455,7.289094550781115,5.941343079945543
-0.4740127683929076,1.9887686385760952,7.348507981580571,5.810995759257676
-0.4541250820071467,2.2043335401458553,7.406617939173148,5.67893794951768
-0.43208174660568816,2.4081134972774416,7.463407318668325,5.543370135311912
-0.40800061163291373,2.5997473146663452,7.518841020021444,5.402762245480376
-0.3820031384862503,2.778845753637331,7.572868642476248,5.25584459083958
-0.35421468094987696,2.945027760219217,7.625427088384644,5.101601890514584
-0.3247644033476848,3.097952478797173,7.676443107289789,4.9392683800829795
-0.2937848785597131,3.237346669751084,7.725835791090619,4.768322334850785
-0.26141141186220224,3.3630271812460832,7.773519014439127,4.588478716703279
-0.2277811400497414,3.474918216605551,7.8194038016061596,4.399679038209679
-0.19303195788368588,3.5730632769520745,7.863400591988256,4.202077913021279
-0.15730132511416514,3.657631825395748,7.905421371118469,3.9960261097273033
-0.12072500686020765,3.7289208941663357,7.945381632215742,3.7820502329930274
-0.0834357979185443,3.787352022126061,7.983202134545673,3.560829410952566
-0.045562277697283694,3.8334640536302986,8.018810428655199,3.3331695660926894
-0.00722763716098071,3.867902442111263,8.052142124316125,3.0999759871766175
0.03145138726013192,3.891405778872649,8.083141884187892,2.862225004297394
0.07036544504885842,3.904790308668114,8.111764134230866,2.62093560204812
0.10941334813553956,3.908933200227657,8.137973490251346,2.3771417920503355
0.14850268013781615,3.904755314820499,8.16174490817185,2.1318665109971966
0.18755023328602113,3.893204162741159,8.18306357328182,1.886097719552673
0.22648227491343273,3.8752376603469423,8.201924550477347,1.6407672571897713
0.2652346515169022,3.851809203626126,8.218332223049245,1.3967328657663083
0.30375274355316345,3.823854463602725,8.232299551706909,1.1547636390859088
0.3419912881891907,3.792280190208442,8.243847188097767,0.9155289967719838
0.37991409009127514,3.7579551909665008,8.253002478065486,0.679591128886448
0.41749364200094013,3.7217035351767622,8.259798389354351,0.44740072281214666
0.45471067735270776,3.684299928707591,8.264272396582474,0.2192956745415538
0.49155367663978367,3.6464671129841815,8.26646535332789,-0.0044975909356791965
0.5280183477696255,3.608875066356115,8.266420377418534,-0.22386060709678046
0.5641070984331866,3.5721417265031548,8.264181771347566,-0.4387775824610191
0.5998285156982182,3.536834906298151,8.259793995522957,-0.6493287346925015
0.6351968647611996,3.503475037647953,8.253300708176031,-0.8556825614999675
0.6702316151376791,3.47253834105944,8.244743882561032,-1.058087262344287
0.7049569985482735,3.4444599735149835,8.234163009937589,-1.2568613816455925
0.7394015982834233,3.4196366416797632,8.221594396121134,-1.452383557148427
0.7735979647002209,3.398428066571592,8.20707056054965,-1.6450810154327928
0.8075822453659368,3.3811565311879295,8.19061975039532,-1.8354161426635025
0.8413938106778162,3.3681035119317895,8.172265588968687,-2.0238700474844884
0.875074845797134,3.3595020625136636,8.152026888493841,-2.2109214927819827
0.9086698664222707,3.3555231600693958,8.129917673566021,-2.3970188704000766
0.9422250980229646,3.356253622463088,8.105947484862021,-2.58254200653932
0.9757876342475955,3.361662481817226,8.080122064796628,-2.767749539211156
1.0094042590657677,3.3715519542107213,8.052444569404516,-2.9527065402484527
1.043119778607875,3.385488659391933,8.02291750400203,-3.137186346025268
1.0769746652017944,3.4027111385779407,7.991545640541778,-3.320541068258079
1.1110017765875737,3.422012191646557,7.958340229859197,-3.5015386349145126
1.1452218985040392,3.4416011153025647,7.923324843510052,-3.6781732415241923
1.1796379096570648,3.4589643046221377,7.88654311109481,-3.847474563832805
1.2142275527032862,3.470765161733825,7.8480683654564825,-4.005372149281839
1.2489352043206245,3.4728540887254544,7.808014643963664,-4.1467126070762665
1.2836637452078792,3.46048403597986,7.766547517892901,-4.265561125017608
1.3182685855676777,3.428817137084207,7.723891906642725,-4.355904369879741
1.3525567569385197,3.373724357086065,7.680332862943928,-4.412754787217483
1.3862940005093805,3.2927132766517198,7.636205315071753,-4.433424050508406
1.4192211332758977,3.1856468837096767,7.591871074566669,-4.418495304582634
1.4510776021129945,3.054897941688009,7.547686121520842,-4.372002450365314
1.4816265815298746,2.9048149006610644,7.503966097017189,-4.300651651789637
1.5106747305364852,2.7407263190346423,7.460959580499293,-4.212410541835428
1.5380819937268315,2.567908175426774,7.418835475080939,-4.115061686379279
1.5637610754810993,2.390854587135667,7.377684858217146,-4.015193448149093
1.587669621352456,2.212956401604677,7.337532923735655,-3.9177679280790003
1.6097991853685027,2.036502755548945,7.298355244454864,-3.826141231947646
1.6301642129239922,1.862857771693556,7.260093832135388,-3.7423257160422203
1.6487927906409277,1.6926907353262943,7.222670574974965,-3.667322842691306
1.6657196979941906,1.5261903485627752,7.185997346548052,-3.601429801879307
1.6809816014798185,1.3632359568365775,7.149983048529259,-3.5444827741051728
1.6946139610481843,1.203522736744456,7.114538220788207,-3.4960334602831566
1.706649188415629,1.0466479981671153,7.079577886185375,-3.4554695686650367
1.7171156683973001,0.8921681767054552,7.045023190498725,-3.4220931522151385
1.7260373501643547,0.7396351660171692,7.0108022589765735,-3.3951692398872844
1.7334337018245263,0.5886187206791288,6.976850566577701,-3.373954412504655
1.7393198890313175,0.4387197734516237,6.943111022452654,-3.3577122659721743
1.7437070867658337,0.28957799130281137,6.909533899792932,-3.3457205397795264
1.7466028666788618,0.1408757785677737,6.876076694395137,-3.337273108853541
1.7480116244645396,-0.007659843635371644,6.842703963306602,-3.3316789415783203
1.7479350260281858,-0.1562565808782525,6.809387173890818,-3.328259391583549
1.7463724602194033,-0.3050968828645343,6.776104579974983,-3.3263447080706543
1.743321491390758,-0.45431831813475926,6.742841132894276,-3.325270337524844
1.7387783082094104,-0.6040141418841922,6.709588429519028,-3.3243733908290656
1.7327381667905684,-0.7542339928768479,6.676344695610737,-3.3229895244335936
1.7251958268618,-0.9049847211546221,6.643114800366401,-3.3204504056971915
1.7161459796502538,-1.0562313911903247,6.60991029630943,-3.316081883031982
1.7055836657383505,-1.207898532693171,6.57674947747911,-3.3092029492131174
1.6935046804114189,-1.359871727992751,6.543657447986979,-3.2991255632313123
1.6799059631314914,-1.5119996335093495,6.510666192354665,-3.285155377031287
1.664785966796398,-1.6640965348006782,6.477814638584352,-3.266593394778651
1.6481450014483912,-1.8159455308823556,6.445148704636566,-3.242738571505725
1.6299855461395676,-1.967302434386784,6.412721318921508,-3.212891333536412
1.6103125217956997,-2.1179004599280935,6.380592405586144,-3.1763579740812866
1.5891335171964187,-2.267455754065572,6.348828825845332,-3.132455843485732
1.566458959655763,-2.4156737969273583,6.317504267410475,-3.0805192149673846
1.5423022216864894,-2.5622566785241387,6.286699075260801,-3.019905663927115
1.516679654901248,-2.7069112230019425,6.256500018621529,-2.95000275314446
1.4896105426712285,-2.849357902849987,6.226999991090085,-2.8702347688874412
1.4611169636427286,-2.989340454056171,6.198297643401211,-2.780069206088651
1.431223559102167,-3.1266360744175286,6.170496951340324,-2.67902265651848
1.3999571983579917,-3.2610660630340553,6.143706724775139,-2.566665714837267
1.3673465377276512,-3.392506742090511,6.118040067626767,-2.4426264861830913
1.3334214703067462,-3.520900495187104,6.093613802764936,-2.3065922581691103
1.2982124653548752,-3.6462667625536174,6.070547880183245,-2.15830889219072
1.261749797729339,-3.768712855078835,6.048964791261338,-1.9975774956499435
1.2240626691785508,-3.8884444882383398,6.0289890163048385,-1.8242479592535406
1.1851782242961675,-4.005775994683104,6.010746536712303,-1.638208982304269
1.1451204643493365,-4.121140249706653,5.994364446889261,-1.4393742637127254
1.10390906185227,-4.235098433586121,5.979970704252134,-1.2276646074887871
1.0615580775164088,-4.3483498512170415,5.967694058177246,-1.002985781291075
1.0180745790042385,-4.461742118078777,5.957664200364335,-0.7652020842053261
0.9734571578234507,-4.576282076566175,5.950012179522282,-0.5141057481924156
0.9276943370577889,-4.693147782450418,5.944871122040357,-0.24938256700962136
0.8807628592332848,-4.813701716227838,5.942377296370261,0.029425380671617207
0.8326258420710064,-4.939504881022816,5.942671550176978,0.3229581717343789
0.7832307932607783,-5.072330377861395,5.945901131894321,0.632074245663566
0.7325074894821644,-5.214172903936896,5.952221874350957,0.9578778447726114
0.6803657604427954,-5.36724648634532,5.961800652798683,1.3017252423532197
0.6266932955793422,-5.533954979912863,5.974817905222215,1.6651862790698886
0.5713537457802136,-5.716805477232166,5.991469768012914,2.049917433283624
0.5141856910078919,-5.91820887860226,6.01196894234575,2.4573662228352346
0.4550036022218693,-6.140067258916093,6.036542604574103,2.8881642263193763
