th1 (rad),w1 (rad/s),th2 (rad),w2 (rad/s)
5.05419606950107,2.0689267031189784,4.587811823090233,0.1513537013793764
5.07488533653226,2.135897095727233,4.589325360104026,0.20802376768831687
5.096244307489532,2.200121700226303,4.591405597780909,0.26977277800176735
5.118245524491795,2.261507055902807,4.594103325560927,0.3367407924390375
5.140860595050823,2.319964566710295,4.597470733485317,0.40904234619481256
5.164060240717926,2.375408660355658,4.601561156947265,0.4867663176582451
5.187814327321482,2.427754639769123,4.606428820123847,0.5699762171522812
5.2120918737191735,2.476916322111803,4.61212858229537,0.6587108040346704
5.236861036940292,2.5228035659645727,4.618715690335717,0.7529849368625785
5.262089072599938,2.5653197870003486,4.626245539704343,0.852790567245772
5.287742270469941,2.6043595574167053,4.634773445376801,0.958097801329315
5.313785866044109,2.639806376082682,4.644354423390094,1.0688559715358308
5.340183929804936,2.671530686129739,4.655042983105453,1.1849946830938656
5.366899236666233,2.699388205823628,4.666892929936392,1.3064248229159077
5.39389311872447,2.7232186279459913,4.679957178165551,1.4330395407599121
5.42112530500393,2.7428447332258954,4.69428757357315,1.564715232837689
5.448553752336188,2.7580719549213284,4.709934725901527,1.7013125749801936
5.476134471885402,2.768688424543172,4.726947851651329,1.8426776652686958
5.503821356130834,2.7744655228680353,4.745374628304016,1.9886433440175335
5.531566011359514,2.7751589556818166,4.765261061744191,2.1390307615642796
5.559317600916332,2.7705103700804115,4.786651369359833,2.2936512608899946
5.587022704617136,2.7602495247646335,4.809587881968733,2.452308631945915
5.614625199864783,2.7440970270592477,4.834110968288193,2.614801776776888
5.642066170135375,2.72176765127793,4.860258986055961,2.7809277978453313
5.669283846648154,2.6929742590866623,4.888068264034414,2.9504854846275457
5.696213589239021,2.657432355042212,4.91757311888069,3.1232791231409
5.722787912789443,2.6148653329036904,4.9488059101121,3.2991224861454307
5.748936566118481,2.5650105053741035,4.9817971349735535,3.4778427735292197
5.774586671172222,2.5076260680491362,5.016575562708845,3.6592841560585354
5.799662931852714,2.4424992360344366,5.053168404269431,3.843310421801537
5.8240879242130585,2.369455919910714,5.091601508487446,4.029806020166331
5.847782483412166,2.2883724901484968,5.131899568689109,4.21867452640949
5.870666208313651,2.199190431792059,5.174086313953204,4.409833187918697
5.892658112631572,2.1019350312014704,5.218184645832391,4.603201737503462
5.913677462943586,1.9967396773274417,5.264216663207426,4.798683044751218
5.9336448597168605,1.8838779013031197,5.3122034936549385,4.9961324142978345
5.952483638729892,1.7638058854792564,5.362164817797916,5.195311460103443
5.970121697584685,1.6372187370519633,5.414117932398951,5.395821611454959
5.9864938849552045,1.505124086514086,5.468076148513501,5.597011753211098
6.001545125820345,1.3689360207880643,5.5240462660456116,5.797854931054696
6.015234486028226,1.2305900626530546,5.582024815356158,5.996791689816447
6.027540386654756,1.0926743755865558,5.641992732254323,6.191544460817953
6.038467130410622,0.9585616412077267,5.703908176862503,6.378921184695271
6.048052746822699,0.8325084271196654,5.767697388709455,6.554649518320673
6.056377831093895,0.7196650713238845,5.833243883892662,6.713314879530772
6.063574481807135,0.6259164457311579,5.900377032687969,6.848506896185639
6.069833646264446,0.5574708676743998,5.968862101649826,6.953285193530311
6.075408354941191,0.5201591051883361,6.038394953585129,7.021019121123204
6.080609945993074,0.5185173907630429,6.108605144796361,7.046510421235148
6.0857951199007045,0.5548812121190371,6.179070249008713,7.027107670846256
6.0913439320218945,0.6288152327507733,6.249341325717175,6.963393119695187
6.097632084349402,0.7371366872462566,6.318975256914127,6.8591148165214975
6.105003451221864,0.8745469179580609,6.387566405079342,6.720357338361218
6.113748920401445,1.034619017788041,6.454769978462954,6.554289786941148
6.124095110579326,1.210783214754275,6.5203128763323654,6.367957262237926
6.136202942726869,1.3970468001536493,6.583992448954745,6.167444946684956
6.150173410728406,1.588368383294749,6.645666898421594,5.9574993847182975
6.166057094561353,1.7807467667334063,6.705241892268777,5.741511575598861
6.1838645622286865,1.9711362329344408,6.762657008024766,5.521707288104594
6.203575924558031,2.1572874548373635,6.817874080905812,5.299413697012884
6.225148799106404,2.337577800800149,6.87086821787594,5.075321853818666
6.248524577114406,2.5108623610987024,6.921621436414127,4.849708126738924
6.273633200725393,2.6763558331194206,6.970118517681517,4.622605017350596
6.3003967590565875,2.833544404671094,7.016344567855023,4.393925135849371
6.328732203103298,2.9821223795671883,7.060283819213517,4.163546888959654
6.35855342689897,3.12194738593952,7.1019192881031135,3.9313709030901687
6.3897729007583655,3.2530086255630413,7.141232997134015,3.697354975130367
6.422302987013996,3.375403718574131,7.178206546885319,3.461533724346917
6.456057024199738,3.4893207981239933,7.212821884128788,3.224027657409354
6.490950232180977,3.5950234376275643,7.245062160702881,2.9850452173249047
6.526900466557253,3.692836710521393,7.27491261287613,2.744880563175116
6.563828833662467,3.783133204334166,7.302361418507881,2.503909261560521
6.601660165705809,3.8663181693619015,7.327400511123487,2.2625836941409774
6.640323347399428,3.9428132111576115,7.350026348064897,2.0214297380675426
6.679751479511004,4.01303806768675,7.3702406454455724,1.7810461071376351
6.719881860187871,4.077390078968125,7.388051106516949,1.5421076066750317
6.760655760977553,4.136220996806526,7.403472182583699,1.3053734077151038
6.802017970945618,4.1898108436437935,7.41652591666085,1.0717012265889097
6.843916079382057,4.238338680581481,7.42724292892674,0.8420679199292713
6.886299466187872,4.281850480383407,7.435663608126032,0.6175963507609306
6.9291179709917055,4.320224948511523,7.441839571633642,0.39958728320961323
6.972320220476821,4.353139244839985,7.445835444465738,0.18955332348722947
7.01585161292522,4.380038269823109,7.44773097770061,-0.010750635243102213
7.059651995623452,4.400113530540005,7.447623471348179,-0.19930941826001897
7.103653130928852,4.412300366591415,7.445630377165579,-0.37385489008511585
7.147776134594766,4.41530475813644,7.441891828264728,-0.5319147899496647
7.19192918217613,4.4076715922766105,7.436572680365232,-0.6709199297487358
7.236005898098896,4.387902982427352,7.429863481067744,-0.7883815131842742
7.279884927923169,4.354625926705433,7.421979665935901,-0.8821365844482891
7.323431187190224,4.306792927587744,7.4131583000914185,-0.950636858485121
7.366499116466101,4.243880778412951,7.403651931506567,-0.9932297355672899
7.40893792425023,4.166039825931552,7.393719634150894,-1.0103621346071914
7.450598322509546,4.074148470678179,7.383616012804822,-1.0036419955303855
7.4913398072163275,3.969749878978081,7.373579592849518,-0.9757251031821804
7.531037306006108,3.854882942788416,7.363822341817697,-0.930046135793944
7.569586135433992,3.731851189886174,7.354521880459758,-0.8704589734388231
7.606904647332854,3.602986486561402,7.345817290725369,-0.8008704011612832
7.642934512198468,3.470455252278745,7.337808586713757,-0.724937972692422
7.677639064721255,3.33613210586219,7.330559206986832,-0.6458693807533734
7.711000385779877,3.2015423380265746,7.324100513179299,-0.5663260285115321
7.743015809160142,3.0678591690245187,7.318437252894183,-0.4884105213704598
7.773694400850387,2.935936256699242,7.313553147680478,-0.4137093365262453
7.80305376341738,2.8063575656895248,7.309416054315216,-0.343364006425308
7.831117339074275,2.6794915687489405,7.305982414250963,-0.2781510905536628
7.857912254761764,2.5555419280721203,7.303200903345426,-0.2185587573217069
7.883467674042485,2.434590894354744,7.30101531577221,-0.16485385267166663
7.907813582986033,2.316634347641512,7.299366777245493,-0.11713737990590484
7.930979926462448,2.201608904347828,7.298195403446434,-0.07538863606729737
7.952996015505926,2.089412195524492,7.297441517085761,-0.03949935834794382
7.973890137461171,1.9799176114674448,7.2970465235022814,-0.009299602203676354
7.993689313575846,1.8729847425583301,7.296953527480245,0.01542295516127452
8.012419161001429,1.7684665722797168,7.297107757031857,0.03490879902991356
8.030103826724226,1.6662142769925783,7.297456845022157,0.049416224481072656
8.046765969494151,1.5660802980155435,7.297951007266968,0.0592138776805128
8.062426772474307,1.4679201905916943,7.298543146043773,0.06457544443526378
8.077105974380224,1.3715936247560767,7.299188900488126,0.06577592109979959
8.090821910627785,1.2769648124451056,7.299846659699124,0.06308904595252621
8.103591558752235,1.183902558822511,7.300477550158649,0.056785578865080656
8.11543058434046,1.0922800788391847,7.3010454059473,0.047132199779893254
8.126353385128851,1.0019746780903647,7.301516727945099,0.03439085808715168
8.136373131909755,0.912867366429282,7.301860636525971,0.018818450444762734
8.145501805574048,0.8248424506504258,7.302048821030419,0.0006667379243901865
8.153750230080552,0.7377871366460362,7.302055488409663,-0.01981756229181806
8.161128101447012,0.6515911600911986,7.301857312786745,-0.042392557728294894
8.167644013047925,0.5661464566791234,7.301433387209462,-0.06682086815876472
8.173305477614717,0.48134687728862513,7.300765178527874,-0.09286924477913502
8.178118946387603,0.3970879495451331,7.299836486080083,-0.12030813918784883
8.182089825883054,0.31326668454094087,7.298633404688204,-0.14891123549820232
8.185222492728464,0.22978142564949586,7.297144292333223,-0.17845495541528655
8.18752030698496,0.1465317351398199,7.29535974277907,-0.20871794360681323
8.188985624336357,0.06341831347954194,7.293272563343002,-0.23948053891271104
8.189619807471153,-0.01965705433035897,7.290877757953875,-0.270524235678616
8.18942323692785,-0.10279153141978171,7.288172515597089,-0.3016311386232463
8.188395321613651,-0.18608124701801956,7.285156204210857,-0.3325834140586007
8.18653450914347,-0.2696213062588474,7.281830370070271,-0.36316273990300896
8.183838296080882,-0.35350579856932174,7.278198742671241,-0.39314975670922847
8.180303238095188,-0.4378278116152824,7.274267245104149,-0.42232352183749566
8.175924959979035,-0.5226794580262217,7.2700440098857735,-0.4504609689131849
8.170698165398774,-0.6081519223994807,7.265539400196642,-0.4773363748070111
8.164616646174778,-0.694335536383685,7.2607660364485715,-0.5027208365583915
8.15767329081094,-0.7813198899497362,7.255738828082988,-0.5263817609355291
8.149860091911444,-0.8691939872496304,7.250475010473632,-0.5480823697069065
8.141168152038947,-0.958046455700854,7.244994186776563,-0.567581224221833
8.13158768748194,-1.04796581706217,7.239318374534345,-0.584631773617676
8.121108029311317,-1.1390408292078666,7.233472056798168,-0.5989819319736712
8.10971762101924,-1.2313609069543507,7.227482237478431,-0.610373691143268
8.097404011949696,-1.3250166294961645,7.221378500566998,-0.6185427780059146
8.084153845654734,-1.4201003405617967,7.215193072786939,-0.6232183677558066
8.069952842249116,-1.5167068450172796,7.208960889109381,-0.6241228689777891
8.054785773798942,-1.6149342019312487,7.2027196604196035,-0.620971802202171
8.03863643177963,-1.7148846085181038,7.196509942397582,-0.6134738021632979
8.021487585694448,-1.8166653611296857,7.1903752043759495,-0.6013307862136494
8.00332093208315,-1.920389867502832,7.184361896513813,-0.5842383488116052
7.984117033408122,-2.0261786673039097,7.178519513025697,-0.5618864668638579
7.963855246735083,-2.1341603935766305,7.172900648357059,-0.5339606359565425
7.942513642799317,-2.244472573138532,7.1675610419974936,-0.500143607279037
7.9200689170679315,-2.3572621153593993,7.162559605924703,-0.4601179649652452
7.896496295914337,-2.472685270762577,7.157958426275051,-0.4135698812383319
7.871769443206712,-2.5909067464122617,7.153822727462667,-0.3601945221663198
7.845860375742589,-2.7120975348776564,7.1502207822410035,-0.2997037628437565
7.818739400393812,-2.8364308363018367,7.147223744612566,-0.2318371230165075
7.790375092030794,-2.964075215750653,7.144905373382401,-0.15637716989475287
7.760734339873287,-3.0951838280831527,7.143341601683454,-0.07317106987120714
7.729782501592456,-3.2298781533239707,7.142609890984741,0.017839488764262057
7.697483720059216,-3.3682242271327514,7.142788285872384,0.11657715426503067
7.663801477787889,-3.5101988723770945,7.143954057415034,0.22277307006990166
7.628699489064117,-3.6556430655487215,7.146181788115733,0.3358924045762697
7.59214305840863,-3.804199572936108,7.149540712161496,0.4550374568161015
7.554101062679269,-3.95523286192146,7.154091086729657,0.5788259853160479
7.514548734060054,-4.107731847876154,7.159879346582818,0.7052463413844163
7.473471415581293,-4.26020142220572,7.166931809996662,0.8314990591150717
7.430869401359236,-4.410558126789807,7.1752468005878125,0.9538484690964618
7.386763820091338,-4.556059155025954,7.184785285278777,1.0675281145135465
7.341203228541079,-4.69330969624191,7.195460566423913,1.1667667281942697
7.29427013157866,-4.81840379518085,7.2071282337058555,1.2450160383216957
7.246086093626851,-4.927244231327226,7.219578394089073,1.2954471910953889
7.196813651313579,-5.016042077417445,7.232532866000026,1.3117168546538722
7.146653230539404,-5.081915554144483,7.245650034546565,1.2888855172863964
7.095834074997959,-5.123422560846605,7.258538889719429,1.2242451970183648
7.044599849389493,-5.140833581451695,7.270781341689613,1.1177710971271895
6.993191513574976,-5.13602753475808,7.281959052660885,0.9720191534891467
6.941831238227395,-5.112045764202592,7.291679244195777,0.7915120546529103
6.890710780585369,-5.072473600821928,7.299594364742306,0.5818538437246782
6.83998604457715,-5.020852707713311,7.305412903179552,0.3488678122701145
6.789777517500016,-4.960261520280018,7.308901581302253,0.0979621691339067
6.740174902297216,-4.893100885596212,7.3098812029935925,-0.16621501133232974
6.691243893441254,-4.821048879419334,7.308219052880269,-0.4398770780165248
6.643033404647061,-4.745121816239789,7.303820282100104,-0.720043703395965
6.595582186484663,-4.665784463815446,7.296619845066145,-1.0044108614054725
6.548924341846508,-4.583071113164591,7.2865757364520904,-1.291202196996019
6.503093630714862,-4.496697146032814,7.27366371448213,-1.5790328617871616
6.4581266592545346,-4.406153219833056,7.257873385864259,-1.8667988936376945
6.414065127056204,-4.310781164486456,7.239205396927882,-2.1535947823512545
6.3709573154113395,-4.209833799854511,7.21766944910437,-2.4386568486392846
6.328858977412795,-4.10252177673227,7.193282880617977,-2.721328230375545
6.287833759645472,-3.9880503651635872,7.1660695983142215,-3.00104102598473
6.247953255993836,-3.865648531160599,7.136059188054374,-3.277311550658472
6.20929677068223,-3.7345920012188882,7.10328607254779,-3.5497452356492953
6.171950850670041,-3.5942214705699205,7.067788620191297,-3.818048230515755
6.136008635964342,-3.44395672877151,7.0296081378861395,-4.08204317564428
6.101569068676627,-3.2833072774279657,6.988787706129696,-4.341686877870619
6.068735995902347,-3.111880010786346,6.94537083735099,-4.597087738354356
6.037617195794483,-2.9293847370313055,6.899399959967447,-4.8485207279935345
6.008323348424169,-2.7356387689715556,6.850914752687511,-5.096437428364071
5.980966960734454,-2.5305725671932264,6.79995037840387,-5.341468053229089
5.9556612350625215,-2.3142395757691987,6.746535697871579,-5.584411267673476
5.932518839304829,-2.0868351015201334,6.690691585194844,-5.826205773496817
5.911650488289628,-1.8487315609969543,6.632429527459876,-6.067874679837998
5.8931631726796585,-1.6005408931667866,6.571750780661496,-6.310429211998094
5.877157763747991,-1.34321955832462,6.508646488541515,-6.554712002653219
5.863725568164744,-1.0782370216680024,6.443099368514983,-6.8011522828017235
5.852943197948064,-0.8078333615612401,6.3750878456869655,-7.049397673837097
5.844864864332451,-0.5353909508884798,6.3045938689485945,-7.297786084065352
5.839510954823567,-0.2659280995692112,6.231616008107941,-7.542641085581216
5.836851673827875,-0.006668431047015255,6.156189597252129,-7.777443366201484
5.836784989517405,0.23247972000057518,6.0784151635901145,-7.99208900488585
5.83910978671741,0.4388953466412578,5.998494273541256,-8.172709889362507
5.843498740183823,0.5982223714271915,5.916767174647632,-8.3027988205075
5.8494809638980945,0.6968306557740811,5.833739186442557,-8.366293699480217
5.856449270455835,0.7255227464078506,5.750076249447755,-8.352328061140959
5.8637044979199135,0.6829805084089394,5.666552968836346,-8.25966249500771
5.870534303004003,0.576781424395074,5.5839563438862685,-8.097934435928062
5.876302117247954,0.42105673444473346,5.502976999526988,-7.8845447925499945
5.880512684592402,0.23222371158250826,5.424131551601488,-7.639136139456038
5.882834921708227,0.02522951618483449,5.3477401902069275,-7.378881436795074
5.883087216870075,-0.18834380871376438,5.273951375838977,-7.116281470451565
5.881203778782938,-0.4004954888529041,5.2027885611344615,-6.859134274602128
5.877198823894409,-0.6061589178815341,5.13419721838844,-6.611554491128169
5.871137234715594,-0.8023559096581793,5.068081673477159,-6.3751709538077375
5.863113675619012,-0.987471097402854,5.004329963939082,-6.1501087400576875
5.853238964644983,-1.1607277273009533,4.9428288765385044,-5.935674703298249
5.841631687371973,-1.3218427157166324,4.883472129505522,-5.730793480450583
5.828413260214806,-1.470812656701409,4.8261641947010165,-5.534267490251063
5.813705133647792,-1.6077867711896205,4.770821519798506,-5.3449233869640445
5.797627265935896,-1.7329945003939229,4.717372285928866,-5.161688985510122
5.780297320931957,-1.8467061960140891,4.665755396073765,-4.983629046136309
5.761830258971815,-1.9492132276179959,4.615919105612401,-4.809957356493766
5.7423381266956355,-2.0408190662258456,4.567819532047464,-4.640035512965523
5.721929936033377,-2.121836233898199,4.521419176917809,-4.473364489211981
5.700711573694395,-2.1925860788570155,4.476685532025689,-4.309572509087632
5.6787857129058255,-2.2533996084939476,4.433589806934813,-4.1484012385528155
5.656251716820886,-2.3046183924723245,4.392105794549285,-3.9896914464085675
5.633205532896163,-2.346595025314712,4.3522088800851995,-3.8333687925390207
5.609739582643016,-2.379692928889685,4.313875192159809,-3.679430126439712
5.585942653354119,-2.404285450711318,4.277080890895412,-3.5279305244883417
5.561899798847007,-2.420754316771716,4.241801585650529,-3.3789712070247484
5.537692255679289,-2.42948755393209,4.208011873580281,-3.232688424478636
5.513397380139968,-2.4308770230078762,4.175684989335495,-3.0892433679699383
5.4890886099098894,-2.4253157100341047,4.144792555655796,-2.948813134613346
5.464835452809548,-2.4131949167082327,4.115304424309662,-2.8115827565364673
5.440703503642466,-2.394901476447618,4.087188596744298,-2.6777382834103323
5.41675448887799,-2.3708151032678635,4.060411213910195,-2.5474608905758447
5.393046337845311,-2.3413059592654677,4.034936605004436,-2.4209219688096506
5.369633278252656,-2.3067325046890916,4.01072738531634,-2.2982791378389016
5.346565953205765,-2.2674396737153377,3.987744593937951,-2.179673114319219
5.323891556468611,-2.223757400007261,3.9659478627947586,-2.0652253564402323
5.3016539824685385,-2.1759994994945653,3.945295609230356,-1.9550364017476303
5.279893987473593,-2.124462903871198,3.92574524521288,-1.849184812118501
5.258649358434881,-2.069427227141797,3.907253397091695,-1.7477266398898632
5.237955086163463,-2.0111546390821866,3.8897761306927965,-1.6506953315911874
5.217843539772642,-1.9498900135123858,3.873269177376885,-1.5581019901646656
5.198344639637518,-1.8858613155378972,3.857688157475238,-1.469935922527696
5.179486026482139,-1.819280190078971,3.8429887982499613,-1.3861654063918822
5.16129322458135,-1.7503427137466403,3.8291271441860424,-1.306738617975962
5.143789797443883,-1.6792302731149218,3.8160597580062827,-1.2315846702531132
5.126997494712734,-1.606110534380061,3.8037439113037514,-1.1606147193275207
5.110936389368933,-1.5311384720224326,3.792137764110476,-1.0937231041735154
5.095625004648709,-1.4544574271651507,3.781200533068741,-1.0307884920877974
