th1 (rad),w1 (rad/s),th2 (rad),w2 (rad/s)
0.7647702214020975,-1.6559855141459694,2.431325843584651,-1.056276945104893
0.7482103662606377,-1.7229507393690167,2.4207630741336024,-1.1538764730392954
0.7309808588669476,-1.7881215341220327,2.4092243094032093,-1.2547094128556184
0.7130996435257273,-1.8513016493525385,2.396677215274653,-1.3588002708814506
0.6945866270322019,-1.9122792595205493,2.3830892125658387,-1.466153415548609
0.6754638344369964,-1.9708262992400414,2.368427678410353,-1.5767518768366713
0.6557555714445961,-2.026697954085293,2.352660159641986,-1.6905562660417872
0.6354885919037432,-2.0796323395285254,2.3357545969815683,-1.8075038619680734
0.6146922685084579,-2.1293504033966224,2.3176795583618874,-1.9275079153879648
0.5933987644744917,-2.1755560877382534,2.2984044792080076,-2.050457228972335
0.5716432035971092,-2.2179367853145426,2.277899906918284,-2.176216074575793
0.5494638357439637,-2.256164123781032,2.2561377461725263,-2.304624513469616
0.5269021945061534,-2.289895106717843,2.2330915010378303,-2.4354991875123195
0.504003243438975,-2.31877363469004,2.208736509162707,-2.568634649992026
0.48081550709207455,-2.3424324211993746,2.183050162662787,-2.7038053036274414
0.4573911828800808,-2.3604953074785606,2.1560121096265124,-2.840768009666324
0.4337862298052952,-2.372579966402359,2.1276044295298493,-2.9792654259224256
0.4100604301412716,-2.378300969265869,2.097811775270625,-3.1190301227913597
0.3862774204486129,-2.3772731698622,2.0666214740427113,-3.2597895147712195
0.3625046887499909,-2.36911533840152,2.034023578894999,-3.401271630964263
0.3388135353659757,-2.3534539537780104,2.0000108625853565,-3.5432117318735363
0.3152789958281956,-2.3299270371688623,1.9645787452666212,-3.685359762246774
0.29197972545650697,-2.2981878838446517,1.9277251476441535,-3.8274886118041813
0.2689978466180605,-2.2579085245287605,1.8894502615261117,-3.969403138811251
0.24641876137277288,-2.208782724022423,1.8497562301379993,-4.110949897352703
0.22433093413254865,-2.150528304626163,1.8086467311644723,-4.252027499832969
0.20282565108628703,-2.08288856673593,1.7661264561661425,-4.392597543825103
0.18199676541892773,-2.0056325704789386,1.7222004807278914,-4.5326960390057
0.16194043971413835,-1.9185540419516751,1.6768735203378344,-4.6724452872614295
0.1427548992946216,-1.8214686771210464,1.6301490674652201,-4.812066197997197
0.12454021252341113,-1.7142096376056895,1.5820284054852483,-4.951891060535156
0.10739811614735423,-1.5966210680918727,1.5325094948798967,-5.092376842973294
0.09143190546643551,-1.4685495198612644,1.4815857264501637,-5.234119134350159
0.07674641026782286,-1.3298332479509574,1.429244535106662,-5.377866879607216
0.0634480777883133,-1.180289478312531,1.3754658663105899,-5.524538047596643
0.051645183005187986,-1.0196999488722496,1.3202204858346234,-5.675236273063851
0.04144818351646549,-0.8477953752424808,1.2634681231039848,-5.8312682388508295
0.03297022976404068,-0.6642400879281948,1.2051554407154765,-5.994160963441708
0.026327828884758733,-0.46861913012316714,1.1452138310810596,-6.165676963282793
0.021641637583527062,-0.2604319427094891,1.0835570614482317,-6.347822993441766
0.01903731815643217,-0.03910000755495621,1.020078831513814,-6.542843895411363
0.018646318080882608,0.19599847656425276,0.9546503925597004,-6.753185540791956
0.020606302846525135,0.4454439032313916,0.8871185371517809,-6.981397506349472
0.02506074187883905,0.7096007613052584,0.8173045620882862,-7.229923104770066
0.03215674949189164,0.9882863110659266,0.7450053310405855,-7.500686560470577
0.0420396126025509,1.280175320798732,0.6699984654358797,-7.7943303996859035
0.05484136581053822,1.5817870854924254,0.5920551614390207,-8.108887843273221
0.07065923666546248,1.8858855070468787,0.5109662830062884,-8.437645023975929
0.08951809173593127,2.17925954642401,0.4265898327665292,-8.766119975925683
0.11131068720017137,2.4404087099753347,0.33892863300727233,-9.068829564067492
0.1357147742999247,2.6389507874976053,0.2482403373665974,-9.30827256555994
0.16210428217490075,2.7401438749077878,0.15515761171099798,-9.44072396200049
0.18950572092397863,2.716942774906712,0.060750372090993085,-9.432146353304736
0.21667514867304574,2.564799315434905,-0.03357109144205428,-9.277733945076537
0.24232314182739478,2.3063790733768346,-0.12634843089281966,-9.00778335397155
0.26538693256116314,1.9799319803189181,-0.21642626443253515,-8.67175220841524
0.2851862523643523,1.6221421612824583,-0.30314378651668755,-8.315484606243238
0.3014076739771769,1.2587042556314911,-0.38629863257911995,-7.96929360437788
0.3139947165334918,0.9040000122398131,-0.46599156862289876,-7.64823266341842
0.32303471665588995,0.5645707986225772,-0.5424738952570829,-7.3571450650552155
0.3286804246421157,0.24254203084933562,-0.616045345907635,-7.095368888041025
0.3311058449506091,-0.062101071076837655,-0.6869990347880452,-6.8597563852227665
0.3304848342398407,-0.3502406259464688,-0.755596598640273,-6.646302555102391
0.326982427980376,-0.6229839014292535,-0.8220596241912969,-6.450929920614723
0.3207525889660835,-0.8813681615058577,-0.8865689233974441,-6.2698264787595415
0.3119389073510249,-1.1262437886293528,-0.9492671881850395,-6.099565742878827
0.30067646946473137,-1.3582448994541054,-1.0102628456138278,-5.937128195105479
0.28709402047019034,-1.5778009602794412,-1.0696341275648826,-5.779882800613431
0.27131601086739593,-1.7851662349581492,-1.127432955571017,-5.62555598700969
0.2534643485178144,-1.9804557297565295,-1.1836885154411139,-5.472199995691715
0.2336597912202491,-2.1636821607786367,-1.238410515398031,-5.318165034983517
0.21202296961246272,-2.3347913133063516,-1.2915921657478662,-5.162076176181432
0.1886750564793992,-2.4936945110366637,-1.3432129275096805,-5.002814406629311
0.16373811136903255,-2.6402975394122175,-1.3932410715759735,-4.839500686269762
0.13733513597491037,-2.774525659797532,-1.4416360784386713,-4.671481752895594
0.10958987937693505,-2.89634450297483,-1.4883508959676273,-4.498316543363099
0.08062643434718675,-3.0057767335353645,-1.5333340614012583,-4.3197623212991285
0.0505686670118331,-3.1029144713512404,-1.5765316846142496,-4.135759862721495
0.019539522298320698,-3.187927555638216,-1.6178892832414646,-3.9464173141816006
-0.012339753258061463,-3.261067840944628,-1.6573534563832806,-3.7519925824655593
-0.04495043166750774,-3.3226698165922786,-1.6948733822079363,-3.5528743274457066
-0.07817712983343053,-3.3731479338839905,-1.7304021254823934,-3.349561802472632
-0.11190860917227044,-3.412991101765901,-1.7638977435071197,-3.142643915834538
-0.14603852018992947,-3.442754866518909,-1.7953241826654651,-2.9327779716267455
-0.18046606885511857,-3.463051821722697,-1.8246519623817326,-2.720668590829653
-0.21509658707234552,-3.4745408007013667,-1.851858648290029,-2.507047317449442
-0.2498419950793592,-3.4779153863129006,-1.8769291214645234,-2.292653385604923
-0.2846211489424882,-3.4738922350847212,-1.8998556553205725,-2.078216067715631
-0.3193600712933354,-3.4631996580701747,-1.9206378159977289,-1.8644389482080375
-0.35399206787403714,-3.446566833695221,-1.9392822054798093,-1.6519863782993482
-0.38845773621098934,-3.4247139527807424,-1.9558020692628029,-1.4414722721922373
-0.4227048757387968,-3.398343517296502,-1.9702167919847253,-1.2334513097644118
-0.4566883109117618,-3.368132936355415,-1.9825513050823695,-1.0284125212430808
-0.490369640275316,-3.334728489104426,-1.9928354302948004,-0.826775150180486
-0.5237169251663603,-3.298740657433593,-2.0011031817966054,-0.6288866259353343
-0.5567043317406962,-3.260740773909002,-2.0073920480559586,-0.43502242820736214
-0.5893117394797862,-3.221258883246075,-2.011742272338032,-0.24538759508376842
-0.6215243283122469,-3.180782679289738,-2.0141961482888697,-0.06011961246956926
-0.6533321551051443,-3.1397573533370005,-2.0147973444135654,0.12070757436011909
-0.6847297286385143,-3.098586172493999,-2.0135902686699643,0.29707866877943334
-0.7157155903634543,-3.057631596815795,-2.01061948198217,0.4690314619544791
-0.7462919063316122,-3.0172167390597067,-2.005929167362625,0.6366507741323377
-0.7764640737222093,-2.977626968596716,-1.9995626596213019,0.8000620201441448
-0.8062403434081764,-2.9391114589011793,-1.9915620394198603,0.9594244653291838
-0.8356314579971882,-2.9018844736627005,-1.9819677947665686,1.1149241762811848
-0.8646503027338152,-2.8661261777053535,-1.9708185530037567,1.2667666034680534
-0.8933115645108687,-2.831982743674552,-1.9581508869690762,1.415168659878933
-0.9216313919476142,-2.799565502582687,-1.9439992003702868,1.5603500813762141
-0.9496270469734411,-2.7689488555735333,-1.9283956995565248,1.7025237710178096
-0.9773165355291765,-2.740166627312427,-1.9113704618463467,1.841884743791685
-1.0047182018023009,-2.7132065030799795,-1.89295161440843,1.978597206354496
-1.0318502668331007,-2.6880021621617463,-1.873165642344885,2.112779241837056
-1.058730288454718,-2.6644227183599622,-1.8520378499265144,2.244484547509439
-1.0853745156383177,-2.6422591365048436,-1.8295930044514201,2.3736807360092467
-1.111797107003366,-2.621207462601213,-1.8058561970913276,2.5002239276012297
-1.1380091816293783,-2.600849059473591,-1.7808539578153153,2.6238298330911007
-1.1640176722241142,-2.580628678721253,-1.7546156594844042,2.7440423899207924
-1.1898239590113269,-2.559832234987114,-1.7271752355851964,2.860202420055483
-1.2154222813611981,-2.5375676642917524,-1.6985732113846415,2.9714208425824107
-1.2407979580041157,-2.512754215655557,-1.6688590029588173,3.076563655434329
-1.2659255001606713,-2.4841276567227255,-1.638093366404474,3.174258800779213
-1.2907667767278985,-2.4502704389405245,-1.6063507783966817,3.2629371372215203
-1.3152694811173038,-2.4096755763261095,-1.5737214070244665,3.340919278597321
-1.339366236880565,-2.360849179920572,-1.5403122142384933,3.4065547334553203
-1.3629747286797707,-2.3024480003897017,-1.50624666690394,3.458407879902923
-1.3859992086836677,-2.233435545053799,-1.4716625881049108,3.4954676924966996
-1.4083335641342056,-2.153227159526931,-1.436707911179944,3.517340132928015
-1.429865835729475,-2.061787672245896,-1.4015345098506637,3.5243731341533966
-1.4504837124519339,-1.9596512506416695,-1.3662907785091298,3.5176730256395925
-1.4700802249583504,-1.8478529447615384,-1.331114048252734,3.4989991664997535
-1.4885587544059657,-1.7277875910815652,-1.2961240565877363,3.470559966861361
-1.5058366303167814,-1.601032057779379,-1.2614184569191227,3.434761267774701
-1.5218469508945751,-1.4691721852595419,-1.2270708442413756,3.3939647819773544
-1.5365386727471706,-1.333666108006618,-1.193131196421602,3.3503001212056533
-1.5498753338272369,-1.1957583916744758,-1.1596281952095455,3.3055494804796046
-1.5618329177439816,-1.0564434141604102,-1.1265727004047494,3.261101690136064
-1.5723973518855856,-0.9164667680208463,-1.0939616835033887,3.217959106819545
-1.581562019565794,-0.7763506007453189,-1.0617820924351933,3.176777149660248
-1.5893255255732472,-0.6364304799934932,-1.0300143209385908,3.137918922445205
-1.5956898303731821,-0.4968949136842795,-0.9986351317141388,3.101512526908895
-1.6006587795100249,-0.35782223164054583,-0.9676200064450498,3.0675037942196095
-1.6042370018264303,-0.2192123043210897,-0.9369449685028537,3.035701085784171
-1.6064291248696412,-0.08101237790295682,-0.906587957645012,3.005811346992456
-1.6072392486486708,0.056862689884353834,-0.8765298441750874,2.9774679921737532
-1.6066706217498272,0.19451505247897874,-0.8467551642533498,2.9502518185922093
-1.6047254712250374,0.33205248796553183,-0.8172526460674278,2.9237063062671558
-1.601404946345382,0.46958018095640996,-0.7880155830047562,2.8973485809961286
-1.596709144535818,0.6071949705644969,-0.7590420971947949,2.870677137889409
-1.590637194830173,0.7449815019110333,-0.7303353258159008,2.8431772182865584
-1.5831873798110627,0.8830098507842861,-0.7019035536330351,2.8143245412843165
-1.5743572813032198,1.021334304401939,-0.673760308220192,2.7835879268462875
-1.5641439382592004,1.1599930729713752,-0.6459244289517291,2.7504312133295463
-1.5525440075294867,1.2990087781228221,-0.6184201168184336,2.714314765511613
-1.5395539197482586,1.4383896180729618,-0.5912769691633174,2.674696785101123
-1.525170023567529,1.5781311486036416,-0.5645300013123061,2.6310345693073707
-1.5093887120814926,1.7182186463779303,-0.5382196556192325,2.5827858099421124
-1.4922065256177133,1.8586300390595127,-0.5123917975198113,2.5294099822214395
-1.4736202252271182,1.9993393969539555,-0.4870976976975969,2.4703698363593576
-1.4536268312575786,2.1403209848052835,-0.4623939993340033,2.4051329745543883
-1.4322236214095259,2.2815538709133407,-0.43834266958845947,2.3331734703154394
-1.4094080827003925,2.423027084463944,-0.41501093488530505,2.2539734663995694
-1.3851778118557532,2.5647453010504413,-0.3924712002213094,2.1670246730534735
-1.3595303588452488,2.7067350204472187,-0.37080095349077463,2.071829682004869
-1.3324630086407765,2.849051178637933,-0.3500826566707259,1.9679030174223457
-1.303972496854397,2.99178410558015,-0.33040362649650246,1.854771868503397
-1.2740546557985957,3.1350666970093046,-0.3118559078114685,1.7319764979410703
-1.2427039888285025,3.279081605604418,-0.2945361428320578,1.5990704089524566
-1.2099131727724584,3.424068162286885,-0.27854543874253324,1.4556204999125735
-1.1756724911495895,3.5703285933406597,-0.2639892337434075,1.30120766879783
-1.139969205216183,3.71823287339962,-0.25097715705542917,1.1354286934441213
-1.1027868764821867,3.8682212013416484,-0.23962287012098796,0.9579007745519076
-1.0641046644687702,4.020802534104354,-0.2300438623754689,0.7682709864038708
-1.0238966391277267,4.1765467553474,-0.22236115251143018,0.5662341828774033
-0.9821311715742527,4.3360667378188475,-0.21669881068265615,0.35156486320381464
-0.9387705041960642,4.499984573333528,-0.213183162050618,0.12417139090192642
-0.893770658462729,4.668873350052229,-0.21194144814159874,-0.11581490298084998
-0.8470819249622067,4.843161862547804,-0.21309959717140722,-0.36789759046499493
-0.7986503063367286,5.022984667689734,-0.21677857307605716,-0.6309950147566173
-0.7484204596598313,5.207955025560091,-0.22308852322362333,-0.9031107707111299
-0.6963409094042303,5.39683688923224,-0.23211963093073462,-1.1808624319483192
-0.642372540511908,5.587102376483574,-0.2439282552502178,-1.458852394234021
-0.5865015167470722,5.774398926968893,-0.258516779192558,-1.7289208619398622
-0.5287575274773832,5.952038777376923,-0.27580598781195664,-1.9794499051605432
-0.469237139703614,6.11077722693024,-0.29560048686356205,-2.1951093327853104
-0.4081293674343116,6.239321321461472,-0.31755158019141516,-2.3576850842857406
-0.3457361542196969,6.326025368341263,-0.3411284310342726,-2.44864698249677
-0.28247590053628424,6.361781494623896,-0.3656149008592403,-2.4534606989598053
-0.21885808559004527,6.343133558548317,-0.39014950784883834,-2.3662303734797425
-0.1554267500045621,6.273851219477336,-0.4138118115836358,-2.1921067737818194
-0.09268823780978874,6.163766483743404,-0.435732879321454,-1.9456948092652568
-0.031050572972354695,6.025518487679373,-0.4551898274141066,-1.6463501095783384
0.029204611904439036,5.871149836145275,-0.47165332850988995,-1.3131595198179418
0.08791611026589179,5.710045608024669,-0.48478492370806936,-0.9617969488655231
0.14501656634613846,5.5484120776250485,-0.4944028931967246,-0.6035980671069402
0.20050068712238894,5.38970292613986,-0.500438873867794,-0.24603902757360868
0.25439771638378755,5.235361513866691,-0.50289926414353,0.10628257025891846
0.3067513315224545,5.085518462544994,-0.5018364384409408,0.4506945462695628
0.3576065161479044,4.939521605605227,-0.4973294929782452,0.7857166856331452
0.4070017322039567,4.796297194720415,-0.4894723261219137,1.1105605330520052
0.45496470415116086,4.654581192627803,-0.47836672079139364,1.4248140390286563
0.5015105160774389,4.51306186082166,-0.4641185804011071,1.728255526104985
0.5466411346856554,4.37046553859286,-0.44683602514005727,2.020752338782655
0.590345790071584,4.225607275230624,-0.4266285017522307,2.30221274642664
0.6326018628238903,4.077420000206302,-0.4036063742879643,2.572570289540276
0.6733760628259533,3.9249704639863845,-0.37788067139256154,2.8317871725960186
0.7126257674658172,3.767466705335615,-0.34956279966660136,3.0798681539078006
0.7503004345191733,3.6042596871630117,-0.31876411812752337,3.3168794618724093
0.7863430313908034,3.434840517233379,-0.2855953235087993,3.5429692118051888
0.8206914365631373,3.2588340070140314,-0.25016563139074743,3.758387043814562
0.8532797766332776,3.0759890102081857,-0.2125817609526018,3.963501525554758
0.8840396667353595,2.886165888132076,-0.17294674569705423,4.158814428372375
0.9129013256166802,2.6893214885236643,-0.13135860141333047,4.3449713809758235
0.9397945405019169,2.485492147909376,-0.08790888760357224,4.5227686716672055
0.9646494619810106,2.2747754104282514,-0.04268120088690018,4.693156114670936
0.9873972160852932,2.057311394713267,0.004250360259809183,4.85723589792666
1.0079703300324259,1.833265054329082,0.052822719239075784,5.016257143272176
1.0263029805757167,1.6028110128827977,0.10298529067179754,5.17160545939795
1.0423310907045447,1.3661232941327397,0.15470134526577706,5.324785936256934
1.0559923236458721,1.1233732384454918,0.2079492046283464,5.477396641655011
1.067226056030327,0.8747403854958894,0.2627231710448965,5.631087484109579
1.075973459885286,0.6204433539918234,0.3190340458859923,5.787495962083651
1.0821778934252042,0.36080103133755864,0.3769090055068288,5.948146441809028
1.0857859037385797,0.09633885295384081,0.4363904699249191,6.114292938437419
1.0867492922681181,-0.1720397551934244,0.4975333993092933,6.286677323052459
1.085028894716184,-0.4427923920326425,0.5604001725398179,6.465167800978391
1.0806009707958575,-0.7133646776339897,0.6250518505496018,6.648243415970785
1.0734673240195176,-0.9797026769229655,0.6915342847093097,6.832315385333103
1.063670297250288,-1.235707489511801,0.7598574385626407,7.010954848374935
1.05131322235517,-1.4728135024253564,0.82996698704639,7.17426599041396
1.0365850873309164,-1.6800615738729172,0.9017096469505297,7.308904980059423
1.019784471592187,-1.845188661996955,0.974798696751124,7.399457797237279
1.0013325849722174,-1.957083637539051,1.0487932747234967,7.43166698065684
0.981761748596827,-2.009165137277385,1.1231099445300652,7.396924116485089
0.9616700972240532,-2.0021028717434275,1.1970791856949161,7.295903197011295
0.9416490685066189,-1.9440450447411364,1.2700382176650291,7.138861681058808
0.9222086180592075,-1.8480037052192446,1.3414268344756173,6.94216251524011
0.903728581007015,-1.7280421658861818,1.4108484596280184,6.723254261355987
0.8864481593481532,-1.5963173181247408,1.4780810022415782,6.496855821129074
0.8704849861669058,-1.4618214116151245,1.543049560452869,6.273429033622667
0.8558667720507546,-1.330451328955681,1.6057838507890956,6.059392694952575
0.8425622587611977,-1.2056771177036196,1.6663777777386213,5.858085098616443
0.8305054875841615,-1.0892936803461784,1.7249586287247858,5.670792299311578
0.8196125507806997,-0.9820336844527742,1.7816665517179016,5.49756203562986
0.809792213936172,-0.8839996491864176,1.8366421720742,5.33776186736227
0.8009522174443078,-0.7949445756707126,1.890019790747823,5.1904303456077505
0.7930027716876007,-0.7144448134602507,1.9419240942039004,5.054484672922124
0.7858583235529982,-0.6420023176886369,1.9924689409331218,4.928836677684379
0.7794383003761118,-0.5771027932993056,2.0417573077099656,4.812453112760812
0.7736672724431188,-0.5192471220168831,2.0898818388375737,4.7043833888917295
0.76847480122295,-0.4679669939800265,2.136925672726491,4.603768918149237
0.7637951312831497,-0.4228314236749268,2.1829633619079836,4.509842511768219
0.7595668170464004,-0.3834481656144736,2.228061787025666,4.421922750617015
0.7557323353902556,-0.34946241090638275,2.272281014531836,4.339406130201614
0.7522377112811918,-0.3205541568586847,2.3156750758338522,4.26175853270085
0.7490321697126049,-0.2964350484292505,2.358292661160861,4.188506850875103
0.7460678192283123,-0.27684513675229966,2.4001777296696116,4.11923117095796
0.7432993678607893,-0.2615497907807086,2.4413700413791912,4.053557686396976
0.7406838699529822,-0.2503368754917894,2.481905618243161,3.9911523857274145
