th1 (rad),w1 (rad/s),th2 (rad),w2 (rad/s)
2.4683557989177882,-2.5036387222517607,2.547129455453712,3.085495474435305
2.4433194116952706,-2.5583845060779824,2.577984410198065,3.0802526147248646
2.417735566634491,-2.6101314110370604,2.6087869363453136,3.0703878643018205
2.39163425252412,-2.658709863162835,2.639490814988332,3.0553662443128506
2.3650471538924918,-2.704134720733759,2.6700444774314605,3.0348970828563036
2.338005806685154,-2.746599212490111,2.7003934482600234,3.008925385383416
2.310539814560253,-2.7864489890802373,2.7304827021138576,2.9775952886837733
2.2826753246694507,-2.8241433914005327,2.7602586550006953,2.941195370693072
2.2544338907554455,-2.86021239825312,2.789670608707626,2.9000975312306725
2.2258317667729144,-2.895216600201263,2.818671584019933,2.854699648672236
2.196879600770902,-2.9297149647862732,2.8472185805066554,2.8053786536869865
2.1675824511230393,-2.9642423213127467,2.875272367043525,2.752456730239259
2.1379400279099117,-2.999296256148711,2.902796934345918,2.6961802492066296
2.1079470653484247,-3.035331794361389,2.929758736837984,2.6367092131570673
2.0775937474048107,-3.072761764547987,2.956125828969555,2.574114325048744
2.046866129759331,-3.1119608293954952,2.9818669722200424,2.50837891318796
2.015746521465376,-3.153271533407729,3.006950761351922,2.4394034600195917
1.9842138061312986,-3.1970111648096378,3.0313447959521183,2.367011107509274
1.9522436944832022,-3.2434786333658123,3.055014907027211,2.2909530850317594
1.9198089081495442,-3.2929608813284186,3.077924437877529,2.2109134608652723
1.88687929933626,-3.3457385643659383,3.1000335724861814,2.126512947787776
1.8534219136926007,-3.402090876309833,3.1212987019640592,2.0373117166107186
1.8194010049295024,-3.46229946506404,3.1416718191301665,1.9428113168935521
1.784778010278862,-3.526651415203749,3.161099932299102,1.84245589831839
1.7495114961268246,-3.5954412701400233,3.1795244912822858,1.7356329908935766
1.7135570834254243,-3.6689720437804647,3.1968808211912214,1.6216741531452008
1.6768673629876196,-3.7475551356725574,3.213097562722673,1.4998558454512296
1.639391811630894,-3.8315090197915893,3.2280961211771855,1.3694009371311933
1.6010767214329782,-3.921156529432061,3.2417901305484973,1.2294813137145693
1.5618651561386576,-4.016820512957734,3.254084943685643,1.079222114580368
1.5216969510090803,-4.118817592104861,3.264877164831447,0.9177081970822683
1.4805087750880317,-4.227449722322023,3.2740542468022698,0.7439934836413121
1.4382342778648114,-4.342993241700998,3.2814941816386827,0.5571138907922213
1.3948043454478014,-4.465685112489382,3.287065320546605,0.3561045462152484
1.3501474943229075,-4.595706120690763,3.2906263660087576,0.1400219482078253
1.304190433116,-4.73316092041556,3.2920265854908357,-0.09202841622081473
1.2568588239118443,-4.8780550059125956,3.2911063013286275,-0.3408587340379595
1.2080782738527183,-5.030268977433694,3.2876977139882477,-0.6071599502937368
1.1577755840783812,-5.189530840131863,3.2816261144853103,-0.891457979128085
1.1058802756770625,-5.355387524998662,3.2727115346940296,-1.1940664719474074
1.0523264004270758,-5.527177310877029,3.2607708699745555,-1.5150384189683805
0.9970546273183055,-5.704005291016978,3.2456204857848716,-1.8541197409013888
0.9400145744081357,-5.884724370694547,3.2270792883758577,-2.2107088021231327
0.8811673307011902,-6.067924386991975,3.2049722003546264,-2.5838262570739405
0.8204880868312705,-6.251931690650201,3.1791339377838868,-2.9720996182335346
0.7579687699247685,-6.434820838947322,3.1494129416015513,-3.373766224083356
0.6936205615352953,-6.614438906994551,3.1156752793607176,-3.786696797156411
0.6274761724653497,-6.788441428794247,3.0778083113891537,-4.208439578227317
0.5595917581774073,-6.9543373431865065,3.0357239156068805,-4.636282357138232
0.4900483847455422,-7.109538851029894,2.989361092035498,-5.067327025445146
0.41895299623524324,-7.251411126333465,2.9386878217810466,-5.498569083655175
0.34643888497190856,-7.377316646784395,2.883702130944495,-5.926973354388887
0.2726657185040646,-7.484649661985905,2.824432397400606,-6.3495373305055685
0.1978192218842056,-7.570857963258238,2.76093702409555,-6.7633352168627985
0.12211064225162321,-7.6334514488874055,2.6933036719269223,-7.165538624444783
0.045776127762749155,-7.669999672113754,2.6216482856824745,-7.553413651494344
-0.03092386895838839,-7.678123257332139,2.546114149167531,-7.924298238811713
-0.10770510153170978,-7.655486433049904,2.4668711667794136,-8.27556771446335
-0.18425996586220883,-7.599799648645279,2.3841154896347803,-8.604599894411956
-0.2602579623486616,-7.50884200412863,2.298069490690661,-8.908753557990389
-0.3353463823899479,-7.3805126656376325,2.2089819551107572,-9.185375114395196
-0.40915150904632425,-7.212918138229944,2.1171282039668053,-9.431847274954144
-0.4812806904286237,-7.004497810804215,2.0228097312172637,-9.64568995025381
-0.5513256685366659,-6.754183390471216,1.9263528317147256,-9.824716944076593
-0.618867502441378,-6.461579073353549,1.8281056622739598,-9.967242359469669
-0.6834832931749135,-6.127139813302251,1.7284332386792631,-10.072318949827206
-0.744754691307936,-5.75231712732253,1.627710049180991,-10.139979164362757
-0.8022778625811613,-5.339638478246799,1.5263102575373635,-10.1714416591901
-0.8556742473636293,-4.89269010350974,1.4245958409454624,-10.16924510523861
-0.9046011483987267,-4.415985303926558,1.3229033898930762,-10.137279526249719
-0.9487610014379924,-3.914719005863147,1.221530594630579,-10.08070274885071
-0.9879081914966238,-3.394430325933996,1.1207235671420719,-10.005752159831344
-1.0218524947559637,-2.86061181727257,1.0206660455437584,-9.919483818191846
-1.0504586129286895,-2.3183118051767257,0.92147120736184,-9.829485978570894
-1.0736417309804567,-1.7717725107789652,0.823176347576131,-9.743618622855813
-1.0913594560882462,-1.2241331535787654,0.7257401613475729,-9.66982487363008
-1.103600787624034,-0.6772084372579774,0.6290419126112721,-9.61604774783016
-1.1103728719966137,-0.13133409894848735,0.5328814351329705,-9.590271632408141
-1.1116862129860985,0.4147431607429539,0.43697871880888906,-9.600696326035822
-1.107538781378669,0.9639613857962593,0.3409717555485308,-9.65604399051793
-1.0978991675207064,1.52105276416195,0.24441131564335153,-9.765993015222383
-1.082688639879087,2.0926779093852548,0.1467513854911277,-9.941717082287425
-1.0617618607852344,2.687547122534963,0.04733421466825345,-10.19645502675193
-1.0348863895598848,3.316360309536343,-0.05463033559926586,-10.545876521352339
-1.0017227864645213,3.9910558983814366,-0.16008910081278926,-11.00755840343449
-0.9618122274807069,4.721989894571114,-0.2701646848471342,-11.597702240282304
-0.9145923285349958,5.509626481360425,-0.3861417072499572,-12.320394772913772
-0.8594960637213915,6.323622617214998,-0.5093456549790949,-13.139498288047898
-0.7962598375492416,7.061477966996868,-0.6407406378595739,-13.921971181625462
-0.7256450578792729,7.509463855653107,-0.7799603496758285,-14.38320368434532
-0.6505504193227418,7.428076234216337,-0.9237923865192816,-14.202403018632804
-0.5762696569805784,6.827527979419974,-1.0658164167056097,-13.397045094497791
-0.5079943771863786,6.003434969355525,-1.1997868676505876,-12.364780524241652
-0.4479600274928234,5.2021549805136935,-1.3234346728930042,-11.426465785802652
-0.3959384776876864,4.502833942897071,-1.4376993307510306,-10.675642831723517
-0.3509101382587157,3.903694970271089,-1.5444557590682657,-10.101086248151674
-0.3118731885560048,3.383678223889963,-1.6454666215497824,-9.669891275443872
-0.2780364063171052,2.922002243546895,-1.742165534304221,-9.352390656988456
-0.24881638388163624,2.502009824288644,-1.8356894408741056,-9.12621592847678
-0.2237962856387498,2.1109705762896676,-1.9269516001588733,-8.975328040283266
-0.20268657987585312,1.739198501405096,-2.016704880561706,-8.888369724623315
-0.18529459486180216,1.3792814022149098,-2.1055885778079393,-8.857273619240827
-0.17150178083965306,1.025552011612937,-2.1941613140003478,-8.876208949172057
-0.1612462607235237,0.6737822960296292,-2.2829234034920685,-8.940776551218326
-0.1545084377632274,0.32106433098885645,-2.372331169004252,-9.047350877376495
-0.15129779445333882,-0.034150139524249556,-2.462804677778017,-9.192488272786658
-0.15163929584858132,-0.3918715700497001,-2.5547295605058835,-9.372345234148089
-0.15555801154907833,-0.7502779425019894,-2.6484530128473645,-9.582077274112518
-0.16306079097409823,-1.105342142156275,-2.7442737855884896,-9.815224291922156
-0.174114212395661,-1.4504548469467882,-2.842426028507711,-10.06313846109796
-0.18861876086512888,-1.7761691828015258,-2.9430574131186904,-10.31457716717894
-0.20638045269314415,-2.0702523869475753,-3.04620318479048,-10.555654593977604
-0.2270829765626199,-2.3182632024890686,-3.151759730730256,-10.770386002338917
-0.25026560858751057,-2.50482882874623,-3.2594635907536453,-10.942009377409601
-0.2753138968749729,-2.615620616641702,-3.3688836845277415,-11.055073788796541
-0.3014701030413899,-2.6397284242866896,-3.4794344224157068,-11.097952822947992
-0.3278673872842568,-2.5718268988455075,-3.590413950645187,-11.065112345479147
-0.3535856562727119,-2.413419441438692,-3.7010650740999784,-10.958365548033335
-0.3777198506870988,-2.172685205896255,-3.8106487295803118,-10.786635557734215
-0.39944670274606137,-1.8629638805734818,-3.918515085157654,-10.564308676196648
-0.4180763415517962,-1.5004046411707213,-4.024158171919621,-10.30877287790237
-0.4330803879635034,-1.1015078767074085,-4.127245900698644,-10.037916052386855
-0.4440954667305775,-0.6811517500103161,-4.227625061222512,-9.768183126643901
-0.45090698423068065,-0.2513789398139756,-4.3253068924889515,-9.513448882955451
-0.4534207736288204,0.17907943295259954,-4.420441381318506,-9.284661577687796
-0.4516299792992944,0.6047376851882665,-4.513287997095384,-9.090050840972419
-0.4455826024474117,1.0229847500363414,-4.604188505505109,-8.935663799880514
-0.4353527549470483,1.4336088660546904,-4.693545143503914,-8.826040819657784
-0.42101666628650136,1.8383533551436604,-4.781805551700492,-8.764914240396973
-0.40263313273506474,2.24058000921889,-4.869454694104461,-8.755879100970532
-0.38022733264287584,2.6450759418539707,-4.9570134851141665,-8.8030329810149
-0.35377657322433614,3.0580175228113378,-5.045043814924315,-8.911612760978715
-0.32319639799622274,3.4870948115080607,-5.134159942534103,-9.088671944716614
-0.2883254498811421,3.9417905024210627,-5.225046661981269,-9.343840627409339
-0.24890754485693148,4.433776472032681,-5.318485068255362,-9.6901708832452
-0.20456978013660465,4.977282567763843,-5.415386777087814,-10.144923358653253
-0.1547969544589662,5.588951532731404,-5.516836010674347,-10.729686794197214
-0.09890743913165218,6.285693558509424,-5.62413287861632,-11.467849321386847
-0.036050503546557935,7.076318252583879,-5.738811371830188,-12.373652307313739
0.03471267897928085,7.936410875404575,-5.862547894903326,-13.418236827552873
0.11407678773332659,8.748943300258688,-5.996730263178854,-14.448117368495522
0.20156622073591346,9.227244302714666,-6.141211436863809,-15.078312767507274
0.2938386637630601,9.016569282985262,-6.291994564538882,-14.831170345877828
0.38400435659291277,8.149139107808598,-6.44030626799766,-13.759991745367213
0.46549574767099877,7.078232031222512,-6.577906185451332,-12.484680451976592
0.5362780679832239,6.106700016725442,-6.702752989971098,-11.406920003249372
0.5973450681504783,5.2899183809742665,-6.816822190003592,-10.591181982358673
0.650244251960221,4.6002859959323725,-6.922734009827178,-9.994505783693299
0.6962471119195447,4.001779814646471,-7.022679067664112,-9.566712658214843
0.7362649100660094,3.465494814643733,-7.11834619424626,-9.269776715705056
0.7709198582124467,2.970102219457047,-7.21104396140331,-9.077334391696297
0.8006208804070172,2.4999552339433873,-7.301817305320273,-8.971413986872863
0.825620432746451,2.043442399988791,-7.391531445189002,-8.939659241661342
0.846054856746339,1.5919118329787645,-7.480928037605615,-8.973321434146674
0.8619739750761266,1.139079741700796,-7.570661251947082,-9.065794786251333
0.8733647724931346,0.6808101245597431,-7.661319199809595,-9.211465488872886
0.880172873738732,0.21518204545352915,-7.753433854698324,-9.404714575165151
0.8823246941932673,-0.25722267695204454,-7.847481000449975,-9.638986829898917
0.8797524674237469,-0.7328901490627378,-7.943870868748965,-9.905911823849186
0.8724235659331195,-1.2049250784572823,-8.042929986987456,-10.19454874764472
0.8603743151485467,-1.6627710669679663,-8.144875474463904,-10.490923798181054
0.8437466044788671,-2.0923582401026213,-8.249784712445715,-10.778113007481691
0.8228230220778409,-2.4769506317040872,-8.357565842520533,-11.037136595224368
0.7980535157608,-2.798854350566592,-8.467937208472776,-11.248795753041215
0.770064972255134,-3.0418672382885426,-8.580425166003188,-11.396262145775868
0.7396462998722486,-3.193967912111954,-8.694387787460947,-11.467816760221265
0.7077066207511291,-3.2494650429107823,-8.80906595506316,-11.458874045060934
0.6752119703220213,-3.209892684375872,-8.923654695513768,-11.372570143776876
0.6431130434782626,-3.0833859886281143,-9.037380396951537,-11.21874195468077
0.6122791835919814,-2.8828537968689747,-9.149567816498346,-11.011755569720783
0.5834506456232916,-2.6236311213746104,-9.259685372195554,-10.767974276125834
0.5572143344095455,-2.321289665579669,-9.367365114956812,-10.50356661670043
0.5340014377537488,-1.9900214282173911,-9.472400781123817,-10.233020407956117
0.5141012234715748,-1.6417046795802992,-9.574730985203377,-9.96839870104001
0.49768417667577186,-1.285554444802858,-9.674414972213777,-9.719181646232144
0.4848286322277433,-0.92817672931005,-9.771606788676099,-9.492484514232988
0.4755468649346428,-0.5738485322901252,-9.866531633818429,-9.29346958594361
0.46980837961174154,-0.22488682909408753,-9.959466329677864,-9.125824891788838
0.46755951132080065,0.11798270648465348,-10.050724578595753,-8.992235875721063
0.4687393383856472,0.45530725587809473,-10.140646937352964,-8.894816162805268
0.47329241094442814,0.7886617675255145,-10.229595098981017,-8.835490035951647
0.4811790286196833,1.120484385380847,-10.317949999340533,-8.816334993739007
0.4923838724734918,1.453991650259689,-10.406113349277923,-8.839901331624926
0.5069237889760887,1.7931696300894475,-10.494512362594172,-8.909529566395962
0.5248554852769832,2.1428355270117865,-10.583607658258131,-9.029686418793604
0.5462838405471011,2.5087597387869773,-10.673904522446067,-9.206333512320931
0.5713714379349709,2.8978222881870073,-10.765967857569276,-9.447320679693249
0.600349660816841,3.3181301762077275,-10.860441064366208,-9.762732272706737
0.6335309625789183,3.778894992214996,-10.958068387093276,-10.164944385678846
0.6713199125010683,4.289544978791008,-11.059717830950063,-10.667710484804658
0.7142153622889783,4.856755763455078,-11.16639493579811,-11.282509298221445
0.7627829199235291,5.476357085706002,-11.279220028780324,-12.00799008419144
0.8175464907805892,6.114350175657439,-11.399299929622238,-12.804499031597842
0.8786899925371635,6.6723582042537695,-11.527344919938216,-13.546914885460831
0.9454135745797012,6.9606452481828445,-11.662814068792825,-13.987048113582956
1.0150200270615297,6.776856537483723,-11.802684549928655,-13.860128534310588
1.082788592436367,6.127768013225491,-11.94128583527176,-13.184993359511063
1.144066272568622,5.258736524350985,-12.073135768866871,-12.296830513712498
1.1966536378121317,4.3875792607774065,-12.196104074003996,-11.482612610746616
1.2405294304199057,3.5932027807310245,-12.310930200111462,-10.838267718875176
1.276461458227216,2.8790483667195605,-12.419312877300214,-10.360661873328194
1.3052519418944115,2.2276012734090385,-12.522919496033497,-10.021779190176236
1.327527954628502,1.6200042594897512,-12.62313728793526,-9.793992724783493
1.3437279972233995,1.0407307438255229,-12.721077215183094,-9.65523325679547
1.3541353046616547,0.4779412416939719,-12.817629547751048,-9.588640665968391
1.3589147170785945,-0.07707377792160375,-12.913515954410732,-9.581191175600347
1.3581439792993784,-0.6304654455223423,-13.009327866166736,-9.622417034066263
1.351839324844155,-1.1862334177343863,-13.105552036507397,-9.703410618709283
1.339976990666811,-1.7464770415823416,-13.202586142694491,-9.816091197281812
1.3225122202509876,-2.3115416629606065,-13.300747054667308,-9.952686217102222
1.2993968036213814,-2.8801164526330605,-13.40027391683833,-10.105394697861952
1.2705956390950508,-3.4493373405641234,-13.50132786381695,-10.266218791511788
1.2361022656894096,-4.014942510214831,-13.603990051732069,-10.426959948668642
1.1959528405872613,-4.571516787582743,-13.708259651218755,-10.579375004149567
1.1502376727114338,-5.1128428377678485,-13.814053401260251,-10.71547446220699
1.0991092443337553,-5.632351247252875,-13.921208145882321,-10.827923103763046
1.0427857318612266,-6.123632151524724,-14.029487376919953,-10.910478492739172
0.9815494103459793,-6.580945832401917,-14.138592161847344,-10.958385918127638
0.9157399520219601,-6.999657923450636,-14.24817602102862,-10.968648477339178
0.8457433727874537,-7.376532895689425,-14.35786250580201,-10.940112985239907
0.7719780438305595,-7.709846737802133,-14.46726363565441,-10.873352048195114
0.6948795764525382,-7.99931772225036,-14.575997156136362,-10.770367763313546
0.6148863992300345,-8.245890056359343,-14.683700833769498,-10.634178220309051
0.5324274986664411,-8.451427948977654,-14.790042615972588,-10.468363864625847
0.4479132191766646,-8.618382520930718,-14.894726254618847,-10.276645144514546
0.3617293939673574,-8.749483643436726,-14.997492706063992,-10.06254201069599
0.2742345575329902,-8.847490201453706,-15.098118126170952,-9.829139566588495
0.18575965551845314,-8.915012838360175,-15.196409521836838,-9.578960963624764
0.09660952713485138,-8.954407931697238,-15.292199131473085,-9.313933051780806
0.007065447817879003,-8.967732232436289,-15.385338461990893,-9.035422944477995
-0.08261187450648388,-8.956743762053344,-15.475692691435672,-8.744322706805916
-0.17217931212701731,-8.922934566538292,-15.56313591850373,-8.44116221249034
-0.26140865779240025,-8.867583007990662,-15.647547540628635,-8.126234546710714
-0.35008448787230684,-8.791816055955717,-15.728809886095743,-7.799722626338836
-0.438002648431864,-8.696674666393816,-15.806807112359131,-7.4618191813857075
-0.5249693950958021,-8.58317739506827,-15.881425304172987,-7.1128346539842005
-0.6108011690464848,-8.45237877966879,-15.95255365071283,-6.753289017832681
-0.6953249568431727,-8.305419820217951,-16.020086540891157,-6.383984264778359
-0.7783791550453523,-8.143568267678104,-16.08392638353894,-6.006054678190516
-0.8598148377221333,-7.96824661833227,-16.143986930320846,-5.620992355723631
-0.939497303905456,-7.7810459352651264,-16.200196853878083,-5.230646061096128
-1.0173077632581073,-7.583724077346902,-16.252503314489044,-4.837192595916713
-1.0931450040315764,-7.378187740081361,-16.30087524044821,-4.443081573531011
-1.16692688143239,-7.166458922450473,-16.34530605618352,-4.050956654234801
-1.2385914706568948,-6.950627917985675,-16.385815622725868,-3.6635586814321868
-1.3080977498367514,-6.732796451016524,-16.42245120954019,-3.2836183078469565
-1.3754257143469166,-6.515015830398106,-16.455287392618658,-2.9137471357894302
-1.4405758726508977,-6.2992256736735595,-16.484424863976553,-2.5563367201525686
-1.5035681293876333,-6.087198670447849,-16.509988231178077,-2.2134738226033472
-1.5644401160921118,-5.880495984089608,-16.53212296940411,-1.8868781798168743
-1.623245075933008,-5.6804364015093185,-16.55099175120228,-1.5778661501766433
-1.6800494399481012,-5.488080534606483,-16.566770412704045,-1.2873404866985183
-1.734930245294166,-5.304229602790812,-16.579643817571032,-1.0158037072371704
-1.7879725413220742,-5.129436881741383,-16.589801854643405,-0.7633905135764159
-1.839266910139488,-4.964028969402041,-16.59743575977917,-0.5299136432134268
-1.8889071998335085,-4.8081336383287905,-16.602734896211306,-0.314917390461664
-1.9369885362167965,-4.661711141074799,-16.605884070115923,-0.1177336103504982
-1.9836056476275445,-4.524586271714018,-16.60706140621943,0.06246395482730854
-2.0288515103446847,-4.3964791036338475,-16.606436766671155,0.22660998212975525
