th1 (rad),w1 (rad/s),th2 (rad),w2 (rad/s),a1 (rad/s^2),a2 (rad/s^2)
0.36441248079312766,-1.5404763036747,4.3162737571888785,-2.1463691991663936,-1.905651002837214,9.446804129714096
0.3490077177563807,-1.5595328137030722,4.294810065197215,-2.0519011578692528,-1.5182849484935947,9.656545312573853
0.33341238961934994,-1.5747156631880082,4.274291053618522,-1.9553357047435143,-1.1417142812722494,9.856080366734
0.31766523298746985,-1.5861328060007307,4.254737696571087,-1.8567749010761743,-0.7768672185161107,10.044542169420255
0.30180390492746256,-1.5939014781858918,4.236169947560325,-1.7563294793819717,-0.42461114109443604,10.221196006970725
0.2858648901456036,-1.5981475895968362,4.218606652766505,-1.6541175193122644,-0.08575633622804836,10.385427019024025
0.26988341424963525,-1.5990051529591167,4.202065477573383,-1.550263249122024,0.23894018793524396,10.536728958653255
0.2538933627200441,-1.5966157510797643,4.186562845082163,-1.4448959595354915,0.5487712581764875,10.674694637242224
0.23792720520924646,-1.5911280384979993,4.172113885486808,-1.3381490131630693,0.8430767919631259,10.79900827288468
0.22201592482426646,-1.5826972705783682,4.158732395355178,-1.2301589304342224,1.1212419669790337,10.909439814527571
0.2061889521184828,-1.571484850908578,4.1464308060508355,-1.1210645322889468,1.38269640647605,11.005841179262704
0.190474103609397,-1.5576578868438173,4.135220160727946,-1.0110061204963197,1.6269143799560195,11.088144223590213
0.17489752474095885,-1.5413887430442572,4.125110099522983,-0.9001246782604175,1.8534159296946344,11.156360175801266
0.15948363731051626,-1.5228545837473109,4.116108852740378,-0.7885610765024049,2.061768761181788,11.210580188766562
0.14425509147304316,-1.502236896135493,4.108223241975354,-0.6764552746147393,2.2515906815075697,11.250976631633394
0.12923272251168824,-1.4797209893204173,4.101458689229207,-0.5639455082984054,2.422552334791864,11.277804724986705
0.11443551261848407,-1.4554954659724986,4.095819234146223,-0.45116746104853833,2.574379967654643,11.291404135342182
0.09988055795875908,-1.4297516662959522,4.091307559535737,-0.3382534196951165,2.706857959275804,11.29220017868604
0.08558304129579956,-1.402683086703194,4.087925025338786,-0.22533141790825612,2.8198308678511377,11.280704335490347
0.07155621042876763,-1.3744847780246827,4.085671711159704,-0.11252437455335265,2.9132047756424284,11.25751384684511
0.0578113626485208,-1.3453527302682584,4.084546467414171,5.076391509846456e-05,2.9869477553068706,11.223310238244915
0.04435783534583822,-1.3154832527151896,4.084546975053322,0.11228386629754762,3.041089327448075,11.178856699173421
0.03120300281868632,-1.285072359440709,4.085669813716297,0.22407243328928184,3.0757188299331566,11.124994328091093
0.018352279224279233,-1.2543151711413774,4.08791053804919,0.33532237657019276,3.09098267013653,11.062637329300724
0.005809127512865459,-1.2234053444400121,4.091263761814892,0.4459487498632,3.087080478844956,10.99276731663989
-0.006424925931534663,-1.1925345396515625,4.095723249313524,0.5558764230295989,3.064260226468993,10.916426936074721
-0.01835027132805029,-1.1618919373868726,4.10128201354382,0.6650406923903461,3.0228123963901563,10.834713063069175
-0.029969190701919016,-1.131663813422971,4.107932420467723,0.7733878230210379,2.963063335304767,10.748769860139
-0.04128582883614873,-1.1020331800699235,4.115666298697933,0.8808755216224279,2.8853679155440632,10.659781995345906
-0.05230616063684797,-1.0731795009144829,4.124475053914157,0.987473341575887,2.790101649438403,10.568968324647104
-0.0630379556459928,-1.0452784844200989,4.134349787329916,1.093163024822358,2.67765239131155,10.477576331762737
-0.07349074049019379,-1.0185019605069834,4.14528141757814,1.1979387881399854,2.5484117495755747,10.386877600917803
-0.08367576009526362,-0.9930178430112276,4.15726080545954,1.3018075641491635,2.4027663109342017,10.298164573181639
-0.0936059385253759,-0.9689901799018856,4.170278881101032,1.40478920988098,2.2410887523994503,10.212748809050261
-0.10329584032439475,-0.9465792923778912,4.1843267731998415,1.5069166979714825,2.063728886278488,10.131960951232287
-0.11276163324817366,-0.9259420035151062,4.199395940179556,1.6082363074838053,1.8710046500724706,10.057152554931742
-0.12202105328332473,-0.9072319570143815,4.215478303254394,1.7088078330331227,1.6631930188223987,9.989699930541008
-0.13109337285346853,-0.8906000268261576,4.232566381584725,1.8087048323385329,1.4405207831684987,9.931010127374785
-0.1399993731217301,-0.8761948189944726,4.250653429908111,1.9080149336122807,1.2031551034437502,9.882529178158807
-0.14876132131167483,-0.8641632679600351,4.2697335792442335,2.006840225393869,0.9511937195900403,9.845752723080427
-0.15740295399127519,-0.8546513307641347,4.289801981498172,2.105297752624673,0.6846546696830417,9.822239139236856
-0.16594946729891652,-0.8478047840673043,4.310854959024419,2.2035201440170415,0.40346534771833514,9.813625315325119
-0.17442751513958957,-0.843770130590121,4.332890160464589,2.3016563971702926,0.10745071592068188,9.821645230298731
-0.18286521644549078,-0.8426956234309141,4.355906724436292,2.39987284947328,-0.20367951892595537,9.848151514740907
-0.19129217267979992,-0.8447324186201737,4.379905452931025,2.498354364620689,-0.5303449471612208,9.895140188738512
-0.19973949686600165,-0.8500358680917859,4.404888996577232,2.5973057665080743,-0.8731098678496412,9.964778770257542
-0.2082398555469195,-0.8587669667702823,4.430862054242313,2.6969535542106495,-1.232700158499066,10.059437917813373
-0.21682752521462234,-0.871093968355273,4.45783158978442,2.7975479333887834,-1.6100215747930513,10.181726685875196
-0.22553846489817508,-0.8871941841032035,4.485807069118308,2.8993652002475354,-2.0061792531682587,10.334531291771599
-0.23441040673920713,-0.9072559766348861,4.514800721120783,3.0027105131652516,-2.4224978595493454,10.521056956757766
-0.24348296650555598,-0.9314809552303795,4.544827826252435,3.107921082732829,-2.8605412923412907,10.744871792767627
-0.2527977760578598,-0.9600863681537924,4.575907037079763,3.2153698006605054,-3.322129988232054,11.00995070355607
-0.2623986397393977,-0.993307668036113,4.608060735086368,3.325469307696066,-3.8093525083768176,11.320715605360895
-0.27233171641975884,-1.0314011931198812,4.641315428163328,3.4386764637496747,-4.324565904987123,11.68206555172409
-0.28264572835095764,-1.0746468521697525,4.675702192800825,3.555497119266916,-4.87037591886409,12.099385939969254
-0.29339219687265516,-1.1233506113583935,4.711257163993494,3.6764909786666085,-5.4495826045577775,12.578518884119225
-0.3046257029862391,-1.1778464374039712,4.74802207378016,3.8022761675078005,-6.065068374079848,13.125665483733716
-0.3164041673602788,-1.2384971211447697,4.786044835455239,3.933532822345138,-6.7195919109006494,13.747172633092047
-0.32878913857172654,-1.3056930402537763,4.82538016367869,4.071004548676059,-7.415430213375042,14.44912840313983
-0.3418460689742643,-1.3798473423875268,4.866090209165451,4.2154958327074565,-8.153778151258805,15.236645212149876
-0.35564454239813953,-1.461385123900115,4.908245167492526,4.367862284828956,-8.93376471454493,16.11264092839347
-0.3702583936371407,-1.5507227710455642,4.951923790340815,4.528988694112891,-9.750870541004353,17.075824449693847
-0.38576562134759634,-1.6482314764556079,4.997213677281944,4.699746938609829,-10.5944258132542,18.11744419004875
-0.4022479361121524,-1.75417573458815,5.044211146668042,4.880921380510316,-11.443732073663023,19.216164670252457
-0.4197896934580339,-1.8686130553247802,5.093020360473145,5.073083027212841,-12.262212883405768,20.33023232824978
-0.4384758240112817,-1.9912351841588378,5.143751190745273,5.276385350495339,-12.98895436078116,21.386007384045357
-0.45838817585287006,-2.1211247277666496,5.196515044250226,5.490245424335792,-13.527308905701519,22.262329806016734
-0.47959942313053655,-2.256397816823665,5.251417498493584,5.712868722395959,-13.731483135983071,22.771850780393446
-0.5021634012987732,-2.3937126481834956,5.308546185717544,5.940587230199894,-13.395247882742165,22.644830492433965
-0.5261005277806082,-2.527665127010917,5.367952058019543,6.167035535124233,-12.25327830799022,21.529643579137314
-0.5513771790507174,-2.6501979100908195,5.429622413370785,6.382331970915606,-10.014572159533895,19.036601612413694
-0.5778791581516256,-2.7503436316861585,5.493445733079941,6.572697987039743,-6.451514575933445,14.857566249120413
-0.6053825944684872,-2.814858777445493,5.559172712950338,6.721273649530947,-1.5480430818294657,8.966397607529021
-0.6335311822429421,-2.8303392082637875,5.626385449445648,6.810937625606238,4.352969831449425,1.8183320513931716
-0.66183457432558,-2.7868095099492933,5.69449482570171,6.829120946120169,10.536295373167004,-5.63400649091391
-0.689702669425073,-2.6814465562176233,5.762786035162912,6.77278088121103,16.133619476351193,-12.24163714926911
-0.7165171349872492,-2.5201103614541114,5.830513843975022,6.650364509718339,20.475293543848352,-17.136806374540136
-0.7417182386017903,-2.3153574260156278,5.897017489072206,6.478996445972938,23.317176020394623,-20.033876677014455
-0.7648718128619466,-2.0821856658116817,5.961807453531935,6.2786576792027935,24.804728545284515,-21.16985412884376
-0.7856936695200635,-1.8341383803588367,6.024594030323963,6.066959137914356,25.278993839025304,-21.034015952248442
-0.8040350533236519,-1.5813484419685837,6.085263621703107,5.856618978391872,25.097286265560353,-20.124242717588903
-0.8198485377433378,-1.3303755793129801,6.143829811487026,5.655376551215983,24.543269658392877,-18.828876422828348
-0.8331522935364676,-1.0849428827290513,6.200383576999186,5.467087786987699,23.809537911135774,-17.407612878366095
-0.8440017223637581,-0.8468475036176935,6.255054454869063,5.293011658204039,23.013391704971284,-16.01623825609829
-0.8524701973999351,-0.6167135865679806,6.307984571451103,5.132849275643056,22.219676921625567,-14.73948632483217
-0.858637333265615,-0.39451681735172495,6.359313064207533,4.985454412394734,21.460047399608037,-13.617967877510374
-0.8625825014391322,-0.17991634335564458,6.40916760833148,4.84927473361963,20.746475441025755,-12.666661688097816
-0.8643816648726886,0.027548411054612976,6.457660355667676,4.722608116738652,20.079903653834602,-11.886493248156059
-0.8641061807621425,0.228347447592959,6.504886436835063,4.603743184257091,19.455506889002844,-11.271176840496453
-0.8618227062862129,0.42290251648298743,6.550923868677634,4.4910314158521265,18.86579046712451,-10.811079334064774
-0.857593681121383,0.6115604211542325,6.595834182836155,4.382920622511479,18.302372638984703,-10.495301252369078
-0.8514780769098407,0.7945841475440796,6.63966338906127,4.277967609987789,17.756989824985084,-10.31272592337889
-0.8435322354343999,0.9721540457939304,6.682443065161148,4.174840350754,17.22205141963592,-10.252488945981717
-0.8338106949764607,1.1443745599902897,6.724191468668688,4.072315461294183,16.69093697308984,-10.304134072019776
-0.8223669493765577,1.311283929721188,6.76491462328163,3.969274120573985,16.15814714142546,-10.457609907016368
-0.8092541100793459,1.4728654011354427,6.80460736448737,3.864698021503821,15.619371422398247,-10.703196147448121
-0.7945254560679914,1.6290591153594252,6.843254344702408,3.75766606002934,15.071507385521505,-11.031409814996094
-0.7782348649143972,1.7797741892146401,6.880831005302701,3.6473519618793793,14.512649787084527,-11.432919704185338
-0.7604371230222507,1.9249006870854855,6.917304524921495,3.533022764837526,13.942058764762836,-11.898484242825967
-0.7411881161513959,2.0643212747331137,6.95263475256987,3.4140379224092663,13.360111341763991,-12.418920216417048
-0.7205449034040647,2.1979223881507535,6.986775131793963,3.2898487202450957,12.768238024108687,-12.985105051474509
-0.6985656795225572,2.32560476839184,7.019673618996414,3.1599976697303505,12.168845324420547,-13.588012297984747
-0.6753096318386388,2.4472932216360457,7.051273595693718,3.024117546750503,11.56522497100461,-14.218777881001799
-0.6508366996222783,2.562945471346092,7.081514771161222,2.881929767940485,10.961450975333271,-14.868793220419716
-0.6252072449088174,2.6725599810994245,7.110334068840627,2.7332418357362878,10.362266384922835,-15.529820250117822
-0.5984816450978232,2.776182644948653,7.13766648719799,2.5779436332351096,9.772962274845389,-16.19412261254543
-0.5707198186483367,2.873912267697107,7.1634459235303405,2.416002407109655,9.199252213592553,-16.854606827807615
-0.5419806959713656,2.9659047898330324,7.187605947601437,2.247456338831579,8.64714599439774,-17.504967028597548
-0.5123216480730353,3.05237624977701,7.210080510989752,2.0724066685456033,8.122826790337031,-18.139826911656623
-0.48179788557526515,3.1336045176803804,7.230804577675208,1.891008399429037,7.632536024906767,-18.754872873738048
-0.4504618403984613,3.209929877929448,7.249714661669499,1.7034596706916565,7.182470114194077,-19.346972848313232
-0.41836254161916686,3.281754579071389,7.266749258376415,1.5099899422085241,6.778692802981855,-19.914276082890378
-0.385544995828453,3.3495415071012076,7.281849157798501,1.3108471813796203,6.4270660558054855,-20.456289899765206
-0.3520495807574409,3.4138121676592625,7.294957629612297,1.1062842823819683,6.1332013361156825,-20.97393021432679
-0.3179114590808483,3.4751441810204193,7.306020472436116,0.8965449802387004,5.902431547817733,-21.469543019335642
-0.2831600172706441,3.5341684964985967,7.314985922238503,0.681849550045344,5.739801807414289,-21.94689385235798
-0.24781833230565814,3.5915665145727393,7.3218044177389565,0.46238061152176413,5.650074351880477,-22.41112096951838
-0.21190266715993075,3.6480672580915443,7.326428223854174,0.23826940182658032,5.637738897430005,-22.868644851203637
-0.1754219945790153,3.7044446470658445,7.32881091787244,0.009582953314543952,5.707014015452013,-23.32702071733027
-0.13837754810835687,3.7615147872203645,7.328906747405585,-0.22368725385875876,5.861816534034109,-23.794710340029155
-0.10076240023615322,3.8201329525607055,7.326669874866997,-0.46163435725905033,6.105662906091416,-24.28073216641567
-0.06256107071054617,3.8811895816216198,7.322053531294407,-0.7044416789232071,6.441446224229134,-24.794120853916375
-0.023749174894329976,3.945604043863911,7.315009114505175,-0.9523828874623709,6.871001003451797,-25.34308311603547
0.015706865544309133,4.014314053898429,7.305485285630551,-1.2058137186227256,7.394319010263838,-25.933668070553374
0.05585000608329343,4.088257244001068,7.293427148444324,-1.4651503993282593,8.008205284777368,-26.567666135432297
0.09673257852330411,4.168339296848841,7.278775644451041,-1.7308270606825822,8.70405528430481,-27.23929900301754
0.13841597149179252,4.255379849691889,7.261467373844216,-2.0032200507127578,9.464287561578246,-27.930059006666276
0.18096976998871142,4.350022725307672,7.241435173337088,-2.2825206407794205,10.256798125564679,-28.600823284545246
0.22446999724178815,4.452590706563319,7.218609966929294,-2.568528873624873,11.026691075562905,-29.180217704079816
0.2689959043074213,4.562857617318948,7.192924678193045,-2.860331050665671,11.684716785275018,-29.54846378417497
0.3146244804806108,4.679704785171698,7.164321367686389,-3.155815688507421,12.09286581739598,-29.517384702128005
0.36142152833232777,4.800633443345658,7.132763210801315,-3.450989535528701,12.05049731768952,-28.81137993765475
0.40942786276578436,4.921138416522553,7.098253315446028,-3.7391033349052485,11.290698250232357,-27.063062556456956
0.4586392469310099,5.034045399024877,7.060862282096975,-4.009733960469818,9.506525047064283,-23.851211807025052
0.5089797009212587,5.129110649495519,7.020764942492277,-4.248246078540069,6.434248337926165,-18.81905807608411
0.5602708074162138,5.193453132874781,6.978282481706876,-4.4364366593009095,2.0057965234501687,-11.889625202008913
0.6122053387449616,5.213511098109283,6.933918115113867,-4.555332911320999,-3.480847268251921,-3.505222561474113
0.6643404497260544,5.178702625426764,6.888364786000657,-4.5903851369357405,-9.314886080645797,5.308985121810423
0.7161274759803221,5.085553764620306,6.8424609346312995,-4.5372952857176365,-14.58151225417721,13.242923508396945
0.7669830136265252,4.939738642078534,6.797087981774123,-4.404866050633667,-18.54817151012711,19.249559954903102
0.8163804000473105,4.754256926977263,6.753039321267786,-4.212370451084636,-20.940102157035238,22.935078055413708
0.8639229693170831,4.54485590540691,6.71091561675694,-3.983019670530499,-21.91908885221661,24.52849711708351
0.9093715283711522,4.325665016884744,6.671085420051635,-3.737734699359664,-21.867751776995625,24.57563622788895
0.9526281785399997,4.106987499114788,6.633708073058038,-3.4919783370807744,-21.18370254184201,23.64654050241093
0.9936980535311476,3.8951504736963676,6.5987882896872305,-3.255512932056665,-20.177293561674915,22.189314772708617
1.0326495582681112,3.6933775380796185,6.5662331603666635,-3.033619784329579,-19.054165948571203,20.504198506202805
1.0695833336489073,3.5028358785939067,6.535896962523368,-2.828577799267551,-17.935539461636385,18.771496827121958
1.1046116924348464,3.323480483977543,6.507611184530692,-2.6408628309963316,-16.885418940737488,17.089709370899552
1.1378464972746218,3.154626294570168,6.481202556220729,-2.4699657372873363,-15.932737133932294,15.506769456158146
1.1693927602203236,2.995298923230845,6.456502898847855,-2.314898042725755,-15.086408865161594,14.0414007297173
1.199345749452632,2.8444348345792294,6.433353918420598,-2.174484035428582,-14.344663096608274,12.696438985010937
1.2277900977984244,2.7009882036131465,6.411609078066312,-2.0475196455784728,-13.700508904405144,11.466697331367369
1.254799979834556,2.563983114569095,6.391133881610528,-1.9328526722647992,-13.144803064787716,10.343428580082048
1.2804398109802468,2.4325350839212176,6.371805354887879,-1.8294183864639786,-12.667899750737794,9.316763548005055
1.3047651618194591,2.3058560864138395,6.353511171023239,-1.736250750983928,-12.260488106189682,8.376980873805666
1.3278237226835976,2.183251205351943,6.3361486635134,-1.6524809422458713,-11.913976564160558,7.515117732566751
1.349656234737117,2.064111439710337,6.319623854090942,-1.5773297649202038,-11.620631223465933,6.723217495522534
1.3702973491342205,1.9479051274756778,6.3038505564417395,-1.5100975899649784,-11.37358594317441,5.994383659952741
1.3897764004089772,1.8341692680439337,6.28874958054209,-1.450153753365451,-11.166789863283329,5.322735599284247
1.4081180930894166,1.7225013694111004,6.274248043008436,-1.3969263973726085,-10.994928343485403,4.703319236677861
1.4253431067835276,1.6125520859762463,6.26027877903471,-1.3498932050058299,-10.85333648098004,4.132001521718793
1.44146862764329,1.504018721166446,6.246779846984651,-1.308573189788642,-10.737914933744003,3.605363870853177
1.4565088148549545,1.3966395718290059,6.233694115086765,-1.2725195510801102,-10.645052561187848,3.120602037819992
1.4704752105732446,1.2901890462171275,6.220968919575964,-1.2413135307019103,-10.571557575113966,2.6754356282588705
1.483377101035416,1.1844734704659878,6.2085557842689445,-1.2145591744193216,-10.514597425954856,2.2680281791392396
1.495221835740076,1.0793274962064392,6.196410192524751,-1.1918788926279291,-10.471646935760763,1.8969175372300497
1.5060151107021404,0.9746110268488316,6.1844914035984715,-1.1729097172556286,-10.440443890177056,1.5609557035614081
1.5157612209706288,0.8702065879470611,6.172762306425915,-1.1573001602200146,-10.41895122347892,1.2592570837566914
1.5244632868500994,0.7660170757122718,6.161189304823715,-1.1447075893824477,-10.405324964578162,0.9911540385355287
1.532123457607222,0.6619638260664902,6.149742228929891,-1.1347960489970923,-10.39788719697921,0.7561586751401452
1.538743095867887,0.5579849540966981,6.13839426843992,-1.127234462245691,-10.395103388716686,0.5539299092714315
1.5443229454088538,0.45403392020953126,6.127121923817463,-1.1216951631529766,-10.395563551834838,0.3842449315090315
1.5488632846109491,0.35007828469118285,6.115904972185933,-1.1178527138378862,-10.397966786310542,0.2469743182926624
1.552364067457861,0.24609861682807743,6.104726445047554,-1.1153829706549596,-10.401108846737047,0.14206012882293362
