th1 (rad),w1 (rad/s),th2 (rad),w2 (rad/s),a1 (rad/s^2),a2 (rad/s^2)
0.30335759356980896,2.77178542621625,0.5600305984392763,2.9942565843461955,3.140435284965827,-10.193817841239898
0.33107544783197146,2.803189779065908,0.5899731642827383,2.8923184059337963,2.801968151988402,-10.172440397543934
0.3591073456226305,2.831209460585792,0.6188963483420762,2.790594001958357,2.435993804722942,-10.098648618443502
0.38741944022848845,2.8555693986330213,0.6468022883616598,2.689607515773922,2.04571021591187,-9.974569443623363
0.4159751342148187,2.87602650079214,0.6736983635193989,2.589861821337688,1.6341231258165803,-9.802426565878658
0.4447353992227401,2.892367732050306,0.6995969817327758,2.4918375556789014,1.2040620778684838,-9.584592571889665
0.47365907654324313,2.9044083528289906,0.7245153572895648,2.3959916299600046,0.7582076379764039,-9.323643236164266
0.502703160071533,2.9119904292087546,0.7484752735891649,2.302755197598362,0.29912606726295277,-9.022409383337514
0.5318230643636206,2.914981689881384,0.7715028255651485,2.212531103764987,-0.17069220360223072,-8.684022100298392
0.5609728812624344,2.913274767845362,0.7936281366027984,2.125690882762003,-0.6487938935104164,-8.311947374091249
0.590105628940888,2.9067868289102576,0.8148850454304184,2.0425714090210905,-1.132727490473355,-7.91000653530383
0.6191734972299906,2.895459554005524,0.8353107595206293,1.9634713436680522,-1.6200144921746702,-7.482379299141271
0.6481280927700458,2.8792594090837773,0.8549454729573098,1.8886475506766396,-2.108130235505972,-7.0335868154790955
0.6769206868608836,2.8581781067287175,0.8738319484640762,1.8183116825218486,-2.5944967112923254,-6.568453039826313
0.7055024679281707,2.8322331396157945,0.8920150652892946,1.7526271521235854,-3.0764889453596185,-6.092043950307729
0.7338247993243286,2.8014682501621984,0.9095413368105305,1.691706712620508,-3.5514554860039897,-5.609585631521364
0.7618394818259506,2.7659536953021586,0.9264584039367356,1.6356108563052945,-4.016752335685211,-5.1263639250854895
0.7894990187789722,2.7257861719453067,0.9428145124997885,1.5843472170544395,-4.469788411656716,-4.64761004470036
0.8167568804984253,2.6810882878287394,0.9586579846703329,1.537871116607436,-4.908079459174348,-4.1783780615968436
0.8435677633767127,2.632007493236996,0.9740366958364073,1.4960873359914675,-5.329306424962509,-3.7234212644537923
0.8698878383090827,2.5787144289873707,0.988997569196322,1.4588531233469295,-5.7313737624902075,-3.2870748978266686
0.8956749825989564,2.5214006913624685,1.0035861004297912,1.4259823743686628,-6.112463072456937,-2.8731525691592763
0.9208889895125811,2.460276060637899,1.0178459241734779,1.39725084867707,-6.471077902473758,-2.4848626731291623
0.9454917501189601,2.3955652816131616,1.0318184326602486,1.3724022219457783,-6.806076385294681,-2.124749611420326
0.9694474029350918,2.327504517760215,1.0455424548797063,1.351154725831575,-7.116689565107866,-1.7946625807483652
0.992722448112694,2.2563376221091365,1.0590540021380221,1.3332081000240914,-7.402524583113852,-1.495752517975188
1.0152858243337852,2.182312376277998,1.072386083138263,1.3182505748443396,-7.663553191596526,-1.2284956980583024
1.0371089480965652,2.105676844362033,1.0855685888867064,1.3059656178637566,-7.900087184110882,-0.9927407142409189
1.0581657165401854,2.0266759725209242,1.098628245065344,1.2960382107213475,-8.112743156471685,-0.7877742959546389
1.0784324762653947,1.9455485409562074,1.1115886271725575,1.288160467761801,-8.30239949389619,-0.6124007154287799
1.0978879616749568,1.8625245460172455,1.1244702318501756,1.2820364606075132,-8.470148615533207,-0.4650293885531558
1.1165132071351294,1.7778230598619134,1.1372905964562507,1.2773861667219817,-8.61724734625216,-0.3437656082299105
1.1342914377337485,1.6916505863993918,1.1500644581234705,1.2739485106396826,-8.7450679036665,-0.24650003407376098
1.1512079435977425,1.6041999073627269,1.1628039432298674,1.271483510298945,-8.855051473691844,-0.17099345932692234
1.1672499426713698,1.5156493926258086,1.175518778332857,1.2697735757056758,-8.94866578388928,-0.11495435017056745
1.182406436597628,1.4261627347869157,1.1882165140899137,1.2686240322039701,-9.027367538912381,-0.07610759394011667
1.196668063945497,1.335889059397792,1.2009027544119535,1.267862956264569,-9.092570105026574,-0.05225372252134766
1.2100269545394748,1.2449633583475261,1.2135813839745992,1.2673404190393553,-9.145616448874415,-0.04131854936893083
1.22247658812295,1.153507193858782,1.2262547881649928,1.266927233545666,-9.187757059650188,-0.041393655401439994
1.2340116600615378,1.0616296232622802,1.2389240605004495,1.2665132969916517,-9.220132410509013,-0.050768484233151334
1.2446279562941607,0.9694282991571901,1.251589193470366,1.2660056121493202,-9.243759432647789,-0.06795497865260201
1.2543222392857325,0.8769907048307122,1.2642492495918591,1.2653260623627942,-9.259521467910117,-0.09170573330496214
1.2630921463340397,0.784395490151611,1.2769025102154872,1.2644090050297445,-9.268161215580756,-0.12102658097241716
1.2709361012355558,0.6917138779958034,1.2895466002657847,1.2631987392200204,-9.270276279625165,-0.15518439856822597
1.2778532400155138,0.5990111151995517,1.302178587657985,1.261646895234338,-9.266317039164948,-0.19371073821898965
1.2838433511675094,0.5063479448079022,1.3147950566103284,1.2597097878521482,-9.25658669462331,-0.2364016797481999
1.2889068306155884,0.41378207786166915,1.3273921544888498,1.257345771054666,-9.241243473526907,-0.2833140819451553
1.293044651394205,0.3213696431264001,1.3399656121993966,1.2545126302352145,-9.220305103195571,-0.3347581979028947
1.296258347825469,0.2291665920944444,1.3525107385017487,1.2511650482561856,-9.193655762519825,-0.3912864304773371
1.2985500137464134,0.13723003446924614,1.3650223889843105,1.2472521839514121,-9.161055801387217,-0.45367785389886905
1.2999223140911058,0.04561947645537397,1.3774949108238246,1.2427154054124234,-9.122154553093834,-0.5229180339217211
1.3003785088556596,-0.04560206907556437,1.389922064877949,1.2374862250732062,-9.076506550846537,-0.6001736594313635
1.299922488164904,-0.13636713458402974,1.402296927128681,1.2314844884788925,-9.023591383219472,-0.6867615704741039
1.2985588168190638,-0.22660304841622447,1.4146117720134699,1.2246168727741513,-8.962837276188424,-0.7841119458634717
1.2962927863349016,-0.3162314211781087,1.4268579407412114,1.2167757533155166,-8.893648266489011,-0.8937257064967323
1.2931304721231205,-0.40516790384299883,1.4390256982743665,1.2078384962505493,-8.81543453511323,-1.0171265967803391
1.2890787930846905,-0.49332224919413115,1.451104083236872,1.1976672302827458,-8.727645113561941,-1.1558089100722737
1.2841455705927491,-0.5805987003297506,1.4630807555396994,1.186109141182023,-8.629801784405103,-1.3111823905533675
1.2783395835894515,-0.6668967181738016,1.4749418469515196,1.1729973172764894,-8.52153261067509,-1.4845164193587097
1.2716706164077136,-0.7521120442805524,1.4866718201242846,1.1581521530829022,-8.402603196489162,-1.676886105054648
1.264149495964908,-0.8361380762454441,1.4982533416551136,1.1413832920323557,-8.272943562082865,-1.889123263982339
1.2557881152024535,-0.9188675118662728,1.509667174575437,1.1224920593925323,-8.13266846713486,-2.1217754107217366
1.2465994400837908,-1.0001941965376213,1.5208920951693623,1.101274305285315,-7.982089182029859,-2.3750757141485797
1.2365974981184145,-1.0800150883579198,1.5319048382222153,1.077523548143829,-7.821715109224067,-2.6489263732567463
1.2257973472348354,-1.1582322394501605,1.5426800737036537,1.0510342844112615,-7.65224428468857,-2.94289703820568
1.2142150248403338,-1.234754682297046,1.5531904165477664,1.0216053140292047,-7.474542593244454,-3.2562388086605654
1.2018674780173633,-1.3095001082294906,1.5634064696880583,0.9890429259425991,-7.289612427185583,-3.5879130969223327
1.1887724769350683,-1.3823962325013464,1.5732968989474843,0.9531637949733758,-7.098552396650263,-3.936633397308856
1.174948514610055,-1.453381756467849,1.582828536897218,0.9137974610002872,-6.902510448339417,-4.300916917263596
1.1604146970453764,-1.5224068609512433,1.5919665115072208,0.8707882918276513,-6.7026332667378075,-4.679142243805303
1.145190628435864,-1.5894331936186215,1.6006743944254973,0.8239968693895983,-6.500015053081863,-5.06960884070968
1.1292962964996778,-1.65443334414944,1.6089143631193932,0.7733007809825014,-6.295648682047082,-5.470594234042007
1.1127519630581835,-1.717389830969911,1.6166473709292182,0.7185948386420814,-6.0903818530562726,-5.880405215755373
1.0955780647484843,-1.7782936495004737,1.623833319315639,0.6597907864845277,-5.884880251528312,-6.297420188549029
1.0777951282534795,-1.8371424520157569,1.6304312271804842,0.5968165845990374,-5.679599009902595,-6.720120764171101
1.0594237037333218,-1.893938442114783,1.6363993930264746,0.5296153769573264,-5.474763009974913,-7.147111774290498
1.040484319312174,-1.948686072214532,1.641695546796048,0.4581442592144214,-5.270355886950301,-7.577129833129409
1.0209974585900288,-2.001389631084035,1.6462769893881921,0.38237296088312733,-5.066117047880149,-8.009041410109212
1.0009835622791885,-2.0520508015628365,1.6501007189970234,0.3022825467820352,-4.861545639317371,-8.441831974240777
0.9804630542635602,-2.1006662579560103,1.6531235444648438,0.21786422703962743,-4.65591019849005,-8.874588144699125
0.9594563916840001,-2.1472253599409106,1.65530218673524,0.12911834559263619,-4.448262682806219,-9.306474941157262
0.937984138084591,-2.191707986768973,1.6565933701911664,0.03605359618106356,-4.23745566217737,-9.736710211863313
0.9160670582169013,-2.2340825433907465,1.656953906152977,-0.06131350593756957,-4.022161638320818,-10.164538176252321
0.8937262327829938,-2.274304159773955,1.6563407710936013,-0.16295888770009279,-3.8008936854686994,-10.589203801732856
0.8709831911852542,-2.312313096628642,1.6547111822166005,-0.26885092571742136,-3.5720268530401573,-11.009929484416423
0.8478600602189679,-2.3480333651590435,1.6520226729594263,-0.3789502205615856,-3.333820005393051,-11.425895253961523
0.8243797265673775,-2.381371565212974,1.6482331707538105,-0.4932091731012008,-3.084437977352203,-11.836223494955373
0.8005660109152477,-2.412215944986496,1.6433010790227984,-0.6115714080507546,-2.8219740848015156,-12.239968982239898
0.7764438514653828,-2.4404356858345113,1.637185364942291,-0.7339710978731536,-2.5444731412682824,-12.636114867347096
0.7520394946070377,-2.465880417247194,1.6298456539635595,-0.8603322465466245,-2.2499551926429517,-13.023575123243043
0.7273806904345658,-2.4883799691736237,1.6212423314980933,-0.990567997779055,-1.9364401945417133,-13.401203846121287
0.7024968907428295,-2.507744371119041,1.6113366515203027,-1.1245800362402678,-1.6019738238608607,-13.767811714986422
0.6774194470316391,-2.5237641093576495,1.6000908511579,-1.262258153390132,-1.2446545425938949,-14.122189810486521
0.6521818059380626,-2.5362106547835883,1.5874682696239986,-1.4034800514949972,-0.8626619237929273,-14.46314088263541
0.6268196993902267,-2.5448372740215177,1.5734334691090486,-1.5481114603213513,-0.4542861135604456,-14.789518022756685
0.6013713266500116,-2.549380135157122,1.5579523545058351,-1.696006640548918,-0.0179581475432502,-15.10027053000423
0.5758775252984404,-2.5495597166325545,1.540992288100346,-1.8470093458489603,0.4477193239555836,-15.394496560938387
0.5503819281321148,-2.5450825233929986,1.5225221946418563,-2.000954311458344,0.9439415080800817,-15.671501907406386
0.5249311028981849,-2.5356431083121977,1.5025126515272729,-2.157669330532408,1.4716718829634325,-15.930863960092625
0.49957467181506293,-2.5209263894825633,1.4809359582219488,-2.316977970133334,2.031614391705692,-16.17249957921277
0.4743654079202373,-2.5006102455655066,1.4577661785206155,-2.478702965925462,2.6241882786284965,-16.396735204424697
0.44935930546458225,-2.4743683627792215,1.4329791488613608,-2.642670317969709,3.249506344227559,-16.604377082138537
0.42461562183679,-2.441873299336946,1.4065524456816636,-2.8087140887910946,3.907357154712633,-16.79677894845487
0.4001968888434206,-2.40279972778982,1.3784653047937527,-2.9766818782756435,4.597191285340468,-16.975903840137065
0.37616889156552236,-2.3568278149364152,1.3486984860109963,-3.146440916677014,5.318110923027502,-17.144375845065937
0.3526006134161582,-2.3036467057061403,1.317234076844226,-3.317884675127673,6.068860993568873,-17.30551643255142
0.3295641463590968,-2.2429580957704514,1.2840552300929493,-3.4909398394531874,6.847818260999303,-17.463358338685516
0.3071345654013923,-2.174479913160458,1.2491458316984174,-3.6655734228400427,7.652972358432886,-17.622627536608157
0.2853897662697877,-2.0979501895761294,1.212490097470017,-3.8417996982061244,8.481889148160775,-17.788680162326028
0.26441026437402637,-2.0131312980945215,1.1740721004879557,-4.019686499829385,9.331641741546397,-17.96737575049112
0.24427895139308115,-1.9198148806790576,1.133875235489662,-4.1993602573342965,10.198687325442132,-18.164859831483582
0.22508080258629057,-1.8178280074246362,1.091881632916319,-4.3810088556491324,11.07865780060248,-18.387216549742817
0.20690252251204422,-1.7070414294186114,1.0480715443598276,-4.564881021146561,11.966018040698993,-18.63993374985354
0.1898321082178581,-1.5873812490116215,1.002422734148362,-4.751280358645096,12.853526038003283,-18.92709682739874
0.17395829572774188,-1.4588459886315888,0.9549099305619111,-4.940551326919084,13.731403151843605,-19.250191438870143
0.159369835841426,-1.3215319571131527,0.9055044172927202,-5.133053241307786,14.586090013462128,-19.606347965985382
0.14615451627029447,-1.1756710569785316,0.8541738848796424,-5.329116720967639,15.39842757582553,-19.985805628771793
0.13439780570050916,-1.0216867812202763,0.800882717669966,-5.528974777255358,16.141074799062498,-20.36832529897149
0.12418093788830639,-0.8602760332296513,0.7455929698974124,-5.732658030245073,16.774984125707938,-20.718275552546263
0.11557817755600988,-0.6925261919725719,0.6882663895949617,-5.939840785770536,17.24486846963943,-20.9782429682352
0.10865291563628417,-0.5200775072761776,0.6288679817372563,-6.149623215452888,17.473935343962783,-21.061446359645245
0.1034521405635224,-0.3453381538365498,0.5673717495827274,-6.36023767904934,17.358943762239605,-20.84425327954472
0.0999987590251569,-0.17174871621415375,0.503769372792234,-6.568680211844788,16.768114522094177,-20.16206897244755
0.09828127186301536,-0.0040675709932119775,0.4380825706737861,-6.7703009015692635,15.54667705535184,-18.814935822440024
0.09824059615308324,0.15139919956030642,0.37037956165809344,-6.958450259793664,13.537148023140505,-16.592416245800084
0.0997545881486863,0.28677067979171145,0.3007950590601568,-7.124374422251665,10.62122951804715,-13.327273514919312
0.10262229494660342,0.39298297497218293,0.22955131483764013,-7.257647157400858,6.782644463093283,-8.977528219373065
0.10655212469632525,0.4608094196031158,0.15697484326363154,-7.347422439594589,2.171694142215835,-3.711679962524813
0.1111602188923564,0.48252636102527413,0.08350061886768564,-7.384539239219837,-2.8695801252805833,2.0575662378867037
0.11598548250260915,0.4538305597724683,0.009655226475487277,-7.36396357684097,-7.862525299539648,7.745358838240336
0.12052378810033383,0.3752053067770718,-0.06398440929292241,-7.286509988458566,-12.323770306392182,12.767041187105184
0.12427584116810456,0.25196760371314997,-0.13684950917750807,-7.158839576587514,-15.907588898093994,16.72165613506084
0.12679551720523605,0.09289171473221003,-0.2084379049433832,-6.991623015236906,-18.478219708540724,19.480373789092265
0.12772443435255815,-0.09189048235319722,-0.27835413509575224,-6.796819277345983,-20.08734495408364,21.149895293608356
0.12680552952902618,-0.2927639318940336,-0.3463223278692121,-6.585320324409899,-20.896581348433763,21.96661263188541
0.12387789021008584,-0.5017297453783712,-0.41217553111331107,-6.365654198091045,-21.099708769481314,22.194562389046332
0.11886059275630213,-0.7127268330731844,-0.4758320730942215,-6.1437085742005815,-20.873425468234835,22.06365535875491
0.1117333244255703,-0.9214610877555327,-0.5372691588362273,-5.9230720206130325,-20.357474834461325,21.74728057958362
0.10251871354801496,-1.125035836100146,-0.5964998790423576,-5.705599214817196,-19.653245115744397,21.36364121727395
0.09126835518701351,-1.32156828725759,-0.6535558711905295,-5.491962802644457,-18.830378613826255,20.986639147600478
0.0780526723144376,-1.5098720733958526,-0.7084754992169741,-5.282096411168452,-17.935115426787938,20.658157910127695
0.06295395158047908,-1.689223227663732,-0.7612964633286585,-5.075514832067175,-16.9976313550535,20.39841253323007
0.04606171930384176,-1.859199541214267,-0.8120516116493303,-4.871530706734875,-16.037615972839596,20.213632202351754
0.027469723891699088,-2.019575700942663,-0.860766918716679,-4.6693943847113575,-15.068190007778036,20.101390939551017
0.007273966882272456,-2.1702576010204435,-0.9074608625637925,-4.468380475315847,-14.09851861737089,20.05416839524654
-0.01442860912793198,-2.3112427871941525,-0.952144667316951,-4.267838791363381,-13.135484918808631,20.061679878989697
-0.0375410369998735,-2.442597636382239,-0.9948230552305848,-4.067221992573485,-12.184717450758523,20.112387049769882
-0.061967013363695894,-2.564444810889824,-1.0354952751563196,-3.866098122075786,-11.251186163372598,20.19447568720637
-0.08761146147259413,-2.6769566725235503,-1.0741562563770775,-3.664153365203722,-10.339516483103179,20.29648961222508
-0.11438102819782964,-2.780351837354582,-1.1107977900291146,-3.4611884690814714,-9.454123343867993,20.407741235760273
-0.14218454657137547,-2.874893070793262,-1.1454096747199294,-3.257111056723869,-8.599233986988406,20.518573532701993
-0.17093347727930808,-2.960885410663146,-1.177980785287168,-3.051925321396849,-7.778845871023892,20.620518957465503
-0.20054233138593955,-3.038673869373385,-1.2085000385011364,-2.845720131822194,-6.9966508207982,20.706382646610933
-0.2309290700796734,-3.108640377581367,-1.2369572398193585,-2.6386563053560845,-6.255946103746951,20.770266350775714
-0.26201547385548707,-3.1711998386188363,-1.2633438028729194,-2.4309536418483275,-5.559545769652352,20.807543251167253
-0.29372747224167545,-3.22679529631536,-1.2876533392914027,-2.222878209336655,-4.909700240627881,20.814790358050328
-0.32599542520482905,-3.275892298721639,-1.3098821213847693,-2.0147303057561516,-4.308028114483668,20.789683370041693
-0.35875434819204544,-3.3189725798664753,-1.3300294244423307,-1.8068334720557346,-3.755461035109758,20.7308579098247
-0.3919440739907102,-3.356527190217573,-1.348097759162888,-1.5995248929574877,-3.252200043489092,20.637740439984388
-0.4255093458928859,-3.389049190652464,-1.364093008092463,-1.3931474885576438,-2.7976799093644122,20.510351597269477
-0.45939983779941057,-3.417025989746108,-1.3780244829780393,-1.188043972584949,-2.390536477593792,20.34908401134853
-0.49357009769687166,-3.440931354522046,-1.3899049227038887,-0.9845531324714637,-2.028571014233745,20.15445586872651
-0.5279794112420921,-3.461217064664383,-1.3997504540286032,-0.7830085737841985,-1.7087049255094733,19.926840640087455
-0.5625915818887359,-3.478304113919478,-1.4075805397664451,-0.583740167383324,-1.4269181387909042,19.66617274377942
-0.5973746230279307,-3.492573295307387,-1.4134179414402783,-0.3870784399455298,-1.1781650773305299,19.371628878203545
-0.6323003559810045,-3.5043549460806926,-1.4172887258397335,-0.19336215116349437,-0.9562638920245108,19.041285966304315
-0.6673439054418114,-3.5139175850009376,-1.4192223473513685,-0.002949291500451201,-0.7537580287861164,18.671760078604226
-0.7024830812918208,-3.5214551652887986,-1.419251840266373,0.18376830928559107,-0.5617552063688751,18.25783770028082
-0.7376976329447088,-3.5270727173524876,-1.417414157173517,0.3663466862883993,-0.3697586870267326,17.79212307713619
-0.7729683601182337,-3.530770304222755,-1.413750690310633,0.5442679170597612,-0.16552081355917844,17.26474520140578
-0.8082760631604612,-3.532425512358347,-1.4083080111400352,0.716915369073819,0.06502949813374889,16.663197125589804
-0.8436003182840447,-3.5317752173770094,-1.4011388574492971,0.883547340329717,0.3377049849935252,15.972419035478968
