th1 (rad),w1 (rad/s),th2 (rad),w2 (rad/s),a1 (rad/s^2),a2 (rad/s^2)
1.3555846098479003,-0.5059588866975206,4.868458986010163,0.35866169103159845,-8.913426227752923,1.4676730775202091
1.3505250209809252,-0.59509314897505,4.872045602920479,0.37333842180680055,-8.853133381893212,1.5848669294536415
1.3445740894911746,-0.683624482793982,4.875778987138546,0.389187091101337,-8.782114981771013,1.7230377106849535
1.3377378446632349,-0.7714456326116922,4.879670858049559,0.4064174682081865,-8.700270561928136,1.8828158636672891
1.330023388337118,-0.8584483382309736,4.883735032731641,0.42524562684485945,-8.607578095657402,2.0647692887631575
1.3214389049548083,-0.9445241191875475,4.88798748900009,0.445893319732491,-8.504123258060329,2.26936313845545
1.3119936637629328,-1.029565351768151,4.892446422197415,0.4685869511170455,-8.39012935400329,2.496919592374637
1.3016980102452513,-1.1134666453081838,4.897132291708586,0.49355614704079187,-8.265986918331508,2.747579317308762
1.2905633437921695,-1.196126514491499,4.902067853178994,0.5210319402138794,-8.132281858837256,3.021266544727276
1.2786020786472545,-1.2774493330798715,4.907278172581132,0.5512446056611522,-7.989820911497977,3.3176598691991095
1.2658275853164558,-1.3573475421948513,4.912790618637744,0.5844212043531433,-7.839653131596789,3.6361709547120236
1.2522541098945073,-1.4357440735108191,4.918634830681276,0.6207829139002635,-7.6830861725659245,3.975933303575491
1.237896669159399,-1.5125749352364783,4.924842659820278,0.6605422469360185,-7.521696223471213,4.335803070281514
1.2227709198070342,-1.5877918974711904,4.931448082289639,0.7039002776388337,-7.357330697823125,4.714373575302881
1.2068930008323224,-1.6613652044494216,4.938487085066027,0.7510440133918624,-7.19210309519447,5.110004689431106
1.1902793487878283,-1.7332862354013663,4.945997525199946,0.8021440602861735,-7.028379887488557,5.520867632851312
1.1729464864338146,-1.8035700342762517,4.954018965802808,0.8573527366146866,-6.868759796893876,5.945004998755483
1.1549107860910521,-1.8722576322451905,4.9625924931689545,0.9168027866022415,-6.716046404377754,6.380405022079224
1.1361882097686002,-1.939418096288968,4.971760521034977,0.9806068368230337,-6.573215617860439,6.82508833951912
1.1167940288057105,-2.005150252467572,4.981566589403207,1.048857720218225,-6.443380093265868,7.277204807777288
1.0967425262810349,-2.0695840534002308,4.99205516660539,1.121629768295998,-6.329753193325265,7.735137446060302
1.0760466857470325,-2.1328815853334833,5.00327146428835,1.198981142756601,-6.235615447069877,8.19761032219458
1.0547178698936976,-2.195237739804182,5.015261275715916,1.2809572459785468,-6.164286707710607,8.663797268339028
1.0327654924956557,-2.256880606881288,5.028070848175701,1.3675952186619371,-6.119107285877534,9.13342872618691
1.0101966864268428,-2.3180716797400636,5.04174680036232,1.4589295059238063,-6.103431268383408,9.606894787119023
0.9870159696294422,-2.3791059924238978,5.056336095421559,1.5549984537949966,-6.1206350521938795,10.085343584823573
0.9632249097052031,-2.4403123429458367,5.0718860799595085,1.6558518896432324,-6.174143882919134,10.57077556692054
0.9388217862757448,-2.502053781775028,5.088444598855941,1.7615596453124378,-6.267478957519169,11.066135753934509
0.9138012484579945,-2.5647285713502197,5.106060195309065,1.872221002851783,-6.404327512760255,11.575407822099523
0.8881539627444923,-2.6287718464778225,5.124782405337583,1.987975081072778,-6.588638356964165,12.103715664817091
0.8618662442797141,-2.694658230047464,5.144662156148311,2.109012237720949,-6.8247455885233546,12.657439959766878
0.8349196619792395,-2.7629056859326977,5.16575227852552,2.235586637318618,-7.117523839324688,13.244359180475042
0.8072906051199126,-2.8340809243259444,5.188108144898706,2.3680302291233684,-7.472579312898466,13.87382644033765
0.7789497958766531,-2.908806717454929,5.21178844718994,2.506768493526745,-7.896482130298709,14.556995521894352
0.7498617287021039,-2.987771538757916,5.236856132125207,2.6523384487456885,-8.397046926469935,15.307111313820302
0.7199840133145248,-3.0717420080226154,5.263379516612664,2.8054095618838915,-8.983669937810793,16.139881312458957
0.6892665932342986,-3.1615787074007233,5.291433612231503,2.966808375008481,-9.66773128283444,17.073944994673283
0.6576508061602914,-3.2582560202290676,5.321101695981588,3.137547824955214,-10.463069276047943,18.131454819088106
0.6250682459580007,-3.362886712989547,5.352477174231141,3.318862373146095,-11.386526360560845,19.338772261968014
0.5914393788281053,-3.4767519765951556,5.385665797962602,3.512250095765775,-12.458547312651438,20.727256086188987
0.5566718590621537,-3.60133744972167,5.42078829892026,3.719522656627665,-13.703766938979392,22.33406034645183
0.5206584845649369,-3.7383751191114643,5.4579835254865365,3.9428632600921834,-15.151430416889815,24.20273030609291
0.48327473337382226,-3.8898894232803625,5.497412158087458,4.184890563153113,-16.83529148813009,26.383111584143574
0.44437583914101864,-4.058242338161663,5.53926106371899,4.4487216789945485,-18.792223937478187,28.929521132837007
0.403793415759402,-4.246164577536445,5.583748280508935,4.7380168903229185,-21.057943979002193,31.894966231800623
0.36133176998403754,-4.456744017326467,5.631128449412165,5.056966552640925,-23.656556265229984,35.31685289176384
0.31676432981077285,-4.6933095799787665,5.681698114938574,5.410135081558564,-26.577353013164394,39.18504275513331
0.2698312340109852,-4.95908311011041,5.73579946575416,5.801985509109897,-29.726325984868605,43.374760526295624
0.2202404029098811,-5.256346369959096,5.793819320845259,6.235733114372853,-32.83072228953611,47.514022155578054
0.16767693921029014,-5.584653592854457,5.856176651988988,6.710873335928634,-35.26790592381659,50.74517111683142
0.11183040328174557,-5.937332652092623,5.923285385348274,7.218325047096948,-35.81355813674296,51.37295952639943
0.052457076760819336,-6.295468233460053,5.995468635819243,7.732054642360942,-32.44982070713281,46.59478051619589
-0.01049760557378119,-6.619966440531381,6.072789182242853,8.198002447522901,-22.776292241523823,33.07156273927412
-0.07669726997909501,-6.84772936294662,6.154769206718082,8.528718074915643,-5.9168846585069295,9.58808206729147
-0.1451745636085612,-6.906898209531689,6.240056387467238,8.624598895588559,14.674574904948278,-19.035371079808233
-0.2142435457038781,-6.760152460482206,6.326302376423124,8.434245184790477,31.866264173089604,-42.87105813780752
-0.28184507030870015,-6.44148981875131,6.410644828271028,8.005534603412402,40.788391308479234,-55.17785082017834
-0.34625996849621327,-6.033605905666517,6.490700174305152,7.453756095210618,42.199961032159436,-57.057197655319065
-0.40659602755287844,-5.611606295344923,6.565237735257258,6.883184118657428,39.47515953837337,-53.21839539509872
-0.46271209050632767,-5.216854699961189,6.634069576443832,6.3510001647064405,35.31189475492457,-47.40314501843129
-0.5148806375059396,-4.863735752411944,6.697579578090897,5.876968714522127,31.07773411176646,-41.4960149733895
-0.5635179950300591,-4.552958411294279,6.756349265236119,5.462008564788232,27.288300500546143,-36.20003925014716
-0.6090475791430019,-4.280075406288818,6.810969350884001,5.100008172286761,24.065255453195938,-31.675203686509885
-0.6518483332058901,-4.039422851756858,6.861969432606869,4.783256135421662,21.379774055426864,-27.875821742601143
-0.6922425617234587,-3.8256251112025894,6.909801993961086,4.504497917995651,19.158080663299554,-24.695915038183113
-0.7304988128354846,-3.634044304569594,6.954846973141042,4.25753876761382,17.321998977874166,-22.024645024302348
-0.7668392558811805,-3.460824314790852,6.997422360817181,4.037292317370796,15.802381634844341,-19.764422190967785
-0.8014474990290891,-3.3028004984424086,7.037795283990889,3.8396480954611185,14.542040107832566,-17.834676332392434
-0.8344755040135131,-3.157380097364083,7.0761917649454995,3.661301332137194,13.494976804983384,-16.170643241325802
-0.8660493049871539,-3.022430329314249,7.112804778266871,3.499594899723936,12.62457665520624,-14.720797489437729
-0.8962736082802965,-2.896184562762187,7.14780072726411,3.352386924829559,11.90173318919292,-13.444248488485556
-0.9252354539079183,-2.7771672308702575,7.181324596512406,3.217944439944703,11.303220234250464,-12.308510058897587
-0.9530071262166209,-2.664135028527753,7.213504040911853,3.094859339355727,10.810369262203237,-11.287713665264658
-0.9796484765018985,-2.5560313359057205,7.24445263430541,2.9819822027030805,10.408026026000789,-10.36122014368696
-1.0052087898609556,-2.4519510756457126,7.274272456332441,2.878370001266211,10.083737574244736,-9.512555775091789
-1.0297283006174127,-2.3511136999032654,7.303056156345103,2.783244443515293,9.82712139892431,-8.728600515519966
-1.0532394376164453,-2.252842485914022,7.330888600780256,2.6959584383600936,9.6293762608042,-7.9989673461235276
-1.0757678624755855,-2.1565487233059804,7.357848185163856,2.6159687648988585,9.482903052930821,-7.315523970123901
-1.0973333497086453,-2.061719692776672,7.384007872812845,2.5428135251976194,9.381011826697527,-6.672018832876231
-1.117950546636412,-1.9679095745096968,7.409436008064821,2.476093336868857,9.317697300945268,-6.06378214591228
-1.1376296423815089,-1.8747326015002441,7.43419694143351,2.415455515409734,9.287469850602696,-5.487479464592671
-1.1563769683965113,-1.7818579029942172,7.458351496587607,2.3605807207638074,9.28523234386172,-4.9409008043077
-1.1741955474264534,-1.6890055795556,7.481957303795245,2.3111717127207303,9.306195505430326,-4.422772673005417
-1.1910856032220094,-1.5959436245012968,7.505069020922453,2.266943985990676,9.345825946644105,-3.932584057815914
-1.2070450394670225,-1.5024853650348557,7.527738460782359,2.227618145412517,9.399821813448643,-3.4704205427860395
-1.222069893117371,-1.4084871469003692,7.550014642236484,2.1929139399846562,9.46411133314326,-3.0368034726883018
-1.2361547645863746,-1.3138460335689366,7.571943781636331,2.1625459052577733,9.534869550862382,-2.632533455082183
-1.249293224922064,-1.2184973380603128,7.593569240688908,2.1362205707069517,9.608548389345849,-2.2585394896956994
-1.2614781983026673,-1.1224118541668544,7.614931446395978,2.1136351758099945,9.681914983312952,-1.9157365733250318
-1.2727023168443359,-1.025592704333725,7.6360677981540785,2.0944778100767443,9.752093159774596,-1.6048956791699087
-1.2829582438876732,-0.928071772735979,7.6570125762548455,2.078428853285045,9.816603060113067,-1.3265304928746575
-1.292238961615033,-0.8299057421348482,7.677796864787696,2.0651635483562982,9.873394296078692,-1.080805178525783
-1.3005380190363813,-0.7311717991740614,7.698448500271259,2.0543554965710404,9.920868724390433,-0.8674667716746517
-1.307849737028122,-0.6319631119301571,7.71899205523697,2.045680828854294,9.957889891197924,-0.6858046358203945
-1.3141693681474236,-0.5323842130181778,7.739448863525513,2.0388227824960903,9.98377737210947,-0.5346379104878355
-1.3194932102776054,-0.43254643929708314,7.759837091350474,2.033476403391212,9.998285514998768,-0.41233019993298864
-1.3238186746705762,-0.33256358414709547,7.780171855384386,2.029353101391882,10.001567360902056,-0.3168290962894227
-1.3271443105120473,-0.2325479105380749,7.8004653863983044,2.0261848104289877,9.994125651179072,-0.245726685728748
-1.3294697896174281,-0.13260665402628416,7.820727234502594,2.0237275435717,9.976753721888027,-0.19633610298062076
-1.330795856157691,-0.03283911680740388,7.840964509938311,2.021764182541894,9.950469666158213,-0.16577857668285503
-1.331124247325765,0.06666557985417824,7.86118215176373,2.0201063967750654,9.916447380394146,-0.1510752799376352
-1.3304575915272232,0.1658300536581197,7.88138321573148,2.018595643975689,9.875948011306205,-0.14923863826250502
-1.328799290990642,0.2645895337711818,7.9015691721712376,2.0171032575930643,9.830254936338747,-0.1573584692039048
-1.3261533956529303,0.3628920831345692,7.921740204747168,2.0155296729010255,9.780614815072814,-0.1726793173704072
-1.3225244748215848,0.46069823128529735,7.9418955014761785,2.0138028797273213,9.728186531860889,-0.19266647408080914
-1.3179174925087318,0.5579800966039062,7.962033530273452,2.011876214986513,9.673999098268647,-0.2150593057637213
-1.3123376915426928,0.6547200875865927,7.982152292423317,2.009725621928876,9.618918874353978,-0.2379115537084377
-1.3057904906668267,0.7509092763301325,8.002249548642606,2.0073465063917917,9.563625858032344,-0.25961913370227907
-1.2982813979035255,0.8465455349104559,8.022323013706524,2.004750315054769,9.508598317336032,-0.27893661455891977
-1.289815942554421,0.9416315180838163,8.042370516857071,2.0019609489091796,9.454104715417802,-0.29498397752406347
-1.2803996273735827,1.0361725652379943,8.062390126346163,1.999011109133939,9.40020169879184,-0.3072454670275603
-1.2700379017212027,1.1301745822259126,8.082380237437501,1.9959386544636635,9.346736868579077,-0.31556236749133254
-1.2587361558989436,1.2236419509117034,8.102339623982138,1.9927830307887502,9.293355107697852,-0.3201214205176458
-1.2464997363898265,1.3165755019886818,8.122267454290025,1.9895818165835737,9.239507366331177,-0.3214403738921556
-1.2333339813699395,1.4089705756519935,8.14216327245586,1.9863674128446522,9.184460986733983,-0.3203518679184783
-1.2192442756134196,1.5008151855193332,8.162026946584307,1.9831638941654675,9.127310852972764,-0.3179865492506042
-1.2042361237582262,1.5920882940490608,8.181858585525962,1.9799840286729613,9.06699086262909,-0.3157559838064961
-1.1883152408177355,1.6827582026753518,8.201658425812692,1.9768264688348964,9.002285421979598,-0.3153356371967206
-1.171487658790982,1.7727810568951479,8.22142669050104,1.9736731124629292,8.931840854507309,-0.3186479152956563
-1.1537598482220304,1.862099465440221,8.24116342162567,1.9704866333099726,8.854176779565922,-0.32784501558157414
-1.1351388535676281,1.9506412332358802,8.26086828795877,1.9672081831541568,8.767697661389512,-0.3452911341771511
-1.1156324412352694,2.038318209849775,8.280540369790312,1.9637552718123852,8.670704848272903,-0.3735434041271278
-1.0952492591367717,2.125025258332504,8.300177922508436,1.960019837771114,8.561409518723542,-0.4153308061182366
-1.0739990065534466,2.2106393535197397,8.319778120886147,1.9558665297099316,8.437947027293797,-0.4735301921477509
-1.051892613018249,2.295018823792678,8.339336786183246,1.951131227788454,8.298393199170345,-0.5511384947644331
-1.0289424247803223,2.3780027557843813,8.35884809846113,1.9456198428408098,8.140783160444203,-0.651240159822578
-1.0051623972224784,2.4594105873888235,8.378304296889539,1.939107441242584,7.9631333104679545,-0.7769688412222874
-0.9805682913485901,2.539041920493503,8.397695371301964,1.931337752830361,7.763467042830332,-0.9314624357991835
-0.9551778721436551,2.616676590921806,8.417008748830268,1.9220231284723692,7.5398447998193685,-1.1178106214623857
-0.9290111062344371,2.6920750389199997,8.436228980114992,1.9108450222577453,7.29039899770224,-1.3389942002149444
-0.9020903558452371,2.764979028897022,8.455337430337568,1.8974550802555958,7.013374280697068,-1.597815750469582
-0.8744405655562669,2.835112771703993,8.474311981140124,1.8814769227509,6.7071734420189,-1.8968213728687706
-0.846089437839227,2.9021845061241818,8.493126750367633,1.8625087090222123,6.370409180565691,-2.2382136850717456
-0.8170675927779851,2.9658885979298386,8.511751837457854,1.8401265721714948,6.001961629454351,-2.623756698848305
-0.7874087067986868,3.025908214224382,8.53015310317957,1.8138890051830117,5.601041284247967,-3.054673811528951
-0.757149624656443,3.081918627066862,8.5482919932314,1.7833422670677221,5.167256560958094,-3.531540873978306
-0.7263304383857744,3.133591192676443,8.566125415902077,1.748026858327939,4.700684715786507,-4.054177161753658
-0.6949945264590099,3.180598039834308,8.583605684485356,1.7074850867104026,4.201944254969391,-4.621538064958988
-0.6631885460606669,3.222617482384002,8.60068053535246,1.6612697060608126,3.6722662594821407,-5.231614395672048
-0.6309623712368269,3.2593401449788235,8.617293232413068,1.608953562104092,3.11356126767611,-5.881344332397117
-0.5983689697870386,3.2904757576555848,8.63338276803411,1.550140118780121,2.52847754396768,-6.566545086459701
-0.5654642122104827,3.3157605330952618,8.648884169221912,1.4844746679155238,1.9204457870856728,-7.281872252898451
-0.5323066068795301,3.3349649909661183,8.663728915901068,1.4116559453865394,1.2937047030686557,-8.020815324512025
-0.49895695696986897,3.3479020379968047,8.677845475354934,1.3314477921414192,0.6533015233056559,-8.775737795264025
-0.46547793658990094,3.3544350532298615,8.691159953276347,1.243690414188779,0.005061645999920847,-9.537969437241363
-0.43193358605760235,3.354485669689861,8.703596857418235,1.1483107198163653,-0.6444777161343564,-10.297956502313946
-0.39838872936070374,3.3480408925285174,8.715079964616399,1.0453311547932258,-1.28817355077985,-11.045472640895039
-0.36490832043541854,3.335159157020719,8.725533276164331,0.9348764283842754,-1.9184241271236426,-11.769889234575839
-0.33155672886521137,3.3159749157494827,8.734882040448174,0.8171775360385171,-2.527355498747938,-12.460498774940486
-0.29839697970771656,3.2907013607620033,8.743053815808558,0.6925725482891122,-3.1070421306063682,-13.106879273958526
-0.2654899661000965,3.2596309394559397,8.749979541291449,0.5615037555495269,-3.649752431797153,-13.699282070569328
-0.2328936567055371,3.2231334151379682,8.755594578846944,0.4245109348438336,-4.14820627108207,-14.229020586057475
-0.20066232255415742,3.1816513524271475,8.759839688195383,0.2822207289832589,-4.595828635387976,-14.688834427026277
-0.16884580902988594,3.1356930660732676,8.762661895485216,0.1353323847129961,-4.9869820287307345,-15.073202498181788
-0.13748887836915327,3.0858232457859605,8.764015219332347,-0.015399640268821763,-5.317160439790657,-15.378580957686461
-0.10663064591129368,3.0326516413880538,8.763861222929659,-0.16918544984568637,-5.583129927586797,-15.603546991573152
-0.07630412949741314,2.9768203421121857,8.762169368431202,-0.32522091976141787,-5.7830049609314,-15.74883706108485
-0.046535926076291284,2.9189902925028717,8.758917159233588,-0.4827092903722664,-5.9162551380904365,-15.81727757112055
-0.017346023151262567,2.8598277411219675,8.754090066329866,-0.6408820660834719,-5.983643079555827,-15.813615572025832
0.011252254259957108,2.7999913103264094,8.747681245669032,-0.7990182218037302,-5.9871002677727585,-15.744265799474462
0.0392521673632212,2.7401203076486818,8.739691063450994,-0.9564608797984748,-5.929552580666266,-15.616996909675148
0.06665337043970802,2.680824781842019,8.730126454653009,-1.1126308488952263,-5.814710608658004,-15.440583410087159
0.09346161825812821,2.622677675755439,8.719000146164056,-1.267036682996098,-5.646841244238456,-15.224450275117592
0.1196883950156826,2.5662092633130547,8.706329779334096,-1.4192811857472738,-5.43053651588543,-14.9783348530565
0.14535048764881314,2.5119038981542006,8.692136967476623,-1.5690645342778389,-5.170493524695289,-14.711986106731466
0.17046952663035514,2.460198962907248,8.676446322133845,-1.7161843953451537,-4.871316144414237,-14.434915403071917
0.19507151625942762,2.4114858014631055,8.659284478180394,-1.8605335493758728,-4.537345442759314,-14.156206917446895
0.21918637427405868,2.3661123470355125,8.640679142686636,-2.002095618550342,-4.172522107752239,-13.884390047293385
0.2428474977444138,2.32438712595799,8.620658186501133,-2.140939519023276,-3.78028092759247,-13.627371593393802
0.2660913690039937,2.2865843166820654,8.5992487913109,-2.277213234957214,-3.3634748285361944,-13.392422149857165
0.2889572121708144,2.2529495683967036,8.576476658961328,-2.4111374564557853,-2.924324220637645,-13.186209182434292
0.31148670785478144,2.223706326190327,8.55236528439677,-2.542999548280128,-2.464386411866031,-13.0148685211016
0.3337237711166847,2.199062462071667,8.526935288913968,-2.673148233491144,-1.9845395247859696,-12.88410618560262
0.3557143957374014,2.179217066823807,8.500203806579057,-2.80198929534717,-1.4849755521813868,-12.799323291095748
0.37750656640563945,2.164367311301993,8.472183913625585,-2.9299825282581278,-0.965197792307348,-12.76575792869374
