th1 (rad),w1 (rad/s),th2 (rad),w2 (rad/s),a1 (rad/s^2),a2 (rad/s^2)
4.300707098348037,2.052329162810202,0.5521492482503595,1.6612001014297235,10.066117587177931,0.7253954596398129
4.321230389976139,2.1529903386819815,0.5687612492646568,1.6684540560261216,9.943387715445297,0.20813244222018779
4.342760293362959,2.2524242158364345,0.585445789824918,1.6705353804483234,9.80474463186946,-0.34116654768511095
4.365284535521323,2.350471662155129,0.6021511436294013,1.6671237149714724,9.649552166715631,-0.9229465761330681
4.388789252142875,2.4469671838222853,0.618822380779116,1.6578942492101416,9.477313807807525,-1.5374713912662459
4.413258923981098,2.5417403219003605,0.6354013232712175,1.642519535297479,9.287717525454486,-2.1847680061853083
4.438676327200102,2.6346174971549052,0.6518265186241923,1.620671855235626,9.080685790106028,-2.864567362506693
4.465022502171651,2.7254243550559654,0.6680332371765485,1.5920261816105592,8.856429943880677,-3.5762431687672
4.492276745722211,2.8139886544947723,0.6839534989926541,1.5562637499228873,8.615507596395432,-4.318751797437587
4.520416632267159,2.9001437304587268,0.699516136491883,1.5130762319485114,8.358881175041308,-5.090576957328062
4.549418069571746,2.9837325422091396,0.7146468988113681,1.4621704623752307,8.087975206005792,-5.889683671249514
4.5792553949938375,3.0646122942691973,0.7292686034351205,1.4032736256627356,7.804729387720797,-6.713486795514213
4.609901517936529,3.1426595881464054,0.7433013396917478,1.3361387577075934,7.511644112507566,-7.558839811302029
4.641328113817993,3.217776029271481,0.7566627272688238,1.260550359594573,7.211814878125901,-8.422049778258309
4.673505874110708,3.28989417805274,0.7692682308647695,1.17632986181199,6.908952098514922,-9.298924048855879
4.7064048158912355,3.358983699037889,0.7810315294828893,1.0833406213234311,6.607383257441785,-10.184853499607895
4.739994652881615,3.425057531612307,0.7918649356961237,0.9814920863273522,6.312035215553952,-11.074935589074236
4.774245228197738,3.4881778837678463,0.8016798565593972,0.8707427304366098,6.028395809028946,-11.964138521286522
4.809127007035416,3.5484618418581357,0.8103872838637634,0.7511013452237445,5.7624556420449995,-12.847505289350691
4.8446116254539975,3.6060863982785856,0.8178982973160008,0.6226262923302376,5.520633086965683,-13.720393616365273
4.880672489436783,3.661292729148242,0.8241245602393032,0.48542235616658486,5.309687811637558,-14.578745119426406
4.917285416728266,3.714389607264618,0.8289787838009691,0.3396349049723208,5.13663044630493,-15.419374792165517
4.954429312800912,3.765755911727667,0.8323751328506923,0.18544115705066563,5.008638052370006,-16.240270553578263
4.992086871918188,3.815842292251367,0.834229544421199,0.023038451514883013,4.932986646156061,-17.040892530638846
5.030245294840702,3.8651721587129275,0.8344599289363478,-0.14737047379150545,4.9170130094662925,-17.822463209904985
5.068897016427831,3.9143422888075903,0.8329862241984327,-0.3255951058905553,4.968118335948227,-18.588242729622117
5.108040439315907,3.9640234721670726,0.8297302731395272,-0.5114775331867765,5.093826000653425,-19.343788320224036
5.147680674037578,4.014961732173607,0.8246154978076594,-0.7049154163890168,5.301905116295322,-20.09720298573191
5.187830291359314,4.0679807833365595,0.8175663436437692,-0.9058874462463359,5.6005708746394625,-20.859385553385074
5.22851009919268,4.123986492082954,0.8085074691813059,-1.1144813017801867,5.998772325489089,-21.644301708688182
5.269749964113509,4.183974215337845,0.797362656163504,-1.3309243188670685,6.50657851069312,-22.469303005838494
5.311589706266887,4.249040000444777,0.7840534129748333,-1.5556173489254534,7.135674799321353,-23.355527373635795
5.3540801062713355,4.32039674843799,0.7684972394855788,-1.7891726226618114,7.89998238488315,-24.328419154745166
5.397284073755715,4.399396572286822,0.7506055132589606,-2.032456814209263,8.816413645205943,-25.4184068845691
5.441278039478584,4.487560708738881,0.730280945116868,-2.286640883054954,9.905770658665656,-26.661767733572614
5.486153646565972,4.586618415325538,0.7074145362863185,-2.55325856039068,11.19377525246662,-28.101677530604125
5.532019830719228,4.698556167850204,0.6818819506824116,-2.8342753356967214,12.712168471221013,-29.789369870132866
5.57900539239773,4.825677852562414,0.6535391973254444,-3.13216903439805,14.499696572353441,-31.78515343353909
5.627262170923354,4.970674818285949,0.6222175069814639,-3.450020568733441,16.6025266076198,-34.15864783116703
5.676968919106213,5.136700084362147,0.5877173012941296,-3.7916070470451113,19.073029914484884,-36.98674723249129
5.728335919949834,5.327430383506996,0.5498012308236785,-4.161474519370024,21.96456059753213,-40.34598214258085
5.781610223784904,5.547075989482317,0.5081864856299783,-4.564934340795833,25.317064014644107,-44.29203886763987
5.837080983679727,5.800246629628758,0.4625371422220199,-5.007854729472232,29.122591681819923,-48.811131983098456
5.895083449976015,6.091472546446957,0.4124585949272976,-5.495966049303217,33.24873618347798,-53.71243025340321
5.9559981754404845,6.423959908281736,0.3574989344342654,-6.033090351837249,37.28033211343103,-58.40598804076721
6.020237774523302,6.7967632294160465,0.2971680309158929,-6.617150232244921,40.227071561190776,-61.49289056175781
6.088205406817463,7.199033945027955,0.23099652859344366,-7.232079137862499,40.10621948136268,-60.180908846314935
6.160195746267743,7.600096139841582,0.15867573721481867,-7.833888226325648,33.76396934046878,-50.03709564895135
6.236196707666158,7.937735833246269,0.08033685495156219,-8.334259182815162,18.16402888424657,-26.804265550481336
6.315574065998621,8.119376122088735,-0.003005736876589421,-8.602301838319974,-5.607164393633414,7.965977771639119
6.396767827219508,8.0633044781524,-0.08902875525978916,-8.522642060603584,-29.319569571142946,42.67435990815259
6.477400872001032,7.77010878244097,-0.174255175865825,-8.095898461522058,-43.605316832027796,64.12384496611709
6.555101959825441,7.334055614120692,-0.2552141604810456,-7.454660011860887,-46.87990832203558,70.04873100825236
6.628442515966648,6.865256530900337,-0.3297607605996545,-6.754172701778363,-43.59003090671606,66.6571177757313
6.697095081275651,6.429356221833176,-0.39730248761743814,-6.08760152402105,-38.01748230505658,59.94564602211172
6.761388643493983,6.04918139878261,-0.45817850285764866,-5.488145063799933,-32.3383796119384,52.974208842160365
6.821880457481809,5.725797602663226,-0.513059953495648,-4.958402975378329,-27.315623111617693,46.826990002787795
6.879138433508441,5.452641371547049,-0.5626439832494313,-4.4901330753504505,-23.094226261637473,41.72075453511085
6.933664847223912,5.221699108930674,-0.6075453140029359,-4.072925529999342,-19.60669957870599,37.570595871868065
6.985881838313219,5.025632113143614,-0.6482745693029293,-3.697219571280661,-16.73427568164853,34.215600685140444
7.036138159444655,4.858289356327129,-0.6852467650157359,-3.3550635644292566,-14.362087174972265,31.49664498680797
7.084721053007926,4.714668484577406,-0.7187974006600285,-3.040097114561177,-12.394198983867385,29.27809264103815
7.1318677378537005,4.590726494738733,-0.7491983718056403,-2.7473161881507955,-10.754818473250284,27.45009690436521
7.177775002801088,4.48317831000623,-0.7766715336871483,-2.4728152191071433,-9.385430840840272,25.925131898713367
7.22260678590115,4.389324001597827,-0.8013996858782196,-2.21356390012001,-8.241250137982204,24.633521636064188
7.266500025917129,4.306911500218005,-0.8235353248794197,-1.967228683759368,-7.288037300189816,23.51946546588202
7.309569140919309,4.234031127216107,-0.8432076117170134,-1.7320340291005478,-6.499512342015861,22.537898693988797
7.35190945219147,4.169036003795949,-0.8605279520080189,-1.50665504216066,-5.855322531980079,21.65214573960079
7.3935998122294295,4.110482778476148,-0.8755945024296256,-1.290133584764652,-5.339463372081278,20.832221490662544
7.434704640014191,4.057088144755335,-0.8884958382772721,-1.0818113698580265,-4.939051338609766,20.05362913460717
7.475275521461744,4.007697631369237,-0.8993139519758523,-0.8812750785119547,-4.643367947649579,19.296522372544217
7.515352497775436,3.9612639518927413,-0.9081267027609718,-0.6883098547865125,-4.443116765256061,18.54512359020412
7.554965137294364,3.9168327842401807,-0.915009801308837,-0.5028586188844713,-4.329853137464356,17.78731069560384
7.594133465136766,3.873534252865537,-0.9200383874976817,-0.32498551192843284,-4.295559505062261,17.014303149500204
7.632868807665421,3.8305786578149146,-0.9232882426169661,-0.1548424804334308,-4.332347469741427,16.220393109608953
7.6711745942435705,3.7872551831175003,-0.9248366674213003,0.007361450662658725,-4.432272057717157,15.402681618449936
7.709047146074745,3.742932462540329,-0.9247630529146738,0.1613882668471581,-4.58724483571937,14.560793002913842
7.7464764707001486,3.697060014183135,-0.9231491702462021,0.30699619687629653,-4.789031707094223,13.69655319009686
7.78344707084198,3.649169697112193,-0.9200792082774392,0.44396172877726514,-5.0293193980921425,12.8136290856195
7.819938767813102,3.5988765031312715,-0.9156395909896665,0.5720980196334602,-5.29983280059415,11.917135849789284
7.855927532844414,3.54587817512533,-0.9099186107933319,0.691269378131353,-5.592484245050324,11.013226162138977
7.8913863145956675,3.4899533326748267,-0.9030059170120184,0.8014016397527428,-5.899535935881684,10.108679903461713
7.926285847922416,3.43095797331601,-0.894991900614491,0.90248843878736,-6.213758365929652,9.210513974006778
7.960595427655576,3.3688203896567135,-0.8859670162266173,0.9945935785274278,-6.528570400844243,8.32563047383477
7.994283631552143,3.303534685648271,-0.8760210804413431,1.0778498832657755,-6.838150513639132,7.460517808421258
8.027318978408626,3.2351531805118796,-0.8652425816086853,1.152455061349988,-7.137512849184405,6.621014276014018
8.059670510213746,3.1637780520200356,-0.8537180309951854,1.2186652041101282,-7.422545890865792,5.812138221017047
8.091308290733945,3.0895525931113776,-0.8415313789540841,1.2767865863202987,-7.690015055201385,5.037983678717249
8.122203816665058,3.012652442559364,-0.8287635130908811,1.3271664231074711,-7.937533269114073,4.301676165780541
8.152330341090652,2.9332771098682233,-0.8154918488598064,1.3701831847652766,-8.163505367445584,3.6053802134625728
8.181663112189334,2.8516420561937674,-0.8017900170121537,1.4062369868999023,-8.367053010904723,2.9503484824128456
8.21017953275127,2.7679715260847204,-0.7877276471431547,1.4357404717240307,-8.547926900108278,2.3370017352408805
8.237859248012118,2.682492257083638,-0.7733702424259143,1.4591104890764395,-8.70641254265076,1.7650293491506466
8.264684170582955,2.59542813165713,-0.7587791375351499,1.4767607825679459,-8.843234926253876,1.233501144550324
8.290638451899525,2.506995782394591,-0.7440115297094705,1.489095794013449,-8.95946635419844,0.7409828054651936
8.315708409723472,2.417401118852607,-0.729120571769336,1.496505622068101,-9.056440565102735,0.28564882993919
8.339882420911998,2.3268367132015793,-0.714155515548655,1.499362110367493,-9.135675199118927,-0.13461141423851067
8.363150788044013,2.23547996121039,-0.69916189444498,1.4980159962251078,-9.198803755248978,-0.5220974683241466
8.385505587656118,2.1434919236579004,-0.6841817344827289,1.4927950215418664,-9.2475174419493,-0.8792130754380276
8.406940506892697,2.0510167492384075,-0.6692537842673102,1.484002890787486,-9.283516760490695,-1.2083936591020132
8.427450674385081,1.9581815816335006,-0.6544137553594354,1.471918954196466,-9.308472264557222,-1.5120459001738347
8.447032490201417,1.8650968589879284,-0.6396945658174708,1.4567984951947275,-9.32399368697206,-1.7924987908418417
8.465683458791297,1.7718569221182079,-0.6251265808655235,1.438873507286309,-9.331606487725983,-2.051965200964157
8.48340202801248,1.6785408572409481,-0.6107378457926604,1.4183538552766675,-9.3327348291604,-2.2925128014469744
8.50018743658489,1.5852135089493442,-0.5965543072398938,1.3954287272621977,-9.328689999278497,-2.5160431149425846
8.516039571674384,1.4919266089565593,-0.5826000199672718,1.370268296112772,-9.320663361612626,-2.724277473280783
8.530958837763949,1.398719975340433,-0.5688973370061441,1.343025521379964,-9.309722992968375,-2.918748726361178
8.544946037517354,1.3056227454107492,-0.5554670817923445,1.3138380341163522,-9.296813265853642,-3.1007976469235774
8.558002264971462,1.2126546127522129,-0.542328701451181,1.2828300576471166,-9.282756731210165,-3.2715730930782425
8.570128811098984,1.1198270454401111,-0.5295004008747097,1.2501143267163342,-9.26825775289139,-3.432035113682547
8.581327081553384,1.0271444679111972,-0.5169992576075464,1.2157939755795086,-9.253907434217611,-3.582960302325385
8.591598526232497,0.9346053935690211,-0.5048413178517513,1.1799643725562547,-9.240189456709404,-3.7249488185456716
8.600944580168187,0.842203499001927,-0.4930416741261888,1.142714884370798,-9.227486520874303,-3.858432596962467
8.609366615158207,0.749928633793184,-0.48161452528248083,1.1041305584011734,-9.216087138718956,-3.9836843548969703
8.616865901496139,0.6577677624059944,-0.4705732196984691,1.0642937148522036,-9.206192578093791,-4.100827086660878
8.623443579120199,0.5657058366250565,-0.45993028254994706,1.0232854439855947,-9.197923801022158,-4.2098437985965145
8.629100637486449,0.4737265986148349,-0.4496974281100911,0.9811870059996296,-9.191328272984462,-4.310587294296205
8.633837903472598,0.3818133158849903,-0.4398855580500948,0.9380811330566675,-9.186386548948844,-4.402789865581134
8.637656036631448,0.28994945039550185,-0.43050474671952815,0.8940532344008562,-9.183018565975969,-4.486072783270074
8.640555531135403,0.19811926473574215,-0.4215642143755196,0.8491925065681554,-9.181089592613056,-4.559955513993183
8.642536723782761,0.1063083688096116,-0.4130722893098381,0.8035929514282235,-9.180415803057826,-4.623864616693199
8.643599807470858,0.014504210779033327,-0.40503635979555586,0.7573543052612915,-9.18076946010593,-4.6771422962500075
8.643744849578649,-0.07730348382202597,-0.3974628167429429,0.7105828822987915,-9.181883705939095,-4.7190546129270015
8.642971814740429,-0.16912232088141693,-0.390356987919955,0.6633923361695215,-9.183456974455504,-4.74879936592843
8.641280591531615,-0.260956890625972,-0.3837230645582598,0.6159043425102373,-9.185157053521005,-4.7655136879119935
8.638671022625354,-0.35280846116118203,-0.3775640211331574,0.5682492056311174,-9.186624840511856,-4.768281405231493
8.635142938013743,-0.4446747095663006,-0.37188152907684624,0.5205663915788025,-9.187477849955334,-4.756140236162552
8.63069619091808,-0.536549488065854,-0.3666758651610582,0.47300498921717693,-9.187313547938714,-4.72808891632884
8.625330696037421,-0.6284226235452411,-0.3619458152688864,0.4257241000538885,-9.185712604090638,-4.683094356693354
8.619046469801969,-0.7202797495861475,-0.35768857426834755,0.378893156486955,-9.182242168046637,-4.620098954268922
8.611843672306108,-0.8121021712666139,-0.353899642703478,0.33269216694426573,-9.17645929295893,-4.538028188352558
8.603722650593442,-0.9038667641962032,-0.35057272103403536,0.2873118850607401,-9.167914643235013,-4.4357986445839375
8.59468398295148,-0.9955459106285532,-0.34769960218342794,0.24295389861490074,-9.15615663659062,-4.312326614218568
8.584728523845195,-1.0871074769944595,-0.34527006319727893,0.19983063247271507,-9.140736180855443,-4.166537415225576
8.57385744907525,-1.178514838803014,-0.3432717568725518,0.1581652583204593,-9.12121217282302,-3.99737557349783
8.56207230068722,-1.2697269605312442,-0.3416901042893472,0.118191502585481,-9.097157928733985,-3.803815984771948
8.549375031081908,-1.360698539818584,-0.3405081892634924,0.08015334273776152,-9.068168712579478,-3.584876148856705
8.535768045683723,-1.4513802269443787,-0.3397066558361148,0.044304581249194466,-9.033870518125491,-3.339629525507695
8.521254243414278,-1.5417189321256337,-0.3392636100236229,0.010908285994117514,-8.993930242221763,-3.0672200039022086
8.505837054093021,-1.6316582345478514,-0.3391545271636817,-0.019763914044904574,-8.948067359519657,-2.7668774035694432
8.489520471747543,-1.721138908143048,-0.3393521663041308,-0.04743268808059901,-8.89606717136541,-2.4379338326907036
8.472309082666113,-1.8100995798567021,-0.3398264931849368,-0.07181202640750604,-8.837795653948474,-2.079840619507594
8.454208086867546,-1.8984775363961868,-0.3405446134490119,-0.09261043260258198,-8.773215872957953,-1.6921854047795029
8.435223311503584,-1.9862096951257664,-0.3414707177750377,-0.10953228665037701,-8.702405865060761,-1.2747088397639368
8.415361214552327,-2.073233753776374,-0.34256604064154145,-0.12227937504801638,-8.625577812574585,-0.8273201786286842
8.394628877014563,-2.15948953190212,-0.3437888343920216,-0.1305525768343032,-8.543098260212915,-0.3501108919865031
8.373033981695542,-2.244920514504249,-0.34509436016036465,-0.13405368575416823,-8.455509046720005,0.15663473319211935
8.3505847765505,-2.329475604971449,-0.34643489701790636,-0.13248733842224705,-8.363548556261405,0.6924331933277109
8.327290020500785,-2.413111090534063,-0.34775977040212885,-0.12556300648896995,-8.268172842955297,1.2566008838960714
8.303158909595444,-2.4957928189636163,-0.34901540046701857,-0.11299699765000924,-8.170576156815569,1.848260144570667
8.278200981405808,-2.577498580531772,-0.3501453704435187,-0.09451439620430258,-8.072210411686735,2.466353700189758
8.25242599560049,-2.658220684648639,-0.3510905144055617,-0.069850859202405,-7.974803197102526,3.1096689622726483
8.225843788754004,-2.7379687166196645,-0.35178902299758574,-0.03875416957967851,-7.880374057775117,3.7768735935329554
8.198464101587808,-2.8167724571974158,-0.35217656469338254,-0.000985433644348957,-7.791248956806127,4.466563614479074
8.170296377015834,-2.894684946765477,-0.35218641902982606,0.04368020250044178,-7.710073109735371,5.177325154379117
8.14134952754818,-2.9717856778628304,-0.35174961700482166,0.09545345404423294,-7.63982273127185,5.907810736342327
8.111631670769551,-3.048183905175549,-0.35079508246437935,0.15453156140765623,-7.5838166766612725,6.656830767402077
8.081149831717795,-3.1240220719421616,-0.3492497668503028,0.221099869081677,-7.545729483620343,7.423460721005148
8.049909610998373,-3.199479366778365,-0.34703876815948603,0.2953344762917285,-7.529607924929797,8.207164404915725
8.01791481733059,-3.2747754460276632,-0.3440854233965687,0.3774061203408857,-7.539893862238056,9.00793376635042
7.985167062870313,-3.350174384650044,-0.3403113621931599,0.4674854580043899,-7.581456947138628,9.82644596997637
7.951665319023813,-3.42598895412143,-0.335636507613116,0.5657499177041536,-7.659641550968646,10.664239068941903
7.917405429482598,-3.5025853696311167,-0.3299790084360744,0.6723923083935727,-7.7803332342657505,11.52390854921476
7.882379575786287,-3.5803887019737743,-0.3232550853521387,0.7876313938857202,-7.950051116074965,12.409328430928891
7.846575688766549,-3.659889213134524,-0.3153787714132815,0.9117246781950091,-8.176073707905415,13.325902508460544
7.809976796635204,-3.7416499502135783,-0.30626152463133144,1.0449837032796145,-8.466607173592402,14.280853721310768
7.772560297133068,-3.8263160219495025,-0.29581168759853527,1.1877922404927221,-8.831006577877798,15.283562520044047
7.734297136913573,-3.9146260877282804,-0.283933765193608,1.3406278656931625,-9.280062428935365,16.345968233121024
7.69515087603629,-4.007426712017634,-0.2705274865366764,1.5040875480243727,-9.826366446998762,17.483050361369244
7.655076608916113,-4.105690376487622,-0.25548661105643267,1.6789180516380653,-10.484771317511711,18.713408312744527
7.614019705151237,-4.210538089662739,-0.23869743054005202,1.8660521347655106,-11.272957612328554,20.05995592411269
7.571914324254609,-4.323267665786025,-0.2200369091923969,2.0666516940066373,-12.212113569648364,21.5507360756074
7.528681647596749,-4.445388801482508,-0.19937039225233052,2.2821590547627113,-13.327712510846784,23.219830049217304
7.484227759581924,-4.578665926590976,-0.1765488017047034,2.5143573552548846,-14.650322559465824,25.108263629263398
7.438441100316014,-4.725169152185635,-0.15140522815215457,2.7654399915475185,-16.216271017350596,27.264650697744493
