th1 (rad),w1 (rad/s),th2 (rad),w2 (rad/s),a1 (rad/s^2),a2 (rad/s^2)
5.52006123896304,-2.8768911464063387,6.212889370493323,0.8896533060414485,12.493703035683394,-14.211189102264605
5.491292327498976,-2.7519541160495047,6.221785903553737,0.7475414150188024,12.204348978470051,-13.54217037833533
5.463772786338481,-2.629910626264804,6.2292613177039255,0.6121197112354492,11.929525363825546,-12.86583351398341
5.437473680075833,-2.5106153726265488,6.23538251481628,0.48346137609561507,11.676267811430913,-12.19658127983657
5.412367526349567,-2.3938526945122396,6.240217128577236,0.36149556329724936,11.448130956558392,-11.543668217269785
5.388428999404445,-2.2793713849466557,6.243832084210209,0.2460588811245515,11.246354663044189,-10.912855545517218
5.365635285554978,-2.166907838316214,6.246292673021454,0.1369303256693793,11.070690459429523,-10.307588854986133
5.343966207171816,-2.0562009337219185,6.247661976278148,0.033854437119517966,10.919974810357967,-9.729817201597177
5.323404197834597,-1.947001185618339,6.248000520649343,-0.0634437348964538,10.792520280947002,-9.18055234376612
5.303934185978413,-1.839075982808869,6.247366083300379,-0.15524925833411501,10.686378684342355,-8.66024412489009
5.2855434261503245,-1.7322121959654455,6.245813590717037,-0.24185169958301592,10.59951563318696,-8.169027952504472
5.26822130419067,-1.626217039633576,6.243395073721207,-0.32354197910806065,10.52992445453196,-7.70688445931121
5.251959133794334,-1.5209177950882564,6.240159653930127,-0.40061082370117274,10.47569895118108,-7.273739573888472
5.236749955843451,-1.4161608055764456,6.236153545693115,-0.47334821944005745,10.435078426470028,-6.869524656588221
5.222588347787687,-1.3118100213117454,6.231420063498715,-0.5420434660059397,10.406474138582626,-6.494210281890611
5.209470247574569,-1.2077452799259192,6.225999628838656,-0.6069855688248458,10.388483412576798,-6.1478229960771165
5.19739279477531,-1.103860445800151,6.219929773150407,-0.6684637987856169,10.379895626769127,-5.830451422492069
5.186354190317309,-1.0000614895324598,6.213245135162551,-0.7267683130105376,10.379692921566738,-5.542246037577262
5.1763535754219845,-0.8962645603167924,6.205977452032446,-0.7821907733863102,10.387047551220515,-5.283415521112974
5.167390929818817,-0.7923940848045872,6.198155544298583,-0.8350249285974399,10.401317170691613,-5.054221597802553
5.159466988970771,-0.688380913097671,6.189805295012609,-0.8855671445754655,10.422038922467616,-4.8549735977165716
5.1525831798397945,-0.5841605238729949,6.180949623566854,-0.9341168805526312,10.448922893481532,-4.6860234747020355
5.146741574601065,-0.47967129493817956,6.171608454761328,-0.9809771152996516,10.481845302642164,-4.547761667445763
5.141944861651683,-0.37485284191175794,6.161798683608332,-1.0264547319741093,10.520841621009764,-4.440613919063608
5.138196333232566,-0.2696444257016603,6.151534136288591,-1.0708608711647454,10.566099694306466,-4.365038951492806
5.135499888975549,-0.16398342875859565,6.140825527576943,-1.1145112606796734,10.61795281138299,-4.321526691218777
5.133860054687964,-0.057803900644765746,6.129680414970147,-1.1577265275918611,10.676872524973573,-4.310596536701477
5.133282015681516,0.048964824604969995,6.118103149694228,-1.2008324929588758,10.74346086502818,-4.332794918823383
5.133771663927566,0.1563994332552518,6.106094824764639,-1.2441604421471097,10.818441370296544,-4.388691104012413
5.135335658260118,0.26458384695821724,6.093653220343168,-1.2880473531872338,10.902648076186495,-4.478869789081966
5.1379814967297,0.3736103277200822,6.080772746811296,-1.3328360510780535,10.99701120442327,-4.603918490655196
5.141717600006901,0.48358043976431486,6.067444386300515,-1.3788752359846055,11.102537760369659,-4.764406978934951
5.1465534044045445,0.5946058173680114,6.053655633940669,-1.426519305773955,11.220284500422459,-4.960854964196297
5.152499462578224,0.706808662372236,6.039390440882929,-1.4761278554159178,11.351319709618766,-5.1936828075661285
5.159567549201947,0.8203218594684237,6.02462916232877,-1.5280646834915792,11.496668830978862,-5.46313805696674
5.167770767796632,0.9352885477782124,6.009348515493854,-1.5826960640612466,11.65723709113177,-5.769187931943767
5.177123653274414,1.05186091868953,5.993521554853242,-1.6403879433806843,11.83369972814552,-6.111364295709003
5.187642262461309,1.1701979159709852,5.977117675419435,-1.7015015863377743,12.026347098999791,-6.48854295154141
5.199344241621019,1.2904613869609831,5.960102659556057,-1.7663870158531885,12.234867716277805,-6.898633132592576
5.212248855490629,1.412810064123761,5.942438789397525,-1.8353733471791143,12.458047163282092,-7.338145863326564
5.226376956131867,1.537390535756582,5.924085055925734,-1.90875480581238,12.693355225428261,-7.8016019781823625
5.241750861489433,1.6643240880108647,5.90499750786761,-1.9867708255942036,12.936388524497126,-8.280733517560286
5.258394102369542,1.793687973255836,5.885129799611668,-2.0695781607698063,13.180133893955242,-8.763429458152709
5.276330982102101,1.9254893121953884,5.864434018003969,-2.1572124553513334,13.41402358152779,-9.232385223263863
5.295585875224055,2.0596295480106663,5.842861893450456,-2.249536307583972,13.622776010631979,-9.663447787309337
5.316182170704161,2.1958573081169863,5.820366530374616,-2.3461707854570655,13.785069955491302,-10.023725254305827
5.338140743785331,2.3337080076718992,5.7969048225200455,-2.446408038000124,13.872206836558313,-10.269681686644113
5.36147782386205,2.472430076037482,5.772440742140044,-2.549104854866565,13.847099799115421,-10.345699282332346
5.386202124622425,2.6109010740286362,5.746949693591379,-2.6525618476898885,13.664202384687467,-10.183979443177373
5.412311135362711,2.747543097875511,5.72042407511448,-2.754401642121662,13.271320333388205,-9.707124596816923
5.439786566341466,2.880256301209393,5.692880058693264,-2.8514728880898312,12.614494869967082,-8.835092644189286
5.46858912935356,3.006401249909064,5.664365329812366,-2.939823814531724,11.646987480232037,-7.497997015626019
5.4986531418526505,3.1228711247113843,5.634967091667049,-3.014803784687984,10.342368076524963,-5.654776557354389
5.529881853099765,3.226294805476634,5.604819053820169,-3.071351550261528,8.709488612115424,-3.3146215479842334
5.562144801154531,3.3133896915977883,5.5741055383175535,-3.10449776574137,6.804191529947703,-0.5538841258342788
5.595278698070509,3.3814316068972654,5.54306056066014,-3.1100366069997127,4.730829941177277,2.481337764970326
5.629093014139482,3.4287399063090382,5.511960194590143,-3.0852232293500093,2.6286962861471106,5.5939524840444514
5.663380413202572,3.4550268691705095,5.481107962296643,-3.029283704509565,0.6450766700061391,8.573664168760638
5.6979306818942765,3.461477635870571,5.450815125251547,-2.9435470628219584,-1.0956187018749457,11.240571758374163
5.732545458252982,3.450521448851821,5.421379654623328,-2.831141345238217,-2.5143927049670616,13.477309067147614
5.7670506727415,3.4253775218021505,5.393068241170946,-2.6963682545667407,-3.584412465222404,15.239123547045999
5.801304447959522,3.3895333971499264,5.3661045586252785,-2.5439770190962805,-4.323046062433303,16.543247656227916
5.8351997819310215,3.346302936525593,5.3406647884343155,-2.3785445425340015,-4.776132277872773,17.447214068304316
5.868662811296278,3.2985416137468655,5.316879343008975,-2.2040724018509583,-5.001908868512164,18.026508597882334
5.901648227433746,3.2485225250617438,5.2948386189904655,-2.023807315872135,-5.0589964293792855,18.35776041914488
5.934133452684364,3.197932560767951,5.274600545831744,-1.840229711680686,-4.999472949950755,18.508975634376228
5.966112778292043,3.1479378312684436,5.256198248714937,-1.6551399553369237,-4.866085877180055,18.5355287459165
5.997592156604727,3.099276972496643,5.239646849161568,-1.4697846678777586,-4.692077527160337,18.479811504355673
6.028584926329694,3.0523561972250395,5.2249490024827905,-1.284986552834202,-4.502316687797768,18.37272749046811
6.059108488301945,3.007333030347062,5.212099136954448,-1.1012592779295207,-4.314876206760837,18.2358358024839
6.089181818605415,2.9641842682794532,5.201086544175153,-0.9189009199046817,-4.142590832316637,18.083493096062064
6.11882366128821,2.922758359956287,5.191897534976106,-0.7380659889440611,-3.994393422970938,17.9247094226012
6.148051244887773,2.8828144257265778,5.184516875086666,-0.558818894718049,-3.876375647666325,17.76463927443098
6.176879389145038,2.8440506692499143,5.178928686139486,-0.3811725019737392,-3.792589731603556,17.605727607168095
6.205319895837538,2.8061247719338787,5.175116961119748,-0.20511522590205825,-3.7456340713866134,17.448567555105615
6.233381143556876,2.7686684312200125,5.173065808860728,-0.030629550351002094,-3.737069833111697,17.29253283130539
6.261067827869076,2.7312977328888954,5.172759513357218,0.1422957779620518,-3.767710645830045,17.136241030666184
6.288380805197965,2.693620626430595,5.174182471136839,0.31365818826871367,-3.8378196792554564,16.977893242158316
6.315317011462271,2.6552424296380406,5.177319053019526,0.4834371206902969,-3.947240665491849,16.815524612177267
6.341869435758652,2.615770022983122,5.1821534242264296,0.6515923668120696,-4.095482870344312,16.647191321836804
6.368027135988483,2.574815194279679,5.1886693478945505,0.8180642800304376,-4.281774859498895,16.471112185895105
6.39377528793128,2.53199744568469,5.196849990694854,0.9827754018893887,-4.505098004084205,16.28577759442371
6.419095262388128,2.486946465643848,5.2066777447137484,1.1456331778336257,-4.764207785202451,16.09003448900056
6.443964727044566,2.4393043877918235,5.218134076492085,1.3065335227236314,-5.057648841542153,15.883153173408646
6.468357770922484,2.388727899376402,5.231199411719321,1.465365054457718,-5.383768148245643,15.664879730360461
6.4922450499162485,2.3348902178939457,5.245853062263898,1.6220138517613225,-5.740729554162752,15.43547643369764
6.5155939520951875,2.277482922352318,5.262073200781511,1.776368616098299,-6.126532015638336,15.195751644858609
6.53836878131871,2.2162176021959348,5.279836886942494,1.928326132546885,-6.539033159664651,14.947080139621212
6.56053095734067,2.1508272705992884,5.299120148267963,2.0777969339430973,-6.975979225946219,14.691414533276644
6.582039230046663,2.081067478339826,5.319898117607393,2.2247110792758638,-7.4350419344972725,14.431288387789873
6.602849904830061,2.006717058994853,5.342145228400152,2.3690239631537624,-7.913862375387299,14.16981163515429
6.622917075420009,1.9275784352409802,5.3658354680316895,2.5107220795053053,-8.410101602130204,13.910659086711666
6.642192859772419,1.8434774192196781,5.390942688826742,2.649828670372422,-8.921497216939281,13.658052970962386
6.660627633964616,1.7542624470502852,5.417440975530466,2.786409200082046,-9.445924852184618,13.416740602591858
6.678170258435118,1.6598031985284392,5.445305067531287,2.9205766061079643,-9.981463061000259,13.191968376285905
6.694768290420403,1.5599885679184367,5.474510833592366,3.0524962898708234,-10.52645970347359,12.989453230131923
6.710368176099587,1.4547239708837008,5.505035796491074,3.1823908221721426,-11.079597406331917,12.815352442074476
6.724915415808424,1.3439279968203817,5.536859704712795,3.3105443465928874,-11.639955005293434,12.67623197937576
6.7383546957766285,1.2275284467674474,5.569965148178724,3.437306666386645,-12.207060922991067,12.579032426943774
6.750629980244303,1.1054578375375368,5.604338214842591,3.5630969906560828,-12.780932988888143,12.531029493875295
6.761684558619678,0.9776485076486554,5.639969184749152,3.6884072855948355,-13.36209695301454,12.539782808829973
6.771461043696165,0.8440275381185101,5.6768532576051,3.8138051136831352,-13.951572389886852,12.613061501934606
6.77990131907735,0.7045118142196416,5.714991308741932,3.939935728702481,-14.550809076108893,12.758726911967525
6.786946437219546,0.5590037234585526,5.754390666028956,4.067522997822157,-15.16154810627632,12.98454008369025
6.792536474454132,0.4073882423957894,5.795065896007178,4.1973683986590595,-15.785568271550753,13.297842156401144
6.79661035687809,0.24953255968028187,5.837039579993768,4.330346820223071,-16.42425707189486,13.705025790433256
6.7991056824748926,0.08528998896133327,5.880343048195999,4.467397078127404,-17.077913723840872,14.210670515895778
6.799958582364506,-0.08548914827707546,5.9250170189772735,4.609503783286362,-17.744644354414557,14.81614802220365
6.7991036908817355,-0.26293559182122106,5.971112056810137,4.7576652635083985,-18.418643027246137,15.517408463016542
6.7964743349635235,-0.44712202209368246,6.018688709445221,4.912839348138564,-19.08756552213927,16.301533565114084
6.792003114742586,-0.6379976773150752,6.067817102926607,5.075854683789705,-19.72860741965338,17.141500780758065
6.785623137969435,-0.8352837515116089,6.118575649764503,5.247269691597286,-20.302838987862877,17.988504331427954
6.777270300454319,-1.0383121413902376,6.171048346680476,5.427154734911566,-20.747448974750775,18.76128957613336
6.766887179040417,-1.2457866311377455,6.2253198940295915,5.614767630672899,-20.966084605410185,19.33265722573284
6.754429312729039,-1.4554474771918473,6.2814675703363205,5.808094202930228,-20.81897064423081,19.515312139420978
6.739874837957121,-1.6636371836341555,6.339548512365623,6.0032473243244375,-20.11769458470908,19.053619837003446
6.72323846612078,-1.8648141294812464,6.399580985608867,6.193783522694472,-18.63485146007371,17.63518039465607
6.7045903248259675,-2.0511626440819835,6.461518820835812,6.370135326641033,-16.144226300457074,14.943845686656188
6.6840786983851475,-2.212604907086554,6.5252201741022215,6.519573783507594,-12.505100843659395,10.773235925006366
6.661952649314282,-2.337655915523148,6.590415911937297,6.627306142757658,-7.780602120743172,5.1875740049406165
6.6385760901590505,-2.41546193673058,6.656688973364874,6.679181882807065,-2.3302988898512553,-1.3515781477964663
6.614421470791744,-2.4387649256290924,6.7234807921929445,6.6656661013291,3.2192473710194704,-8.024301469255718
6.590033821535453,-2.4065724519188976,6.790137453206236,6.585423086636543,8.16855583726972,-13.914806928599267
6.565968097016264,-2.3248868935462004,6.855991684072601,6.44627501735055,12.003747503161437,-18.35968643247726
6.542719228080802,-2.204849418514586,6.920454434246106,6.262678153025778,14.543642396423124,-21.142325716786484
6.520670733895656,-2.0594129945503545,6.983081215776364,6.051254895857913,15.902469350639212,-22.436961189523753
6.500076603950153,-1.9003883010439624,7.043593764734943,5.8268852839626755,16.34808737483856,-22.614251468770938
6.481072720939713,-1.7369074272955767,7.10186261757457,5.600742769274966,16.170280016340065,-22.064429977368267
6.463703646666757,-1.575204627132176,7.15787004526732,5.3800984695012835,15.609822975218698,-21.104836380046926
6.447951600395435,-1.4191063973799891,7.211671029962332,5.169050105700814,14.839770383910418,-19.958108014109605
6.4337605364216355,-1.270708693540885,7.26336153101934,4.969469025559718,13.973335458739522,-18.765318321723836
6.421053449486227,-1.1309753389534896,7.3130562212749375,4.781815842342479,13.079511577088597,-17.60847547054076
6.409743696096692,-1.0001802231826036,7.3608743796983624,4.605731087637071,12.197635692011971,-16.53079088764922
6.399741893864866,-0.8782038662624838,7.4069316905747336,4.440423178760579,11.34833365668453,-15.551590765145693
6.390959855202241,-0.7647205296956385,7.45133592236234,4.284907271109122,10.540946517971834,-14.676244103398837
6.383312649905284,-0.6593110645159201,7.4941849950734305,4.138144830075134,9.778288023157765,-13.90239782238882
6.376719539260125,-0.5615281842843425,7.535566443374182,3.9991208518512456,9.05958402907093,-13.22374142873619
6.371104257417282,-0.47093234399363315,7.575557651892694,3.8668834375638834,8.38224097048082,-12.632208352722333
6.366394933977346,-0.38710993428882495,7.6142264862683335,3.74056135403666,7.742884159009778,-12.119220948091149
6.362523834634458,-0.3096810926987272,7.6516320998087,3.6193691445557485,7.137949898639064,-11.676364144007287
6.359427023707471,-0.23830159371233653,7.687825791254258,3.5026055031156758,6.564008902508052,-11.2957245608562
6.357044007770347,-0.172661504687256,7.7228518462854145,3.3896482575071136,6.017930008288704,-10.97003798355883
6.3553173927234745,-0.11248220460436896,7.7567483288604855,3.279947877671525,5.4969504172557775,-10.692730225115524
6.354192570677431,-0.057512700431811184,7.7895478076372004,3.1730205754203697,4.998692396805915,-10.457901347345912
6.353617443673113,-0.007525776463752028,7.821278013391404,3.0684415619469108,4.521150377286837,-10.2602821714113
6.353542185908475,0.03768572730911634,7.851962429010873,2.965838740232798,4.062662674805525,-10.095179487529078
6.353919043181566,0.07831235405717159,7.881620816413202,2.864886945357507,3.621876216175647,-9.958418971316714
6.354702166722138,0.11453111621892806,7.910269685866777,2.76530275564434,3.1977091187935955,-9.8462904795049
6.3558474778843275,0.14650820740686402,7.93792271342322,2.666839850849291,2.78931386688162,-9.755497894411144
6.357312559958396,0.17440134607568022,7.964591111931713,2.5692848719051797,2.396042567714232,-9.683114273172196
6.359056573419153,0.19836177175282255,7.990283960650765,2.472453729173458,2.0174150284269534,-9.62654229003916
6.361040191136681,0.21853592203709207,8.0150084979425,2.3761883062730664,1.6530899603758555,-9.583479571896127
6.363225550357051,0.23506682164085063,8.03877038100523,2.280353510554105,1.3028393692498543,-9.551888359162234
6.36557621857346,0.24809521533334916,8.061573916110772,2.1848346269624828,0.9665260498844922,-9.529968880992016
6.368057170726793,0.2577604758321941,8.083422262380397,2.0895349381525627,0.6440840295749498,-9.51613585827143
6.370634775485115,0.26420131612794356,8.104317611761923,1.9943735795698485,0.3355017654737865,-9.50899760652489
6.373276788646395,0.26755633378268145,8.12426134755762,1.8992836035045997,0.040807884333377085,-9.507337283649305
6.375952351984222,0.2679644126260152,8.143254183592667,1.8042102306681067,-0.23994075289847216,-9.510095902930324
6.3786319961104825,0.2655650050970305,8.161296285899349,1.7091092716388034,-0.5066688785565827,-9.516356803705627
6.381287646161453,0.2604983163114647,8.178387378615737,1.6139457036017473,-0.759290750715362,-9.525331337015794
6.383892629324567,0.25290540880431106,8.194526835651754,1.5186923902315894,-0.9977163975232013,-9.536345580166781
6.38642168341261,0.24292824482907904,8.20971375955407,1.4233289344299216,-1.2218563730281446,-9.54882794196513
6.388850965860901,0.2307096810987976,8.223947048898369,1.3278406550102704,-1.4316252158574705,-9.562297559774922
6.391158062671889,0.2163934289402229,8.237225455448472,1.2322176794125212,-1.6269437930305868,-9.576353421150637
6.3933219969612916,0.20012399100991704,8.249547632242598,1.1364541452010148,-1.8077407013450502,-9.590664167483677
6.39532323687139,0.18204658399646653,8.260912173694608,1.040547503526178,-1.9739528882599975,-9.60495855580367
6.397143702711355,0.16230705511386656,8.27131764872987,0.9444979179681413,-2.125525643114635,-9.61901656855022
6.398766773262493,0.14105179868272022,8.280762627909551,0.8483077522826391,-2.2624120979985585,-9.63266117068743
6.400177291249321,0.11842767770273463,8.289245705432377,0.7519811405757648,-2.3845723657931894,-9.64575071981556
6.401361568026348,0.09458195404480274,8.296765516838134,0.6555236333776092,-2.491972430997218,-9.658172038694923
6.402307387566796,0.06966222973483056,8.30332075317191,0.55894191299066,-2.584582897095959,-9.669834161492076
6.403004009864144,0.04381640076387097,8.308910172301816,0.46224357137573924,-2.662377682581494,-9.680662765639775
6.403442173871783,0.01719262393805603,8.313532608015574,0.3654369437193415,-2.725332746395991,-9.690595300919986
6.403614100111163,-0.010060703525903884,8.317186977452767,0.26853099071014164,-2.773424912639973,-9.699576826585412
6.403513493075904,-0.037794952652303614,8.31987228735987,0.1715352224442875,-2.806630853908131,-9.707556566290698
6.40313554354938,-0.06586126119138493,8.321587639584312,0.07445965678138053,-2.824926282595421,-9.71448518948795
6.402476930937467,-0.09411052401733913,8.322332236152125,-0.02268519511349898,-2.8282853899266924,-9.72031282685881
