th1 (rad),w1 (rad/s),th2 (rad),w2 (rad/s)
0.9160779143475213,-0.16671422210996506,4.674192949119836,-0.9451331075596071
0.9144107721264216,-0.22712380748215555,4.66474161804424,-0.8963317109390609
0.9121395340516001,-0.286897270277738,4.655778300934849,-0.8471843204149806
0.9092705613488227,-0.3459859130477152,4.647306457730699,-0.7975747585166687
0.9058107022183455,-0.4043391052074025,4.639330710145533,-0.7473876955427213
0.9017673111662714,-0.46190480839640446,4.631856833190105,-0.6965087730879574
0.8971482630823073,-0.5186301242059311,4.624891745459226,-0.6448247811962313
0.891961961840248,-0.5744618734034977,4.618443497647263,-0.5922238971753481
0.886217343106213,-0.6293472153051158,4.6125212586755096,-0.5385959936372615
0.8799238709531618,-0.6832343150147944,4.607135298739137,-0.48383302209830936
0.8730915278030139,-0.7360730648474422,4.602296968518154,-0.4278294764746487
0.8657307971545395,-0.7878158643650762,4.5980186737534074,-0.37048293804169574
0.8578526385108888,-0.8384184610956685,4.594313844372991,-0.3116946999225518
0.8494684538999321,-0.8878408511982084,4.591196897373766,-0.2513704649890968
0.84059004538795,-0.9360482361415745,4.588683192723875,-0.18942110629769737
0.8312295630265343,-0.9830120279640703,4.586788981660898,-0.12576347397942944
0.8213994427468936,-1.0287108919950374,4.585531346921104,-0.06032122705014528
0.8111123338269433,-1.073131812206899,4.584928134650602,0.006974336864215613
0.8003810157048743,-1.1162711608192242,4.584997878019244,0.07618348609299296
0.789218304096682,-1.1581357506228174,4.585759712880174,0.1473573305929961
0.7776369465904539,-1.1987438459828392,4.587233286186104,0.22053720921677603
0.7656495081306255,-1.2381261068781877,4.589438658278271,0.2957542314548216
0.7532682470618436,-1.276326439895308,4.59239620059282,0.3730290173135779
0.7405049826628906,-1.3134027310444634,4.596126490765956,0.4523716779119625
0.7273709553524459,-1.3494274377775382,4.600650207545075,0.5337820762752378
0.7138766809746705,-1.384488021752738,4.605988028307828,0.6172504026472201
0.7000318007571431,-1.4186872097081182,4.6121605323343005,0.7027580915604479
0.685844928660062,-1.45214307715487,4.619188113249905,0.7902790992065648
0.6713234978885133,-1.4849889582483962,4.62709090424197,0.8797815498215601
0.6564736083060293,-1.5173731947987834,4.635888719740186,0.971229749489783
0.6412998763580414,-1.54945874751626,4.645601017235084,1.0645865557495258
0.6258052888828788,-1.581422702776998,4.656246882792579,1.159816082497527
0.6099910618551088,-1.6134557179630313,4.667845043617554,1.256886712795799
0.5938565046754785,-1.6457614573489916,4.680413910745512,1.3557743880800122
0.5773988901019885,-1.6785560782500122,4.693971654626312,1.4564661416330162
0.5606133293194884,-1.7120678335268709,4.7085363160426414,1.558963847531401
0.5434926509842196,-1.7465368615616264,4.724125954517955,1.6632881639154329
0.5260272823686033,-1.7822152386599346,4.740758836157109,1.7694826614979615
0.508205129982004,-1.819367371888955,4.758453662772089,1.877618144673662
0.49001145626311443,-1.8582708131810484,4.777229844218826,1.987797193255452
0.471428748131304,-1.8992175788210262,4.79710781615138,2.1001589775327427
0.4524365723430937,-1.9425160629738814,4.818109405926707,2.214884427804653
0.4330114117133549,-1.9884936405052078,4.840258250204753,2.3322018716279826
0.4131264753083028,-2.0375000637277765,4.863580268921033,2.452393287620931
0.39275147467102506,-2.089911770391205,4.888104201797242,2.575801363630433
0.371852356967113,-2.1461372362935083,4.9138622154335465,2.7028375889894085
0.3503909846041779,-2.206623524576178,4.94089059132344,2.8339916542937376
0.3283247493584161,-2.2718642027689655,4.969230507866378,2.969842474757282
0.30560610733072646,-2.342408812841843,4.998928932613951,3.1110711884438174
0.282182019202308,-2.4188740785568825,5.030039644498389,3.2584764955150964
0.2579932784167392,-2.501956998382686,5.06262440945354,3.4129926733863565
0.23297370843291232,-2.5924498636456037,5.096754336187404,3.5757104759669893
0.20704920979645627,-2.691256990600726,5.132511440947074,3.7479008095760844
0.180136639890449,-2.799412432290956,5.169990449042834,3.9310403985980447
0.15214251556753944,-2.9180969023200984,5.2093008530288145,4.126837284269707
0.12296154654433845,-3.0486501576036487,5.250569225871511,4.337251335266517
0.09247504496830197,-3.192571344447847,5.293941739224176,4.564499875217266
0.0605493315238235,-3.3514928545382667,5.339586737976349,4.811029026815201
0.027034402978440834,-3.527100501248062,5.387697028244501,5.079413859348544
-0.008236602034039787,-3.720950055509472,5.438491166837987,5.372118937302331
-0.04544610258913451,-3.9340911784626664,5.49221235621101,5.690996646638414
-0.08478701437376118,-4.166348572140906,5.549122322677395,6.036315082227671
-0.12645050009517025,-4.41503230815126,5.609485473499672,6.404997445018041
-0.17060082317668285,-4.6728101919851985,5.6735354479498525,6.787696983567824
-0.21732892509653484,-4.924674820606139,5.741412417785531,7.164603357221955
-0.26657567330259624,-5.144850427161662,5.813058451357751,7.501138568763671
-0.31802417757421286,-5.296638983691656,5.8880698370453874,7.7476950328561855
-0.3709905674111294,-5.340472776695044,5.965546787373949,7.8507263554555164
-0.42439529517807983,-5.252175633393687,6.044054050928504,7.777953476203998
-0.4769170515120167,-5.040097237911718,6.121833585690544,7.541902508471798
-0.5273180238911339,-4.742299949744978,6.197252610775262,7.195716168654411
-0.5747410233885837,-4.404806060058917,6.2692097724618066,6.802905437910809
-0.6187890839891729,-4.062673177364021,6.337238826840915,6.41135213098434
-0.659415815762813,-3.7353532739787623,6.401352348150758,6.047212837396585
-0.6967693485026006,-3.43068534137512,6.461824476524724,5.7206619891192005
-0.7310762019163518,-3.1500309662919923,6.519031096415915,5.433070130006127
-0.7625765115792718,-2.8917853001430354,6.573361797715976,5.181851915764849
-0.7914943645807021,-2.6532739300124226,6.6251803168736245,4.963053823167076
-0.8180271038808263,-2.431648481986382,6.674810855105295,4.772555355469483
-0.8423435887006901,-2.224260663790542,6.72253640865999,4.606555362900518
-0.8645861953385956,-2.028788783056262,6.7686019622889955,4.4617232851590325
-0.8848740831691582,-1.843255254308704,6.813219195140586,4.3352055369467335
-0.9033066357122452,-1.6660008295288589,6.856571250510053,4.224576374598711
-0.9199666440075338,-1.495645318697031,6.89881701425604,4.127773150676646
-0.9349230971945042,-1.3310475123610555,6.940094745762806,4.043032655306634
-0.9482335723181148,-1.171269160523541,6.9805250723158725,3.9688346873172424
-0.9599462639233501,-1.0155443593298166,7.020213419189045,3.903854382375206
-0.9701017075166483,-0.863254221684467,7.059251963012797,3.8469229446167734
-0.9787342497334929,-0.7139061589030159,7.097721192458965,3.79699577749805
-0.985873311322523,-0.5671169617722184,7.135691150233946,3.753126888993
-0.9915444809402452,-0.42259890175491027,7.173222419123876,3.714448534587599
-0.9957704699577943,-0.28014816787320496,7.210366904469752,3.680155214559736
-0.9985719516365263,-0.13963506461766115,7.247168456615349,3.649491298005299
-0.999968302282703,-0.0009955020213752441,7.283663369595402,3.6217416811204575
-0.9999782573029167,0.13577659545754142,7.319880786406607,3.5962249946422906
-0.9986204913483413,0.2706362502753132,7.35584303635303,3.5722889557857354
-0.9959141288455882,0.4034939782417991,7.3915659259108875,3.549307517210157
-0.9918791890631702,0.5342220696487776,7.427059001082989,3.526679504265709
-0.9865369683666824,0.6626606972983557,7.462325796125646,3.5038284569637277
-0.9799103613936988,0.7886238937901847,7.4973640806952835,3.480203409559622
-0.972024122455797,0.911905398247706,7.53216611479088,3.4552803527205884
-0.9629050684733199,1.0322843386825673,7.566718918318086,3.4285641348240747
-0.9525822250864943,1.1495306910863419,7.601004559666327,3.399590573150823
-0.9410869181756308,1.2634104406780542,7.635000465397836,3.367928564904034
-0.9284528137688502,1.373690364778055,7.668679751046876,3.333182013432356
-0.9147159101210697,1.480142360271464,7.7020115711812,3.294991417041259
-0.899914486518355,1.5825472507062381,7.734961485351612,3.2530350055963124
-0.8840890140112927,1.6806980272597978,7.767491835407576,3.2070293520897284
-0.8672820337386947,1.7744025020852199,7.799562128928473,3.1567294300933724
-0.8495380087178426,1.8634853795242605,7.831129423229407,3.1019281307806432
-0.8309031549225999,1.9477897778131805,7.862148704537213,3.0424552921067938
-0.8114252571444681,2.0271782587676803,7.892573257458281,2.978176325175634
-0.7911534745567913,2.101533443397663,7.922355020710038,2.9089905466939654
-0.7701381401228147,2.170758305856441,7.951444926176977,2.8348293403451303
-0.7484305570642502,2.2347762455712945,7.979793219580428,2.7556542733376492
-0.7260827946085373,2.2935310374795828,8.007349762313805,2.6714552875573196
-0.7031474842337415,2.346986753265281,8.034064315189378,2.5822490686549155
-0.6796776167010887,2.3951277331349257,8.059886805875927,2.4880776726073983
-0.6557263393697395,2.4379586691695203,8.084767582602,2.389007459784259
-0.6313467526780443,2.475504839088338,8.108657657199842,2.2851283535609754
-0.6065917042871609,2.5078125049552713,8.131508940735452,2.1765534063663012
-0.5815135792376082,2.5349494665833925,8.153274474799115,2.063418623010979
-0.5561640845717742,2.5570057357442852,8.173908661029225,1.9458829613722537
-0.5305940272143314,2.5740942762604817,8.193367490642947,1.8241284059437435
-0.5048530844517265,2.586351737996721,8.211608774702384,1.6983599920732968
-0.47898956707175927,2.5939391008164705,8.228592374623117,1.5688056492311928
-0.45305017606359455,2.597042138633098,8.24428043111543,1.4357157312886262
-0.42707975467726356,2.5958716143510396,8.258637588428316,1.299362110950406
-0.40112103853375314,2.590663123979499,8.27163120953782,1.160036733996899
-0.37521440729395816,2.5816765222955236,8.283231576877789,1.018049556013548
-0.34939764207100293,2.5691948824463138,8.293412072437924,0.8737258183020226
-0.3237056932465398,2.553522966642229,8.302149330620944,0.7274026585021571
-0.2981704635801175,2.534985212991332,8.309423357205965,0.5794250923905093
-0.2728206114502042,2.5139232726096,8.31521760812987,0.43014144328786896
-0.2476813787241082,2.490693159264726,8.31951902256275,0.27989833134135816
-0.22277444713146094,2.4656620988391125,8.322318005876163,0.12903536370078542
-0.1981178261430698,2.439205185915997,8.323608359513171,-0.02212031413190893
-0.17372577428390984,2.4117019683179692,8.323387156371853,-0.1732594373500496
-0.14960875460073014,2.383533086569448,8.321654561998352,-0.3240958464381496
-0.12577342373503567,2.3550770938126626,8.31841360353397,-0.4743713673535218
-0.10222265279690904,2.3267075731775586,8.313669889860435,-0.6238602221029289
-0.07895557706513345,2.2987906551087383,8.307431287639405,-0.7723728769675178
-0.05596767051404607,2.271683018277478,8.29970755886973,-0.9197592730141289
-0.033250840331271285,2.2457304363173938,8.29050996613959,-1.06591142293942
-0.010793535968097345,2.2212669106395815,8.279850851910195,-1.2107653969458827
0.011419133138298471,2.1986144087850423,8.267743197940737,-1.3543027558791216
0.033405277226148895,2.178083209632228,8.254200170381946,-1.4965515204995559
0.05518610932247117,2.1599728423565807,8.23923465517695,-1.6375867904455637
0.07678583774603698,2.1445735959339376,8.222858787272495,-1.777531144772335
0.09823157370537636,2.1321685703193816,8.205083475824772,-1.9165549680972358
0.11955325940857017,2.123036238902814,8.1859179261438,-2.054876852920545
0.14078362179759832,2.1174534937127367,8.165369157614593,-2.1927642303565587
0.1619581567347257,2.115699148968458,8.143441515311029,-2.3305343789240043
0.18311514822441027,2.1180578833522623,8.12013617152179,-2.4685559543673943
0.2042957270579329,2.124824604524762,8.095450611978116,-2.6072511719726057
0.2255439731031805,2.136309217678827,8.06937810025839,-2.747098754237667
0.24690706527996878,2.1528417684286922,8.041907112716014,-2.8886377263327394
0.2684354829642557,2.1747779014522135,8.013020735452686,-3.0324720908259772
0.2901832619787778,2.2025045179058704,7.982696014544427,-3.1792763265184854
0.31220830715783654,2.236445407043896,7.950903251279242,-3.329801508262847
0.3345727612282755,2.277066438567527,7.917605236196613,-3.4848815924270977
0.35734342561395077,2.3248795793843104,7.882756420272343,-3.645438984974392
0.38059222140779386,2.380444455599285,7.846302030422599,-3.8124877884082697
0.4043966659637867,2.4443652777914537,7.808177152538517,-3.9871319176977686
0.42884031874170125,2.5172794605820363,7.768305833361539,-4.170553273259744
0.4540131133475216,2.599831845336771,7.726600300628942,-4.363981872515758
0.4800114318008893,2.692624554566567,7.682960481903784,-4.56863453658522
0.5069376773465549,2.796126460384615,7.637274136537932,-4.785600401350647
0.5348989419504011,2.9105172834307513,7.589418132524425,-5.015639077827206
0.5640041147847086,3.035429266313613,7.539261741746153,-5.258840369839105
0.5943584074478447,3.169536421191315,7.486673338047762,-5.514075995720246
0.6260537716597578,3.309936788177226,7.431532578090559,-5.778166330343427
0.6591531395415301,3.45130245198004,7.3737509147871245,-6.044723842852621
0.6936661640613305,3.5848890845257073,7.313303676358598,-6.302794194795175
0.7295150549065876,3.6977785316521588,7.250275734410646,-6.5358031632366975
0.7664928402231093,3.773186240258818,7.18491770277828,-6.7219503486658185
0.8042247026256975,3.792989056050125,7.117698199291621,-6.837639130507481
0.8421545931861987,3.742952601607097,7.049321807986546,-6.864597459930704
0.8795841192022696,3.6187936079116723,6.980675833387239,-6.798106314860587
0.9157720552813864,3.428900665127168,6.912694770238633,-6.650583157335076
0.950061061932658,3.1910401058832556,6.846188938665282,-6.44690032859163
0.9819714629914906,2.9254097880593566,6.781719935379366,-6.214789458302305
1.0112255608720842,2.6488960974369307,6.719572040796343,-5.977041316681647
1.0377145218464534,2.3728889499627837,6.659801627629526,-5.748665980958424
1.0614434113460813,2.103786890788496,6.602314967819941,-5.537729820839836
1.0824812802539663,1.8444721133206687,6.546937669611543,-5.347466655389107
1.100926001387173,1.5957043639869781,6.493463003057652,-5.178225429432465
1.1168830450270426,1.3571103586270636,6.441680748763328,-5.028830659618096
1.1304541486133133,1.1277942812940285,6.391392442167147,-4.897407788008819
1.1417320914262536,0.9066833841253141,6.342418364287059,-4.781840080480042
1.1507989252675068,0.6927107130368662,6.294599963482258,-4.680002043750783
1.1577260323978755,0.4849045229406211,6.24779994304475,-4.5898668610161995
1.1625750776272816,0.2824266898523924,6.201901274434588,-4.509546554114144
1.1653993445258055,0.08458434958727437,6.156805808893447,-4.437298212059859
1.1662451880216782,-0.10917187675434384,6.1124328267728485,-4.371514538602211
1.1651534692541348,-0.2992559316603985,6.068717681386826,-4.310708423093447
1.1621609099375307,-0.48595696778075936,6.025610597155892,-4.253496528364736
1.1573013402597232,-0.6694508041974296,5.983075631872245,-4.198584341236701
1.150606832217749,-0.8498114134974016,5.941089788459878,-4.144753773763428
1.142108718082775,-1.0270221830086708,5.899642250722243,-4.0908536906693165
1.1318384962526882,-1.20098694750657,5.85873371381555,-4.035793369801746
1.1198286267776225,-1.371540897114578,5.818375780117532,-3.9785387138078687
1.1061132178064768,-1.53846148974726,5.778590392979453,-3.9181109343695675
1.0907286029090042,-1.7014794794235386,5.739409283635757,-3.8535873785935872
1.0737138081147688,-1.8602901311880287,5.700873409849821,-3.784104136858893
1.0551109068028885,-2.014564642596559,5.6630323684812325,-3.7088600514100905
1.034965260376923,-2.1639617384202467,5.625943767967131,-3.627121730843563
1.0133256429927207,-2.308139354457935,5.589672550658696,-3.5382291664253143
0.9902442494481413,-2.446766281620549,5.554290258994443,-3.44160154256366
0.9657765866319358,-2.5795336052125157,5.519874243568806,-3.3367428369076073
0.9399812505798106,-2.706165748217712,5.486506815199729,-3.2232468165491084
0.9129195930976335,-2.8264309123450686,5.4542743470342385,-3.1008010564196784
0.8846552839741828,-2.9401507069689594,5.423266336470042,-2.969189634515985
0.8552537769044932,-3.0472087638281957,5.393574440124882,-2.8282941960266275
0.8247816892662113,-3.147558154031233,5.365291498164616,-2.6780931244564714
0.7933061077258989,-3.2412274529773017,5.338510566920052,-2.5186586119481866
0.7608938331961259,-3.328325337560234,5.31332398080057,-2.3501514824607015
0.7276105798205236,-3.4090436476816133,5.289822465975963,-2.1728136892230023
0.6935201433437075,-3.483658899672395,5.268094329083732,-1.9869584803346438
0.6586835543469836,-3.5525323013630694,5.248224744280386,-1.792958301141057
0.6231582313333529,-3.6161083853772844,5.230295161268976,-1.5912305757194105
0.5869971474795801,-3.6749124462131992,5.214382855511782,-1.3822215781461666
0.5502480230174481,-3.7295470345796535,5.200560639730321,-1.1663886621371102
0.5129525526716516,-3.7806878254161793,5.188896753108949,-0.9441811599496408
0.47514567441748984,-3.829079229768997,5.179454941509452,-0.7160202836169095
0.4368548821197999,-3.875530160717598,5.172294738673283,-0.48227836099031074
0.3980995805126239,-3.9209103851651346,5.16747195506338,-0.24325771626697756
0.35889047666097257,-3.966147891290382,5.165039377900711,0.0008305348887253927
0.31922899774806873,-4.012227668902021,5.165047683249598,0.24988754938468016
0.27910672105904855,-4.060192225839392,5.167546558743444,0.5039474790794416
0.23850479880065462,-4.111144028329886,5.172586033534238,0.7631976192180094
0.19739335851735576,-4.166249820675624,5.180218009726419,1.0279975984575798
0.15573086031059952,-4.226746383268391,5.190497985710994,1.29889684633265
0.11346339647791562,-4.293946607068912,5.203486954174321,1.5766487857153129
0.0705239304072265,-4.369243581867936,5.219253442031474,1.8622186901538575
0.02683149458854714,-4.454108335872369,5.237875628933012,2.1567793836375513
-0.017709588770176553,-4.550073270895272,5.259443422769388,2.4616840278150205
-0.06321032147912928,-4.658687112115405,5.284060263047538,2.778396608364183
-0.10979719260028334,-4.781416584474846,5.31184422913118,3.1083459640422957
-0.1576113584450318,-4.919452543741202,5.342927688771603,3.4526448312250615
-0.2068058838824438,-5.0733512886030665,5.377454137083854,3.8115777502223853
-0.2575393967684745,-5.2424055709038,5.415569914586078,4.183711309070101
-0.3099634524775125,-5.423607858617126,5.457407027676779,4.564436077862032
-0.36419953106368375,-5.610093429779824,5.5030513884553995,4.943785878756044
-0.42030046536148197,-5.78917255981109,5.55248924724296,5.3036929165630555
-0.47819219095959287,-5.940727472741774,5.60552617640859,5.615774674957826
-0.5375994656870106,-6.037973346661004,5.661683923158169,5.842466033355679
-0.5979791991536206,-6.053409249792432,5.720108583491726,5.945461119291293
-0.6585132916515449,-5.970333016971051,5.779563194684639,5.9019599623396495
-0.7182166218212555,-5.793265450497339,5.838582794308035,5.719316826929106
-0.7761492763262289,-5.547138489439224,5.895775962577326,5.433806711801126
-0.8316206612206212,-5.264815091968574,5.950114029695337,5.092943620956833
-0.884268812140307,-4.974138050850325,6.001043465904905,4.73715394317336
-0.9340101926488102,-4.6927143561970786,6.048415005336639,4.392369830131257
-0.980937336210781,-4.429120362617738,6.092338703637951,4.071690956554509
-1.0252285398369585,-4.186110163354744,6.133055613203497,3.7798913784498396
-1.067089641470506,-3.9633362947971564,6.170854526987995,3.5172567066921356
-1.1067230044184775,-3.7590578732991684,6.2060270940549165,3.2820038114586407
-1.1443135831514692,-3.5710620424464143,6.238847132169503,3.071594786248825
-1.1800242035759334,-3.3971109691178527,6.269563080031991,2.8833815048851954
-1.213995313267112,-3.235134607518066,6.298396895080843,2.7148896205973
-1.2463466593422927,-3.083296840756765,6.325545791286816,2.563921544461517
-1.2771796277498604,-2.9400026101571353,6.351185006731431,2.4285739091091663
