th1 (rad),w1 (rad/s),th2 (rad),w2 (rad/s)
0.6301031978327385,-2.9418936269786906,2.300817024928147,2.0314765904104477
0.6006842615629516,-2.9872694537753266,2.3211317908322515,1.8678088354257052
0.5708115670251983,-3.0378955977175055,2.3398098791865087,1.7003373337929981
0.5404326110480232,-3.0935950851648175,2.3568132525244385,1.5284659167696557
0.5094966601963751,-3.154180121003629,2.3720979116921352,1.3516509498390756
0.47795485898633877,-3.219443837609062,2.385614421190526,1.169407337075621
0.4457604206102481,-3.289151799065766,2.397308494561282,0.9813160580975626
0.41286890261959047,-3.3630334098894017,2.4071216551422574,0.7870330629117076
0.3792385685206965,-3.440773436043556,2.4149919857713744,0.5862992382467731
0.34483083416026095,-3.522003914050422,2.420854978153842,0.37895103703965005
0.30961079501975675,-3.6062967938757935,2.4246444885242386,0.1649312355079291
0.2735478270809988,-3.69315772370291,2.426293800879318,-0.05570084027554564
0.23661624984396967,-3.782021428602858,2.4257367924765623,-0.28276037942297894
0.1987960355579411,-3.8722491482794097,2.4229091886823326,-0.5159302690694646
0.16007354407514698,-3.9631285696784873,2.417749885991638,-0.7547572281822719
0.12044225837836212,-4.053876608962186,2.4102023137098154,-0.9986516559194547
0.07990349228874025,-4.1436452598844795,2.400215797150621,-1.2468917991495299
0.03846703968989545,-4.231530535293876,2.3877468791591254,-1.4986325927714779
-0.0038482656630433112,-4.316584297986853,2.3727605532314104,-1.7529191946867153
-0.04701410864291184,-4.397828528648602,2.3552313612845435,-2.008704851417546
-0.09099239392939787,-4.474271342006287,2.335144312770368,-2.2648723314426222
-0.13573510734946073,-4.544923871029127,2.3124955894559416,-2.520257801778585
-0.181184346059752,-4.608817024359773,2.2872930114381558,-2.77367575119871
-0.22727251630334974,-4.665017107193994,2.259556253926169,-3.0239434248699744
-0.2739226873752897,-4.7126393902315895,2.2293168196774693,-3.2699032574982017
-0.32104908127760556,-4.750858908860359,2.1966177871024875,-3.5104419800371223
-0.3685576703662092,-4.77891805392533,2.161513367302116,-3.744505409384403
-0.4163468509054625,-4.796130843361836,2.124068313208272,-3.9711083715774955
-0.4643081593390808,-4.801884102149638,2.0843572294924972,-4.1893397041593206
-0.5123270003605772,-4.795636088749665,2.042463832450904,-4.398362776194494
-0.5602833612480739,-4.776913357652624,1.998480204688959,-4.597412403300078
-0.6080524948246001,-4.745306817133866,1.9525060806559582,-4.785789379315251
-0.6555055629959388,-4.700468015615658,1.9046481868628058,-4.962854068689543
-0.7025102431520953,-4.64210666436324,1.8550196461759103,-5.128020590121625
-0.7489313097957278,-4.569990279962361,1.803739440274694,-5.280753068694234
-0.7946312125953514,-4.483946612887676,1.7509319095877516,-5.420565244502942
-0.8394706787242282,-4.383869227948186,1.6967262571427222,-5.547024409927152
-0.8833093710037101,-4.269726232638741,1.6412560130434506,-5.659760220169217
-0.9260066333300975,-4.141571731517414,1.5846584108417585,-5.7584784049747295
-0.9674223506452716,-3.99955914931808,1.5270736267920113,-5.842978836766746
-1.0074179421384524,-3.84395515440378,1.4686438384243439,-5.913176828546366
-1.0458574936824903,-3.675152579256189,1.4095120701388801,-5.969126004545962
-1.0826090194750522,-3.4936805329089045,1.3498208100934206,-6.011040678543047
-1.1175458248041412,-3.3002098842021264,1.28971040330799,-6.03931546061377
-1.1505479236461624,-3.095552500325875,1.2293172487018524,-6.054539851672606
-1.1815034486494211,-2.880653058637547,1.1687718501851263,-6.057505906509124
-1.2103099792357965,-2.6565728789015544,1.108196791120035,-6.0492076384167435
-1.236875708024812,-2.4244659757452856,1.0477047147358676,-6.0308316424905275
-1.2611203677822649,-2.185548304078488,0.9873963983109623,-6.003739328512503
-1.2829758508230498,-1.9410618475782977,0.9273590050258372,-5.969442050923045
-1.3023864692988327,-1.6922356770782438,0.8676645845166068,-5.929571175294542
-1.319308826069615,-1.4402463101199319,0.8083688727636613,-5.88584562694299
-1.3337112891708145,-1.1861796113469143,0.7495104164942314,-5.840039673772147
-1.3455730852842835,-0.9309961128969213,0.69111001975651,-5.793953603894854
-1.3548830464132529,-0.6755010727697374,0.6331704837175615,-5.74938962183855
-1.3616380571409503,-0.420319918687698,0.5756765874991759,-5.70813479329979
-1.3658412563278273,-0.16587903875853233,0.518595239566178,-5.671952319456875
-1.3675000467154126,0.08760874382581424,0.4618757163716093,-5.642581912966529
-1.3666239592771545,0.3401551851950362,0.405449897241944,-5.621749651879767
-1.3632224074252042,0.5920056708510639,0.3492324007231463,-5.611187446976088
-1.3573023507166935,0.8436480832447708,0.2931205262533854,-5.612662180894923
-1.3488658698842457,1.0958233741588908,0.2369939044444362,-5.628014637127696
-1.3379076361426567,1.3495397020267925,0.18071375807315923,-5.659208464341309
-1.3244122391223887,1.6060917907559897,0.12412167342974614,-5.708389482259397
-1.3083513212148288,1.8670866495617928,0.06703777860715217,-5.7779553723813954
-1.289680454719211,2.1344756345867046,0.00925822488333821,-5.870634703563784
-1.2683356983733438,2.4105903188933957,-0.04944812215229963,-5.989571295655077
-1.24422979518441,2.6981742747061173,-0.1093438351088504,-6.13840303405118
-1.2172480524373488,3.000391597730443,-0.1707278654493622,-6.32130914685272
-1.1872441364600443,3.3207696512997034,-0.2339409569178894,-6.542968035400229
-1.1540364399470473,3.6629860747596474,-0.2993706372718917,-6.808302182751575
-1.1174065791994507,4.0303169275344715,-0.36745365909940747,-7.121756926755392
-1.0771034099241061,4.424391880919301,-0.4386712283669614,-7.485620372807853
-1.0328594911149132,4.842635321819059,-0.5135274320950399,-7.896514786263399
-0.9844331378967226,5.27353266609803,-0.5924925799576739,-8.338843903128298
-0.9316978112357422,5.689337014919985,-0.6758810189889569,-8.774621334931446
-0.8748044410865424,6.039013163001103,-0.7636272323382713,-9.133514634845442
-0.8144143094565314,6.252216564116678,-0.8549623786867258,-9.31809273911228
-0.7518921438153646,6.269828407949715,-0.9481433060778486,-9.245898593192248
-0.6891938597358674,6.090560533518775,-1.040602292009771,-8.913809584771574
-0.6282882544006797,5.779311319861835,-1.1297403878574868,-8.409347346481589
-0.5704951412020614,5.419270956730942,-1.2138338613223025,-7.8444559438661425
-0.516302431634752,5.067976534453769,-1.2922784207609639,-7.295391021147306
-0.4656226662902143,4.75154232603889,-1.365232330972437,-6.79541972138358
-0.41810724302982544,4.476794676584896,-1.4331865281862728,-6.351815007518793
-0.3733392962639765,4.242028515899609,-1.4967046782614608,-5.960631290038529
-0.3309190111049804,4.042722418548843,-1.556310991161846,-5.614435956328281
-0.29049178691949196,3.87396817539527,-1.612455350725129,-5.305526615154227
-0.25175210516553925,3.7313365045990006,-1.6655106168766711,-5.027031308861246
-0.21443874011954925,3.6110953832778923,-1.7157809299652835,-4.7731501650228765
-0.17832778628677032,3.510187828118829,-1.7635124316155122,-4.539089846313557
-0.14322590800558202,3.4261350049566013,-1.8089033300786477,-4.320911961410896
-0.108964557956016,3.3569277271899804,-1.8521124496927566,-4.115377491001093
-0.0753952806841162,3.3009276508920555,-1.8932662246027674,-3.919813721216761
-0.04238600417519565,3.256783246286781,-1.932464361814935,-3.732009102345372
-0.009818171712327836,3.2233597820937754,-1.9697844528383888,-3.550134164018783
0.022415426108609915,3.1996808430894306,-2.0052857944785765,-3.372684640088272
0.05441223453950422,3.184878765450455,-2.0390126408794593,-3.1984428640664344
0.08626102219400877,3.178151803328077,-2.0709970695201236,-3.026453929444732
0.11804254022728955,3.1787264448629777,-2.101261608814571,-2.8560135455010753
0.14982980467591933,3.185823939071597,-2.1298217442695817,-2.6866647751884325
0.1816880440666353,3.1986307321895295,-2.156688392021466,-2.518200876004789
0.21367435138853058,3.216273122396891,-2.1818704007815137,-2.3506713040760134
0.24583708261249948,3.237796996883872,-2.2053771138222737,-2.1843876575879357
0.2782150525813382,3.262153965013602,-2.2272209903981532,-2.019926039354504
0.31083659223147425,3.2881954726422586,-2.2474202507916985,-1.858122156031992
0.34371854695789683,3.3146764883860986,-2.2660014723520185,-1.7000556103445843
0.3768653118417578,3.3402700133139076,-2.2830020284554644,-1.5470204399814422
0.4102680119748969,3.3635929404070177,-2.298472232855279,-1.400480113941187
0.44390394137896705,3.383242710238099,-2.312477033994691,-1.2620069071624131
0.47773636848134804,3.3978428998949264,-2.325097103066315,-1.133207682578695
0.5117147974802974,3.4060945593646323,-2.336429179892102,-1.0156403100375022
0.5457757430739437,3.4068290427925345,-2.346585582992477,-0.9107268347325054
0.5798440335018691,3.3990575262302296,-2.355692851339802,-0.8196706604069949
0.6138346087641714,3.382012522214817,-2.363889557943872,-0.7433851373783715
0.6476547339863196,3.35517751037848,-2.3713234093176556,-0.6824399597699051
0.6812065090901044,3.3183021593567386,-2.3781478089153545,-0.6370298463541773
0.7143895306836717,3.2714022587319684,-2.3845181073788964,-0.6069674738369009
0.7471035532709914,3.2147451108555134,-2.390587782117265,-0.5917000137277416
0.7792510043795465,3.148822492283173,-2.3965047822545427,-0.5903463269891263
0.8107392293023783,3.074314220607698,-2.402408245524434,-0.6017501997288218
0.8414823715084553,2.992045804150645,-2.408425747521722,-0.6245440944172291
0.8714028295499617,2.9029436520803253,-2.4146711884658942,-0.6572177243253895
0.900432266070765,2.807990980330228,-2.4212433657091483,-0.6981862048525811
0.9285121758740673,2.7081869827507203,-2.4282252277576744,-0.7458534116437799
0.9555940457015745,2.6045111585551712,-2.4356837618741123,-0.7986672921367554
0.9816391572871261,2.4978939872144785,-2.4436704347954796,-0.855165066383633
1.0066180971592709,2.389194487842451,-2.452222085459316,-0.9140073819099708
1.0305100420376954,2.279184637472088,-2.4613621592784156,-0.9740014621362811
1.0533018884124163,2.1685401785990117,-2.4711021738997783,-1.0341140520207357
1.0749872901984066,2.05783703230874,-2.4814433144199857,-1.0934754951722696
1.0955656605214938,1.947552347072785,-2.4923780693717084,-1.1513765790430512
1.1150411839922216,1.838069141818166,-2.503891835162139,-1.2072598858174677
1.1334218754104033,1.7296835242828004,-2.5159644340203133,-1.2607073270742855
1.1507187106532313,1.6226135569556728,-2.528571507291056,-1.3114253671295653
1.166944846222788,1.5170089775205087,-2.541685760962352,-1.359229199283643
1.1821149359979932,1.4129611355911964,-2.5552780529551886,-1.404026871133326
1.1962445473539052,1.3105126640065627,-2.569318321666522,-1.4458040908320264
1.2093496739939709,1.2096665477095438,-2.583776362574842,-1.4846102069507108
1.2214463394710664,1.1103943781497083,-2.598622464644349,-1.5205456524728
1.2325502832525634,1.012643682550769,-2.613827921169077,-1.5537509829889153
1.242676720078071,0.9163442949800684,-2.6293654309989662,-1.5843975194450801
1.2518401630278717,0.8214137918889756,-2.645209406193417,-1.6126795225256354
1.2600543009467615,0.7277620518480077,-2.661336201418673,-1.6388077728812471
1.2673319214652417,0.6352950212333718,-2.6777242791474856,-1.6630044024365476
1.2736848716775753,0.543917778224418,-2.694354323171851,-1.6854988107777389
1.2791240494598195,0.4535369898557355,-2.7112093112796285,-1.7065245017834025
1.2836594193583768,0.36406285371411023,-2.7282745562974626,-1.726316684870624
1.2873000478955179,0.2754106092949821,-2.745537723146169,-1.7451104991301938
1.2900541539884678,0.18750169562252877,-2.7629888281374706,-1.7631397347647857
1.2919291709446932,0.10026462262388684,-2.7806202254851184,-1.780635942920365
1.292931817170932,0.013635614693825931,-2.798426584914322,-1.797827841105615
1.2930681733178704,-0.07244092363116382,-2.816404863325378,-1.8149409362660944
1.2923437640815587,-0.15801207768415038,-2.834554272688039,-1.8321973008798762
1.2907636433047172,-0.24311619295161416,-2.8528762456968377,-1.8498154490507104
1.288332481375201,-0.32778271607119247,-2.871374400187345,-1.8680102695174088
1.2850546542144892,-0.41203208194769386,-2.890054502882519,-1.8869929808845356
1.2809343333950123,-0.49587562654898143,-2.9089244326913644,-1.9069710813663048
1.2759755771295225,-0.5793155083994541,-2.9279941435050274,-1.9281482710991666
1.270182422045528,-0.6623446246559039,-2.947275626216019,-1.9507243297978654
1.263558975798969,-0.744946510039957,-2.9667828695139975,-1.9748949363764452
1.2561095106985694,-0.8270952089193561,-2.986531818877762,-2.000851420289071
1.2478385586093759,-0.9087551125755081,-3.0065403330806526,-2.0287804369106803
1.2387510074836208,-0.989880755256662,-3.026828137449759,-2.0588635614053783
1.2288521999310542,-1.070416564075278,-3.047416773063813,-2.091276797339282
1.2181480342903015,-1.1502965592361458,-3.068329541037206,-2.1261899978913594
1.20664506869794,-1.229444002541444,-3.0895914410161196,-2.163766198998712
1.1943506286725256,-1.3077709936647284,-3.1112291030061066,-2.204160865232353
1.1812729187358784,-1.3851780153640116,-3.13327071165843,-2.2475210507204273
1.1674211385822382,-1.4615534306525002,-3.155745922165634,-2.2939844790973485
1.152805604275713,-1.536772936993046,-3.1786857669566078,-2.343678548333939
1.1374378749057827,-1.610698984847916,-3.2021225524399473,-2.396719268464272
1.1213308850573036,-1.683180170406708,-3.22608974512459,-2.453210142732058
1.1044990833532364,-1.7540506150264892,-3.2506218465519106,-2.513241005586975
1.0869585772029715,-1.8231293468280985,-3.2757542566077804,-2.5768868343123295
1.0687272837346906,-1.890219702960913,-3.301523124950904,-2.6442065548881186
1.0498250867050816,-1.9551087742129694,-3.327965190499785,-2.715241866997845
1.030273998962952,-2.017566916815927,-3.3551176091697634,-2.790016117859634
1.0100983297947925,-2.077347359356865,-3.38301777034836,-2.868533259760287
0.9893248562012239,-2.134185935509409,-3.411703102945963,-2.950776931718704
0.9679829968461298,-2.187800975646095,-3.44121087226315,-3.036709711487327
0.9461049870896688,-2.237893392063483,-3.471577969378023,-3.1262725899575723
0.923726053169034,-2.2841469932721776,-3.502840695277599,-3.219384725761239
0.9008845832363123,-2.3262290622678026,-3.5350345425352114,-3.3159435431998627
0.8776222926136342,-2.3637912315646563,-3.5681939779672103,-3.415825241287366
0.8539843802979876,-2.396470683675963,-3.602352230380084,-3.5188857853186657
0.830019673461228,-2.4238916992893693,-3.6375410882332706,-3.6249624546131995
0.8057807564683342,-2.4456675662528315,-3.6737907127794025,-3.7338760205582484
0.781324080805806,-2.4614028503356193,-3.711129472984985,-3.8454336274490775
0.7567100523024498,-2.470696013321406,-3.7495838092594758,-3.9594324446144915
0.7320030921692358,-2.473142345205276,-3.7891781337056205,-4.075664151768133
0.7072716687171829,-2.4683371551506075,-3.8299347752233017,-4.193920310456022
0.6825882971656768,-2.455879140674755,-3.8718739783278617,-4.3139986631413745
0.6580295057589293,-2.435373826788431,-3.9150139649592757,-4.4357103884502544
0.6336757674910449,-2.4064369373115366,-3.959371068843778,-4.558888327335324
0.6096113981179295,-2.368697530424921,-4.004959952117131,-4.68339618174329
0.5859244228136803,-2.3218007010796997,-4.0517939139345645,-4.80913867654278
0.5627064158028833,-2.265409625821376,-4.0998853006999925,-4.9360726690787855
0.5400523195446695,-2.1992067027668805,-4.14924602739078,-5.064219191069938
0.5180602525170007,-2.122893522976605,-4.19988821930148,-5.193676416904346
0.4968313172872347,-2.0361894016314777,-4.251824983470523,-5.324633572477896
0.4764694232709199,-1.9388282010935043,-4.305071319195302,-5.4573858301222895
0.45708114125998484,-1.8305531970070477,-4.359645177496525,-5.592350276122946
0.4387756092899144,-1.7111097792840488,-4.415568680257754,-5.730083081844045
0.4216645114970739,-1.5802358529348093,-4.472869511076194,-5.871298044132793
0.4058621529677258,-1.4376499290408962,-4.531582491517522,-6.0168866589480325
0.39148565367731686,-1.2830371102971836,-4.591751358107002,-6.167939804320277
0.378655282574345,-1.1160335459084445,-4.653430756150205,-6.325770843532332
0.36749494711526054,-0.9362105806473493,-4.716688464585528,-6.491939350616273
0.35813284130878703,-0.743060976885612,-4.78160785809169,-6.6682734060287014
0.3507022315399309,-0.5359916511274092,-4.848290592151978,-6.856885963580449
0.3453423150286568,-0.3143310614141531,-4.916859451787782,-7.060176164239521
0.3421990044145153,-0.07736598142854337,-4.987461213430177,-7.280797914508342
0.34142534460022983,0.17556592855799083,-5.0602691925752605,-7.5215625255525085
0.34318100388580974,0.4448811215221754,-5.135484817830785,-7.785214789383051
0.3476298151010315,0.7303725351690273,-5.213336965724616,-8.07397553762939
0.3549335404527218,1.0305181827303787,-5.29407672110091,-8.388671977801613
0.3652387222800256,1.341282675914415,-5.3779634408789265,-8.72718654042207
0.3786515490391697,1.6541916717529097,-5.465235306283147,-9.081906355925847
0.3951934657566988,1.9536268910393189,-5.556054369842405,-9.436063184649107
0.41472973466709195,2.2140202275505168,-5.650415001688896,-9.759823347395205
0.4368699369425971,2.399357596342466,-5.748013235162848,-10.009331464635448
0.4608635129060218,2.469441432304136,-5.848106549809202,-10.13470594238466
0.48555792722906316,2.395563710009851,-5.949453609233049,-10.100585779778923
0.5095135643291616,2.17792023156807,-6.050459467030838,-9.908868471827308
0.5312927666448423,1.84792676221691,-6.149548151749111,-9.601074980762604
0.5497720342670114,1.4510171477909375,-6.245558901556738,-9.234968945138702
0.5642822057449207,1.0267730697008093,-6.337908591008125,-8.858526264741354
0.5745499364419289,0.6007164131011979,-6.426493853655538,-8.500044599635688
0.5805571005729409,0.1860392239502056,-6.511494299651895,-8.171333212973966
0.5824174928124429,-0.21179064101074474,-6.593207631781635,-7.87427277348118
0.5802995864023355,-0.5912869682969915,-6.671950359516447,-7.605886348006495
0.5743867167193656,-0.9526945344457667,-6.748009222996512,-7.361275442757088
0.564859771374908,-1.2968214440423744,-6.8216219774240825,-7.135083425504683
0.5518915569344842,-1.624494270920875,-6.89297281167913,-6.922148982427175
0.5356466142252755,-1.9363367233051885,-6.962194301503401,-6.71776231271765
0.5162832469922236,-2.2327076037479046,-7.029371924630578,-6.51774232516927
0.4939561709547446,-2.5137142475569068,-7.09454934788227,-6.3184410752824345
0.4688190284791755,-2.7792600094143505,-7.157733758635095,-6.116723937629647
0.441026428385032,-3.0291054741707324,-7.218900998011391,-5.909945751650999
0.41073537364332463,-3.2629332337882775,-7.278000455527901,-5.6959297923337635
0.37810604130544184,-3.4804108511114924,-7.334959753451239,-5.4729503137493305
0.3433019327943269,-3.681248849445828,-7.389689256588732,-5.239716858089141
0.30648944429986863,-3.86525163141927,-7.442086425169624,-4.995357714867454
0.26783692798567593,-4.0323598287207565,-7.492040002318298,-4.7393999853537085
0.22751332969846838,-4.182683039115547,-7.539434002171835,-4.471744224423766
0.1856864993073129,-4.316522354399032,-7.584151444416073,-4.192632365454179
0.14252127576332257,-4.434382561117283,-7.626077768070615,-3.9026084451154337
0.09817745015214974,-4.536974393892239,-7.665103852521769,-3.602472439181222
0.05280770621322735,-4.625207705404202,-7.7011285769135815,-3.2932282273589464
0.006555629159185325,-4.700176847219592,-7.734060859187171,-2.976027272240084
-0.040446139313010596,-4.763139894305204,-7.763821131909571,-2.6521099893783746
-0.08807753825606263,-4.815493564161532,-7.790342231803355,-2.322746984900951
-0.13623247389767795,-4.858745760881222,-7.813569701652365,-1.9891823461224922
-0.18481993150649018,-4.894487608253256,-7.83346152511359,-1.6525810121533777
-0.23376480758902274,-4.924366627102428,-7.849987335235124,-1.3139819692207098
-0.283008473860047,-4.950062368949722,-7.863127154927331,-0.9742586736995192
-0.3325090975495442,-4.973265348620469,-7.872869741664326,-0.6340877892420647
