th1 (rad),w1 (rad/s),th2 (rad),w2 (rad/s),a1 (rad/s^2),a2 (rad/s^2)
1.2350590432978168,-0.8859143579508881,5.985862379310815,1.095769822980007,-9.930269671207455,4.036660468261803
1.226199899718308,-0.9852170546629627,5.996820077540614,1.1361364276626251,-9.993859091705136,4.318812983551878
1.2163477291716782,-1.0851556455800142,6.008181441817241,1.179324557498144,-10.06790403553171,4.634045938689533
1.2054961727158782,-1.1858346859353313,6.019974687392223,1.2256650168850391,-10.154520792930047,4.983535774503079
1.1936378258565248,-1.2873798938646317,6.032231337561073,1.27550037463007,-10.256065814298923,5.368710402466947
1.1807640269178785,-1.389940552007621,6.044986341307373,1.3291874786547395,-10.375163954972217,5.791296479021901
1.1668646213978022,-1.4936921915573431,6.058278216093921,1.3871004434449585,-10.514740553741303,6.253371496338735
1.1519276994822287,-1.5988395970947562,6.07214922052837,1.4496341584083459,-10.678057066028307,6.757420079044469
1.1359393035112813,-1.7056201677550393,6.086645562112453,1.5172083591987906,-10.868749374294731,7.306392976448612
1.1188831018337309,-1.8143076614979867,6.1018176457044415,1.5902722889632768,-11.090866857030807,7.903765707319389
1.100740025218751,-1.9252163300682947,6.117720368594075,1.6693099460364706,-11.348908529525806,8.553591249092756
1.081487861918068,-2.0387054153635527,6.134413468054439,1.7548458585273983,-11.647849613507725,9.260536916313697
1.0611008077644324,-2.15518391149863,6.151961926639713,1.8474512276905353,-11.993147000905969,10.029888591938478
1.0395489686494461,-2.27511538150769,6.170436438916619,1.94775011360992,-12.39070403987496,10.867494059126965
1.0167978148343693,-2.3990224219064396,6.189913940052718,2.0564250542011897,-12.846761943089026,11.779598596379929
0.9928075906153049,-2.52749004133733,6.21047819059473,2.174221040164989,-13.367663802264751,12.772495896770975
0.9675326902019316,-2.6611666793599773,6.23222040099638,2.3019459991326987,-13.959402854036917,13.851868968222972
0.9409210234083318,-2.8007607079003467,6.255239860987707,2.4404646888149286,-14.626811992363582,15.021618746691699
0.9129134163293283,-2.9470288278239827,6.279644507875856,2.5906808762818456,-15.37216627971847,16.281858305345185
0.8834431280510885,-3.1007504906211674,6.305551316638675,2.7534994593352975,-16.19284179607117,17.62557018723802
0.8524356231448769,-3.2626789085818793,6.3330863112320275,2.9297551612076775,-17.077492675822707,19.033169785240432
0.819808834059058,-3.4334538353401065,6.362383862844104,3.120086859060082,-17.999983298462773,20.463902794393622
0.785474295705657,-3.613453668324734,6.3935847314347045,3.324725887004018,-18.91011975207774,21.842736275807912
0.7493397590224096,-3.8025548658455115,6.426831990304745,3.5431532497620974,-19.720313344887185,23.041532797974345
0.7113142103639545,-3.9997579992943835,6.462263522802366,3.773568577741841,-20.28831426997149,23.854720933213933
0.6713166303710106,-4.202641141994098,6.499999208579784,4.012115787073981,-20.3993831003186,23.97423589854933
0.6292902189510696,-4.406634972997284,6.540120366450524,4.251858146059474,-19.75866057328443,22.97893374597729
0.5852238692210968,-4.604221578730129,6.582638947911119,4.4816474835192475,-18.016781352554737,20.37100896332715
0.5391816534337955,-4.784389392255676,6.627455422746311,4.685357573152519,-14.862061577618615,15.706453806323816
0.49133775951123876,-4.933010008031862,6.674308998477836,4.8424221112157575,-10.19641715422448,8.843818241788307
0.44200765943092013,-5.034974179574107,6.722733219589994,4.930860293633641,-4.335948693044879,0.22809460712648746
0.39165791763517904,-5.078333666504555,6.77204182252633,4.933141239704906,1.9332088915691428,-9.029082576786724
0.3408745809701335,-5.059001577588864,6.82137323492338,4.842850413937039,7.598841359313484,-17.491926919491906
0.2902845651942449,-4.98301316399573,6.86980173906275,4.66793114474212,11.864266921401699,-24.02273396526999
0.24045443355428758,-4.864370494781713,6.916481050510171,4.42770380508942,14.4463167219558,-28.203757952760522
0.19181072860647047,-4.719907327562154,6.960758088561065,4.145666225561815,15.532585058110573,-30.280408407922426
0.1446116553308489,-4.564581476981049,7.002214750816684,3.8428621414825908,15.535685656557595,-30.817996368012775
0.09896584056103841,-4.409224620415473,7.04064337223151,3.534682177802463,14.873947828515224,-30.393986567890902
0.05487359435688368,-4.260485142130321,7.075990194009535,3.230742312123554,13.869490687264882,-29.45402781105508
0.012268742935580473,-4.121790235257672,7.10829761713077,2.936202034013003,12.734811196988208,-28.291970491646413
-0.028949159416996245,-3.9944421232877896,7.1376596374709,2.653282329096539,11.596012103857921,-27.081493048979734
-0.06889358064987414,-3.8784820022492106,7.164192460761866,2.3824673986067415,10.521343133607118,-25.915496667683346
-0.10767840067236625,-3.7732685709131393,7.188017134747933,2.123312431929908,9.543760052871802,-24.837381980187075
-0.14541108638149763,-3.6778309703844214,7.2092502590672325,1.8749386121280374,8.676033623419528,-23.86206952559063
-0.18218939608534185,-3.5910706341502263,7.227999645188513,1.6363179168721311,7.920040530418458,-22.988984032426472
-0.2181001024268441,-3.5118702288460417,7.244362824357234,1.4064280765478663,7.272184053228292,-22.209686142713636
-0.2532188047153045,-3.439148388313759,7.2584271051227125,1.18433121512073,6.726431609455438,-21.51220688354726
-0.28761028859844207,-3.3718840722192045,7.270270417273919,0.9692091462852573,6.275946713494449,-20.883437493879928
-0.3213291293206341,-3.30912460508426,7.279962508736772,0.760374771346458,5.913914608697127,-20.310403876928888
-0.35442037537147675,-3.2499854589972887,7.287566256450237,0.5572707325771692,5.633915759783065,-19.78091519400049
-0.38692022996144965,-3.193646301399458,7.293138963776009,0.35946158063716427,5.430052323823395,-19.28386903584536
-0.41885669297544426,-3.139345778161224,7.296733579582381,0.16662289027871066,5.2969449430506375,-18.809373389259903
-0.4502501507570565,-3.0863763287307178,7.298399808485168,-0.021470843613888374,5.229666413480952,-18.34877471894182
-0.48111391404436366,-3.0340796645959083,7.298185100049029,-0.20495859080330656,5.223649674074701,-17.894640778808792
-0.5114547106903228,-2.9818431678551613,7.296135514140996,-0.3839049985913945,5.274590960669954,-17.440723592572283
-0.5412731423688744,-2.929097258248462,7.292296464155082,-0.5583122345171173,5.378359517648657,-16.981914998767284
-0.570564114951359,-2.8753136630719753,7.286713341809911,-0.7281313845047901,5.530919867184724,-16.51419996224713
-0.5993172515820787,-2.820004464400128,7.279432027964863,-0.8932733841272614,5.728269532323797,-16.03460904696214
-0.62751729622608,-2.76272176907689,7.27049929412359,-1.0536194745968828,5.966393291120561,-15.541169598739055
-0.6551445139168489,-2.7030578361656845,7.259963099377622,-1.2090311705842733,6.241233939022796,-15.032854471122008
-0.6821750922785058,-2.6406454967754565,7.247872787671779,-1.3593597152954935,6.548678842036107,-14.509527051103495
-0.7085815472462604,-2.5751587083550955,7.234279190518824,-1.5044549858065284,6.884561103885782,-13.971881609305875
-0.7343331343298114,-2.5063130973162377,7.219234640660758,-1.644173801899587,7.244673856866564,-13.421378430059292
-0.7593962653029738,-2.433866358747572,7.202792902641763,-1.77838758620018,7.624795972506773,-12.860173659472286
-0.7837349288904495,-2.3576183990225044,7.185009026779761,-1.9069893227949029,8.020727351167604,-12.291044276596807
-0.8073111128806746,-2.2774111255108282,7.165939133551811,-2.029899765560871,8.428331876341572,-11.717309005949833
-0.8300852241357829,-2.1931278067474125,7.145640135896203,-2.1470728556203693,8.843586101096275,-11.142746330710791
-0.852016502203257,-2.10469194573645,7.124169407339999,-2.258500318927477,9.26263176383081,-10.57151103003776
-0.8730634216606215,-2.0120656280981417,7.101584404150724,-2.3642154292278548,9.681830302196836,-10.008050854649444
-0.8931840779416028,-1.9152473250761735,7.077942249858446,-2.464295937774349,10.09781764279235,-9.457025079833894
-0.9123365511923646,-1.81426914864825,7.053299290480703,-2.558866188572688,10.50755768680926,-8.92322674310972
-0.9304792426788471,-1.7091935717801574,7.027710628594976,-2.6480984560037855,10.908393086760446,-8.411510392466292
-0.9475711783966486,-1.600109640912553,7.001229644034938,-2.7322135599284483,11.298092116736576,-7.926727145825367
-0.9635722748057741,-1.4871287197451872,6.973907508435653,-2.811480831386702,11.674890678917704,-7.473668796273104
-0.978443562003226,-1.3703798129560103,6.945792700121786,-2.886217519349433,12.037528762145621,-7.0570225924886065
-0.9921473601327861,-1.2500045253345542,6.916930524928292,-2.956787745274319,12.385280971973907,-6.6813381812373
-1.0046474053861316,-1.126151715614815,6.887362647475548,-3.023601127086692,12.71798108004994,-6.351008021341121
-1.0159089225422797,-0.9989719048143157,6.857126636204681,-3.0871112073001035,13.036040883808134,-6.070262370182232
-1.0258986415904228,-0.8686114959762344,6.82625552413168,-3.1478138310019257,13.340464009985947,-5.84317970944148
-1.0345847565501851,-0.7352068558763749,6.794777385821661,-3.2062456280963403,13.632855616372698,-5.673713220122262
-1.041936825108949,-0.5988782997126479,6.762714929540698,-3.2629827602975627,13.91542921764357,-5.565733636377392
-1.0479256081060755,-0.45972400753621223,6.730085101937722,-3.3186400966613365,14.191012046266929,-5.52308848963632
-1.0525228481814377,-0.31781388707354297,6.696898700971109,-3.3738709815576997,14.463050407693865,-5.549677362931109
-1.0557009870521732,-0.17318338299660432,6.663159991155532,-3.4293677551870108,14.73561632687102,-5.649542235442873
-1.0574328208821393,-0.02582721972789412,6.628866313603662,-3.4858631775414395,15.013416297813093,-5.826971170487434
-1.0576910930794183,0.1243069432502368,6.594007681828248,-3.5441328892463138,15.301801959172328,-6.086612243181499
-1.056448023646916,0.27732496284196007,6.5585663529357845,-3.6049990116781285,15.60678073067579,-6.433592302537747
-1.0536747740184964,0.43339277014871797,6.522516362819003,-3.669334934703506,15.935021367127101,-6.873631221382208
-1.0493408463170093,0.5927429838199889,6.485823013471967,-3.738071246917328,16.293844200734096,-7.413135547632602
-1.0434134164788094,0.7556814258273299,6.448442301002794,-3.812202602393654,16.691177188089245,-8.05924400907401
-1.035856602220536,0.9225931977082223,6.410320274978858,-3.8927950424843942,17.13544450080642,-8.81977796197315
-1.0266306702434538,1.0939476427162864,6.371392324554014,-3.9809928221041258,17.63533059578627,-9.703017394394461
-1.015691193816291,1.2703009486741492,6.331582396332973,-4.0780229960480705,18.1993234827851,-10.717169051496604
-1.0029881843295494,1.4522941835020002,6.290802166372492,-4.185194686563037,18.834876845452122,-11.869304315624131
-0.9884652424945294,1.6406429519565215,6.248950219506861,-4.303887729719278,19.546927658453143,-13.16340062150567
-0.9720588129749642,1.836112228541053,6.205911342209669,-4.435521735934335,20.33534492481053,-14.596894163698096
-0.9536976906895537,2.0394656777891584,6.161556124850326,-4.581490677571316,21.190646353693506,-16.15481459910305
-0.9333030339116621,2.2513721413260934,6.1157412180746125,-4.743038823562347,22.08700115120216,-17.80011924970831
-0.9107893124984012,2.472242152838115,6.068310829838989,-4.92104001605943,22.971210988084678,-19.45837236116286
-0.8860668909700201,2.701954262718962,6.019100429678395,-5.115623739671059,23.746320173356164,-20.994827668730196
-0.8590473483428305,2.9394174644525237,5.967944192281684,-5.325572016358361,24.24957563319525,-22.183418250083907
-0.8296531736983053,3.1819132207844762,5.9146884721181,-5.5474061988592,24.228486167097138,-22.67272205304078
-0.7978340414904606,3.4241980824554474,5.859214410129508,-5.7741334193896074,23.32874072946943,-21.967905285875105
-0.7635920606659061,3.6574854897501416,5.801473075935612,-5.993812472248359,21.12547082336418,-19.472450893561152
-0.7270172057684047,3.8687401979837834,5.741534951213128,-6.1885369811839706,17.24525846667258,-14.655979153783436
-0.6883298037885668,4.041192782650509,5.679649581401288,-6.335096772721805,11.602730361785094,-7.3821172703838345
-0.6479178759620617,4.15722008626836,5.61629861367407,-6.408917945425643,4.66000305947503,1.73036231896438
-0.6063456750993781,4.203820116863111,5.552209434219813,-6.391614322235999,-2.541070046588589,11.260587041498473
-0.564307473930747,4.1784094163972245,5.488293290997453,-6.2790084518210145,-8.764761839469765,19.518126541157127
-0.5225233797667748,4.090761798002527,5.4255032064792434,-6.083827186409443,-13.165727699023549,25.349419424270078
-0.4816157617867495,3.9591045210122915,5.364664934615149,-5.830332992166742,-15.58094315207618,28.537924593703647
-0.44202471657662656,3.8032950894915296,5.306361604693482,-5.544953746229705,-16.365552430194306,29.57431906058663
-0.40399176568171125,3.6396395651895865,5.250912067231185,-5.249210555623839,-16.051147384691763,29.184958087410795
-0.36759537002981535,3.4791280913426688,5.198419961674946,-4.957360974749731,-15.108506187556216,28.007534809175915
-0.33280408911638865,3.3280430294671066,5.148846351927449,-4.677285626657972,-13.868622041309722,26.4855566922425
-0.2995236588217176,3.189356809054009,5.102073495660869,-4.412430059735547,-12.53408685965264,24.88627567707904
-0.2676300907311775,3.064015940457483,5.057949195063514,-4.163567302964756,-11.216686310541602,23.353471064397358
-0.23698993132660268,2.9518490773520667,5.016313522033866,-3.9300325923207824,-9.971805688461902,21.955013228000134
-0.207471440553082,2.8521310204674477,4.977013196110659,-3.710482460040781,-8.822493368255063,20.71579268017905
-0.17895013034840754,2.763906086784897,4.939908371510251,-3.5033245332389904,-7.77439478730034,19.637952886155926
-0.15131106948055856,2.6861621389118935,4.904875126177861,-3.306945004377431,-6.8244326805753746,18.712513590014137
-0.12444944809143962,2.61791781210614,4.871805676134087,-3.1198198684772898,-5.965639345596553,17.92574368471183
-0.09827026997037822,2.5582614186501744,4.840607477449314,-2.9405624316301715,-5.189748478087533,17.262506106348727
-0.07268765578387647,2.506363933869299,4.811201853133013,-2.7679373705666843,-4.488524268916918,16.707915676730426
-0.04762401644518348,2.46147869118013,4.783522479427346,-2.60085821379938,-3.8543951202511564,16.24808209433152
-0.023009229533382178,2.4229347399776184,4.7575138972893525,-2.438377392856065,-3.2807127993820497,15.87037125208633
0.0012201178663940083,2.390127611983798,4.733130123360792,-2.279673680335202,-2.7618154598891045,15.563423728606423
0.025121393986231987,2.362509457384907,4.71033338655744,-2.1240394430491376,-2.2929923937392345,15.317060204551053
0.048746488560081055,2.3395795334475147,4.689092992126948,-1.970868841003627,-1.8704033154229835,15.122143053118394
0.07214228389455621,2.320875500293285,4.669384303716912,-1.8196474104724432,-1.4909799807984385,14.97043009070654
0.09535103889748905,2.3059657004853005,4.651187829612188,-1.6699431095653778,-1.1523242005943646,14.854438341465887
0.11841069590234206,2.294442458479357,4.634488398516535,-1.521398726150719,-0.8526088613383632,14.767325888397426
0.14135512048713564,2.2859163698659732,4.619274411255027,-1.3737254672667447,-0.5904846360968421,14.702794680348893
0.16421428418579537,2.2800115235050047,4.6055371565823595,-1.2266975204632558,-0.36499309834101656,14.655014444270446
0.1870143994208454,2.2763615925215945,4.593270181377727,-1.0801473760205513,-0.17548607174667535,14.6185664566515
0.20977801534606136,2.274606731804128,4.5824687076175215,-0.9339617114540364,-0.021550764420042563,14.588405220948252
0.23252408266410263,2.2743912241599276,4.573129090502981,-0.7880776592445539,0.0970597328340075,14.55983573610404
0.2552679949057019,2.275361821488268,4.565248313910535,-0.6424793018835134,0.18049082119025478,14.52850384773731
0.2780216131205846,2.2771667297001703,4.5588235208917,-0.4971942634061403,0.22884564052902823,14.490397065025872
0.3007932804175863,2.2794551861054604,4.553851578257638,-0.3522902927558816,0.24223895590495265,14.44185317255341
0.3235878322786409,2.28187757566451,4.550328675330079,-0.2078717610303475,0.2208452658917837,14.379573965914021
0.346406608035286,2.284086028323428,4.548249957719776,-0.06407602137120727,0.16494060053241402,14.300641504755971
0.3692474683185203,2.285735434328752,4.5476091975060635,0.07893039367635243,0.07493744798766522,14.202534422766684
0.3921048226618078,2.2864848088086287,4.548398501442827,0.2209557379040193,-0.04858768879439019,14.083142073035454
0.4149696707498941,2.285998931920685,4.550608058821868,0.36178715863437383,-0.20487445503367552,13.940774623376633
0.43782966006910096,2.283950187370348,4.5542259304082116,0.5011949048681401,-0.39296665330652814,13.774167642859531
0.46066916194280444,2.2800205208372826,4.559237879456893,0.6389365812967354,-0.6117079491136416,13.582480219674279
0.4834693671511773,2.273903441346146,4.56562724526986,0.7747613834934781,-0.8597448196633831,13.365286192715178
0.5062084015646388,2.265305993149512,4.573374859104795,0.9084142454206299,-1.1355359925706903,13.122558628184262
0.5288614614961339,2.253950633223805,4.582459001559001,1.0396398317024724,-1.4373673545824774,12.854648187520732
0.5514009678283719,2.23957695967798,4.592855399876026,1.1681863135776798,-1.7633711048561542,12.562256474207631
0.5737967374251517,2.221943248629419,4.604537263011802,1.293808878319756,-2.1115478043112588,12.246405780035719
0.5960161699114459,2.200827770586306,4.617475351795,1.4162729361201134,-2.4797899455561443,11.908406851083543
0.618024447617309,2.1760298711307446,4.6316380811562015,1.5353570046309488,-2.8659057408221065,11.549826346941853
0.6397847463286165,2.1473708137225236,4.646991651202511,1.6508552681003674,-3.26764199255683,11.172455573799168
0.6612584544658417,2.114694393796955,4.663500203883515,1.762579823838359,-3.682705158444443,10.778281846086148
0.6824053984038113,2.0778673422125107,4.681126002121899,1.8703626422992206,-4.108780028238539,10.369463496843323
0.7031840718259365,2.0367795419301253,4.699829628544891,1.974057277267654,-4.543545767811576,9.948309146717799
0.7235518672452377,1.9913440842520096,4.719570201317568,2.073540368734832,-4.984689427921461,9.517261393608337
0.7434653080877578,1.941497189972795,4.740305605004917,2.1687129826709155,-5.429917333291313,9.078884639361634
0.7628802799874858,1.8871980166398818,4.761992734831626,2.259501829064532,-5.876965036024995,8.635856365074714
0.7817522601538845,1.828428366279632,4.784587753122271,2.345860392715279,-6.323606714706066,8.190960836804724
0.8000365438166809,1.7651922991325713,4.808046357049424,2.427770001083326,-6.767665010975196,7.7470839967329885
0.8176884668080066,1.6975156490228194,4.832324057060257,2.505240841050656,-7.20702230988333,7.307208190825633
0.8346636232982347,1.625445425923986,4.857376465470764,2.5783129229589123,-7.639634387216638,6.87440541314901
0.8509180775574746,1.5490490820518197,4.883159594700353,2.6470569770904024,-8.063547172380181,6.451827909479773
0.8664085683779928,1.4684136103280179,4.909630164471257,2.7115752561852,-8.476917123095621,6.042695268599221
0.8810927044812731,1.3836444390970617,4.936745917033109,2.7720022088711924,-8.878035399025563,5.650277518643817
0.8949291488722437,1.294864085106806,4.964465939121821,2.8285049840576306,-9.265355682363053,5.277874209265457
0.9078777897233118,1.2022105282831754,4.992750988962397,2.881283726150285,-9.637525155453082,4.928789962486854
0.9198998950061436,1.1058352767286446,5.0215638262239,2.9305716257751535,-9.993417841396445,4.606307476382862
0.93095824777343,1.00590109831468,5.050869542481652,2.976634700538982,-10.332169274886427,4.313659426009984
0.9410172587565767,0.9025794055658158,5.080635889487042,3.019771294799082,-10.653211324520196,4.054001088837501
0.9500430528122349,0.7960472923206139,5.110833602435033,3.060311305687457,-10.95630595460443,3.8303857983596634
0.958003525735441,0.6864842327745696,5.141436715491907,3.0986151636710537,-11.24157680469788,3.645745481680304
