th1 (rad),w1 (rad/s),th2 (rad),w2 (rad/s),a1 (rad/s^2),a2 (rad/s^2)
3.7013652311431784,2.451438789875878,1.12610197574646,2.7637090375539786,1.2149003209728715,-4.597294260935426
3.725879619041937,2.463587793085607,1.153739066122,2.717736094944624,1.5797527467708856,-4.357160237179958
3.750515496972793,2.4793853205533156,1.1809164270714463,2.6741644925728245,1.9459559338425947,-4.100731677880439
3.7753093501783264,2.4988448798917418,1.2076580719971746,2.63315717579402,2.3135055913270883,-3.827824659468154
3.800297798977244,2.5219799358050126,1.2339896437551148,2.5948789291993384,2.682443427643204,-3.5381983140864914
3.8255175983352943,2.5488043700814447,1.2599384330471082,2.5594969460584736,3.0528507543395604,-3.231562108941194
3.8510056420361085,2.5793328776248403,1.285533402507693,2.5271813249690616,3.4248411152664624,-2.907584555348121
3.8767989708123567,2.613581288777505,1.3108052157573835,2.4981054794155804,3.7985519144093973,-2.5659034058860293
3.9029347837001316,2.651566807921599,1.3357862705515393,2.47244644535672,4.174134995190796,-2.2061374293680056
3.9294504517793474,2.6933081578735067,1.3605107350051064,2.45038507106304,4.551746107151798,-1.82789988183196
3.9563835333580823,2.738825618945025,1.3850145857157368,2.4321060722447205,4.931533183862002,-1.4308138155616217
3.9837717895475326,2.788140950783645,1.4093356464381839,2.4177979340891045,5.313623349964324,-1.0145293851721502
4.011653199055369,2.841277184283288,1.4335136257790748,2.407652640237383,5.698108576877408,-0.5787433175889439
4.040065970898202,2.8982582700520623,1.4575901521814487,2.401865207061493,6.0850299174428555,-0.1232207085016532
4.069048553598723,2.959108569226491,1.4816088042520636,2.4006329999764766,6.474360271470859,0.35218071161290787
4.098639639290988,3.0238521719411997,1.5056151342518285,2.4041548070926058,6.865985668574106,0.847483737087152
4.1288781610104,3.092512028626941,1.5296566823227544,2.412629644463477,7.259685103787053,1.3625622283424563
4.15980328129667,3.1651088796648117,1.5537829787673891,2.4262552667469017,7.65510902703352,1.8971090782394966
4.191454370093318,3.2416599699351467,1.5780455314348583,2.4452263575292967,8.051756670996696,2.4506017642619513
4.223870969792669,3.3221775366451136,1.6024977950101513,2.4697323751719162,8.448952504218228,3.0222657976433216
4.25709274515912,3.406667061687296,1.6271951187618705,2.4999550331483493,8.845822217194954,3.611036565523997
4.291159415775994,3.4951252838592453,1.652194669093354,2.5360653988035895,9.241268787341165,4.215520281514924
4.326110668614586,3.5875379717326568,1.67755532308139,2.578220601618739,9.63394932056012,4.833955010514217
4.361986048331913,3.683877464938258,1.7033375290975774,2.626560151723881,10.022253527101748,5.46417300843901
4.398824822981295,3.7841000002092753,1.7296031306148163,2.681201881808271,10.40428484891769,6.1035659052943085
4.436665822983388,3.888142848698452,1.756415149432899,2.7422375408612143,10.777845403430751,6.749054544051467
4.475547251470372,3.99592130273276,1.7838375248415113,2.809728086301729,11.14042603015519,7.397065545926885
4.5155064644977,4.107325563034312,1.8119348057045286,2.883698741760998,11.489202805094033,8.043516877298698
4.556579720128044,4.222217591085252,1.8407717931221386,2.964133910533985,11.821041404940312,8.683814812900538
4.598801896038896,4.3404280051346555,1.8704131322274784,3.0509720586629903,12.132510640501614,9.312864690148611
4.642206176090243,4.461753111539672,1.9009228528141082,3.1441007055644765,12.419906320332887,9.925097697574861
4.686823707205639,4.585952174743,1.932363859869753,3.2433516825402253,12.679286340016363,10.514515608681219
4.73268322895307,4.712745038143164,1.9647973766951552,3.3484968386270375,12.906517516278043,11.074754843636901
4.779810679334501,4.841810213305944,1.9982823450814255,3.4592443870634066,13.097334204941903,11.599170513019164
4.82822878146756,4.972783555355363,2.0328747889520598,3.5752360921935984,13.247408176648674,12.08094018804652
4.8779566170211135,5.10525763712185,2.0686271498739957,3.6960454940740637,13.352428606255557,12.51318609104735
4.929009193392332,5.238781923184406,2.1055876048147364,3.8211773549845374,13.40819040450291,12.889113271846321
4.981397012624176,5.372863827229435,2.143799378364582,3.9500684877030006,13.410688535790408,13.20216021375426
5.03512565089647,5.506970712587339,2.183300063241612,4.082090089840543,13.356215478505757,13.446157293189795
5.090195358022343,5.6405328673723965,2.2241209641400173,4.216551662772441,13.241458644925148,13.615487698423937
5.1466006866960665,5.772947453821648,2.2662864807677416,4.352706539756681,13.063594425265231,13.705244884254663
5.204330161234283,5.9035833980743,2.3098135461653087,4.4897589885992275,12.820375575720599,13.711380466422344
5.263365995215026,6.031787153831506,2.354711136051301,4.626872793263451,12.510208931236292,13.630836674353036
5.323683866753341,6.156889243143869,2.4009798639839355,4.763181160006981,12.132220864531769,13.461658075117576
5.385252759184779,6.278211451789187,2.4486116755840053,4.897797740758157,11.686308486845197,13.203078206056274
5.448034873702671,6.395074536657639,2.4975896529915866,5.029828522818719,11.173175232123944,12.855577923824088
5.5119856190692476,6.506806288978879,2.5478879382197737,5.15838430205696,10.594350119115775,12.420913585374088
5.577053681959036,6.612749790170037,2.5994717812403434,5.282593437910701,9.952190584394257,11.902114504763155
5.643181179860736,6.712271696013979,2.6522977156194503,5.401614582958333,9.24986927745102,11.303450369372065
5.710303896820876,6.80477038878849,2.7063138614490336,5.514649086652053,8.49134558081537,10.63037036268292
5.778351600708761,6.889683844596644,2.761460352315554,5.620952790278882,7.681322860742901,9.889416572128424
5.847248439154727,6.9664970732040725,2.817669880218343,5.719846956000167,6.825192585269883,9.088114839053697
5.916913409886768,7.034748999056771,2.8748683497783447,5.810728104390703,5.928966499676525,8.234846546025652
5.987260899877336,7.094038664053536,2.9329756308222517,5.89307656985096,4.999198065622743,7.3387049731501905
6.058201286517871,7.144030644709764,2.9919063965207613,5.966463619582462,4.042894389711038,6.409339844003848
6.129641592964969,7.184459588606874,3.051571032716586,6.030557018022501,3.0674199222388094,5.456793582021054
6.201486188851038,7.215133787829262,3.111876602896811,6.085124953842711,2.0803933164214246,4.491332662733938
6.27363752672933,7.235937720993476,3.172727852435238,6.130038280470051,1.0895790057446486,3.5232773158051933
6.345996903939265,7.246833511050923,3.2340282352399385,6.165271053628103,0.10277527050168656,2.5628327254032732
6.418465239049774,7.24786126375594,3.2956809457762195,6.1908993808821355,-0.8722992002051717,1.6199248018470291
6.490943851687334,7.239138271753888,3.357589939585041,6.207098628900606,-1.8281180197374756,0.7040435392024751
6.563335234404873,7.220857091556514,3.4196609258740467,6.21413906429263,-2.7574566772366595,-0.17590309139622132
6.635543805320438,7.193282524784148,3.481802316516973,6.212380033378668,-3.653496459199848,-1.0117218645970316
6.707476630568279,7.156747560192149,3.5439261168507596,6.202262814732698,-4.509920206170986,-1.7960509604085746
6.7790441061702005,7.111648358130439,3.6059487449980865,6.184302305128613,-5.3209975113528145,-2.522458141841866
6.850160589751505,7.05843838301691,3.667791768049373,6.159077723710194,-6.081657212062605,-3.1855184006923496
6.920744973581674,6.997621810896284,3.729382545286475,6.12722253970327,-6.787545386640633,-3.7808695021938483
6.990721191690636,6.929746357029877,3.7906547706835076,6.0894138446813315,-7.435067531644485,-4.3052444428927865
7.060018655260936,6.855395681713433,3.851548909130321,6.046361400252404,-8.021414131431301,-4.756480501406728
7.12857261207807,6.77518154039912,3.912012523132845,5.998796595238336,-8.544569413178522,-5.133505277147801
7.196324427482061,6.689735846267335,3.9720004890852283,5.947461542466859,-9.00330367067208,-5.43630083872348
7.263221785944735,6.599702809560615,4.031475104509897,5.893098534079624,-9.397150105378747,-5.665847799172308
7.329218814040341,6.505731308506827,4.090406089850694,5.836440056087901,-9.726367641613631,-5.824051757580146
7.394276127125409,6.408467632090691,4.1487704904115725,5.7781995385121,-9.991891597109202,-5.913655058524073
7.4583608034463165,6.308548716119599,4.206552485796694,5.719062987926859,-10.195274410720629,-5.93813719259231
7.521446290607512,6.206595972012393,4.263743115675962,5.6596816160009356,-10.338618832838847,-5.901607373655237
7.583512250327637,6.1032097836840045,4.320339931835972,5.600665542264383,-10.42450606696979,-5.808692874057308
7.644544348164477,5.998964723014306,4.376346587258616,5.54257861352381,-10.455921316452464,-5.664426581863041
7.70453399539462,5.894405509849782,4.431772373393854,5.48593434770518,-10.436179049088345,-5.474136980081157
7.763478050493117,5.7900437193588985,4.486631716870906,5.431192977904368,-10.368850060937007,-5.243343360801695
7.821378487686706,5.6863552187495285,4.540943646649949,5.378759544296352,-10.257692119137381,-4.977658608153507
7.878242039874202,5.583778297558155,4.594731242092912,5.328982958214817,-10.106585614960068,-4.682701346992978
7.9340798228497835,5.482712441408554,4.6480210716750605,5.282155944744887,-9.91947528533868,-4.36401869364478
7.988906947263869,5.383517688555168,4.7008426311225096,5.23851575780844,-9.700318685504197,-4.027020292802764
8.04274212414942,5.286514501700126,4.753227788700594,5.198245554880412,-9.45304173604606,-3.6769238083189597
8.095607269166422,5.191984084339666,4.805210244249397,5.161476316797223,-9.181501340180063,-3.3187115765913617
8.147527110009818,5.100169070937865,4.8568250074173696,5.128289201031309,-8.889454782618914,-2.957097744574894
8.198528800719197,5.011274523111675,4.908107899427683,5.09871822358556,-8.58053538754336,-2.5965049085558034
8.248641545950314,4.925469169236242,4.959095081663539,5.072753174500002,-8.25823373331372,-2.2410490473425626
8.297896237642677,4.842886831903105,5.009822613408539,5.050342684026576,-7.925883596088958,-1.8945314021949038
8.346325105961707,4.763627995942215,5.060326040248805,5.031397370004627,-7.586651721282432,-1.5604358897733566
8.393961385921129,4.687761478729391,5.110640013948851,5.015793011106894,-7.243530496891097,-1.241930635443604
8.440839000708422,4.61532617376048,5.16079794405992,5.003373704752457,-6.899332621274158,-0.9418722730128668
8.486992262446027,4.546332847547738,5.210831681107444,4.993954982022329,-6.5566869145741045,-0.6628117637733318
8.532455590921504,4.4807659784019975,5.260771230927667,4.987326864384595,-6.21803451231456,-0.4070006333689779
8.577263250705524,4.418585633278852,5.310644499571513,4.983256858050906,-5.885624796655423,-0.17639670110145064
8.621449107038313,4.359729385312297,5.360477068152022,4.981492891039891,-5.561510560521495,0.027331424604202192
8.665046400891436,4.304114279707083,5.410291997062421,4.981766205285933,-5.2475420577301195,0.20280159538100764
8.708087543688507,4.251638859129781,5.460109659115281,4.983794221239743,-4.945359763684071,0.34891740183529735
8.750603932279805,4.20218526149294,5.509947601327678,4.987283395258095,-4.656385851198851,0.46486953731872427
8.792625784894735,4.155621402980952,5.559820435280259,4.991932090631282,-4.3818145689827155,0.5501390737939332
8.834181998924544,4.1118032572911245,5.609739756186572,4.997433481369222,-4.122601889645145,0.6045022582370757
8.875300031497455,4.070577238394673,5.659714091000264,5.003478503951593,-3.879454962268563,0.6280362362742617
8.9160058038814,4.031782688771988,5.7097488760397805,5.0097588663143355,-3.6528220528725406,0.6211249339917997
8.95632363076912,3.995254468243262,5.759846464702924,5.0159701156542535,-3.442883775066756,0.584464188802036
8.996276175451552,3.9608256304925944,5.810006165859466,5.021814757542274,-3.249546493071021,0.5190651258669117
9.035884431756477,3.928330165561884,5.860224313434889,5.027005408800943,-3.072438810791528,0.42625473733849084
9.075167733412096,3.8976057774539687,5.910494367522898,5.031267956174328,-2.9109120359500693,0.3076726454842348
9.114143791186635,3.868496657094468,5.960807047084642,5.03434468262917,-2.764045422094369,0.16526312282582514
9.152828757757579,3.8408562028735242,6.011150493910933,5.035997313857428,-2.630656842062074,0.0012616040567822674
9.191237319786314,3.8145496344529035,6.061510467049508,5.036009929897996,-2.509319337130152,-0.18182484784411626
9.229382816130842,3.789456441081602,6.111870566348488,5.034191681419554,-2.398383724850118,-0.38124337428566646
9.267277380541659,3.765472603833101,6.162212483162683,5.030379247676698,-2.2960071489556158,-0.5940273786458123
9.30493210657999,3.7425125323435444,6.212516275639451,5.0244389738902395,-2.2001871350060886,-0.8170343855127855
9.342357231903426,3.7205106609934835,6.262760665378353,5.016268630035111,-2.1088003974720233,-1.0469889300165822
9.379562338513361,3.699422657018763,6.312923351678704,5.005798740734946,-2.019645351464145,-1.280529383908709
9.41655656508355,3.679226203504122,6.362981339086054,4.992993446895858,-1.9304870385492872,-1.514257354906491
9.45334882711859,3.659921333118629,6.412911273555013,4.977850873346793,-1.8391030015874394,-1.744788099457782
9.489948040449777,3.6415303031027544,6.46268978228848,4.960402992352216,-1.7433285537346608,-1.9688002833264568
9.526363343480805,3.6240970175654077,6.512293812212002,4.940714989518951,-1.6410998903226535,-2.183083418842143
9.56260431365646,3.6076860186621813,6.561700962107191,4.91888415533053,-1.5304935899837753,-2.3845814035140207
9.598681173843081,3.5923810827623437,6.610889803660497,4.89503834129539,-1.4097612358201514,-2.5704307746220936
9.634604984670705,3.578283470404142,6.659840187073451,4.869334033549169,-1.2773581439996191,-2.737992563220484
9.670387819374747,3.565509888964146,6.708533527408942,4.841954107916965,-1.1319654956038967,-2.884876957446055
9.706042918264389,3.554190234008107,6.756953068488112,4.813105338342504,-0.9725055040744579,-3.0089603440261614
9.74158482060447,3.5444651789673625,6.805084121871538,4.783015734902243,-0.7981495904404083,-3.1083946621226692
9.777029472394142,3.5364836830629582,6.85291427922056,4.751931788281016,-0.6083198583708137,-3.181609350207988
9.812394309224771,3.5304004844792503,6.90043359710337,4.720115694778936,-0.4026844412233249,-3.227306473202577
9.847698314069564,3.526373640067017,6.947634754051159,4.6878426300469105,-0.18114751896566303,-3.244449867476297
9.882962050470235,3.5245621648773606,6.994513180351628,4.655398131372148,0.05616503472551139,-3.232249325474185
9.918207672119008,3.5251238152246156,7.0410671616653495,4.623075638117406,0.30892331867151857,-3.1901409558295106
9.953458910271255,3.528213048411331,7.087297918046524,4.591174228559111,0.5766132947628773,-3.1177649007216455
9.988741040755368,3.53397918135896,7.133209660332115,4.559996579551894,0.8585578385492213,-3.0149415764338494
10.024080832568957,3.542564759744452,7.178809626127634,4.529847163787556,1.153937957300346,-2.881647535420276
10.059506480166402,3.5541041393174555,7.22410809776551,4.501030688433353,1.4618132904846488,-2.7179919404874067
10.095047521559577,3.568722272222302,7.269118404649843,4.473850769028479,1.7811411388964171,-2.5241945063036457
10.1307347442818,3.5865336836112665,7.313856912340128,4.448608823965443,2.1107934124850796,-2.300565612208844
10.166600081117911,3.6076416177361175,7.358343000579783,4.425603167843354,2.4495710334958365,-2.0474891336459824
10.202676497295272,3.632137328071076,7.402599032258217,4.405128276506894,2.7962154729417565,-1.7654083859979905
10.238997870575982,3.6600994828004936,7.446650315023286,4.3874741926469145,3.1494172289498468,-1.4548154305196193
10.275598865403987,3.691593655089992,7.490525056949755,4.372926038341718,3.5078211715019325,-1.116243861574027
10.312514801954887,3.7266718668050114,7.534254317333172,4.361763599725978,3.8700287777592512,-0.750265079700042
10.349781520622937,3.7653721545826038,7.5778719533304315,4.354260948928977,4.2345973652967865,-0.35748795668569516
10.387435242168763,3.8077181282355714,7.621414562819721,4.35068606936212,4.600036498122353,0.06143828390333047
10.425512423451119,3.853718493216795,7.664921423513342,4.351300452201153,4.9648017940129785,0.5058182159154929
10.464049608383286,3.903366511156925,7.708434428035353,4.3563586343603085,5.327286403527953,0.9749016911213295
10.503083273494855,3.9566393751922044,7.751998014378956,4.366107651271522,5.68581046313585,1.4678729987276833
10.542649667246778,4.013497479823563,7.795659090891672,4.380786381258798,6.038608849023519,1.9838380888460012
10.582784642045013,4.073883568313798,7.8394669547042595,4.400624762147259,6.383817575629936,2.5218102740736756
10.62352347772815,4.137721744070098,7.883473202325732,4.425842864887995,6.719459194366837,3.080694844342602
10.664900695168852,4.204916336013766,7.927731630974612,4.456649813331421,7.043427553158071,3.6592730416439814
10.70694985852899,4.275350611545346,7.972298129107926,4.493242543747861,7.35347227531843,4.256185840551194
10.749703364644443,4.34888533429853,8.017230554545405,4.535804402153373,7.647183305071137,4.869917963722853
10.793192217987428,4.425357167349242,8.062588598566938,4.584503581790602,7.921975844182424,5.498782523649424
10.83744578966092,4.504576925791066,8.108433634384845,4.639491407027096,8.175075966860435,6.140906616707004
10.882491558918831,4.58632768545967,8.154828548455116,4.700900473194166,8.403507145286458,6.794218096462843
10.928354835773428,4.670362756912534,8.201837553187058,4.768842654158795,8.604077843485118,7.45643361365077
10.975058463342553,4.756403535347386,8.249525979728647,4.8434069902953025,8.773370241514918,8.125047824925634
11.022622498696027,4.844137237762535,8.2979600496316,4.9246574685445585,8.907730036168871,8.797323438466446
11.071063871073653,4.933214538124224,8.347206624317046,5.012630702929223,9.003257132867475,9.47028148286639
11.120396016454896,5.023247109452899,8.397332931346337,5.107333517757887,9.055796905282778,10.140690863803554
11.170628487549424,5.1138050785057265,8.448406266523916,5.208740426395923,9.060931569841182,10.805055926566032
11.221766538334482,5.2044143942041385,8.500493670787876,5.316790985661583,9.013971125035141,11.459600398739227
11.273810682276522,5.29455410545449,8.55366158064449,5.431386989648975,8.90994327364111,12.10024578765914
11.326756223331067,5.383653538190901,8.60797545054098,5.552389447525567,8.74358182413088,12.722582110298557
11.380592758712975,5.47108935643221,8.663499345016236,5.679615268628552,8.50931331304864,13.321828817931213
11.435303652277296,5.556182489562697,8.720295497702521,5.812833556807864,8.201242073155788,13.892784045334613
11.490865477172923,5.638194910294255,8.7784238332706,5.95176139726121,7.813134774659732,14.429760988582
11.547247426275865,5.716326258040852,8.837941447243212,6.09605900714703,7.3384066784481075,14.926511441854222
11.604410688856273,5.789710324825333,8.898902037314683,6.245324121565572,6.7701135497549085,15.376138461989703
11.662307792104526,5.857411460322882,8.961355278530338,6.399085506185469,6.100955460848143,15.771002940206737
11.720881906707755,5.918421014931363,9.025346133592192,6.556795535587536,5.323301593751649,16.1026326795084
11.780066116857068,5.97165403086888,9.090914088948068,6.71782186238262,4.429248590696061,16.36164747329839
11.839782657165756,6.01594651677584,9.158092307571895,6.881438337115604,3.4107288084636567,16.537719595147742
11.899942122333515,6.050053804860477,9.226906690943052,7.046815533067082,2.2596886239212877,16.61959576073036
11.96044266038212,6.07265069109969,9.297374846273723,7.213011490674385,0.9683600310840683,16.595213393926795
12.021169167293117,6.082334291410531,9.369504961180466,7.378963624613653,-0.47034989015872614,16.451949836597063
12.081992510207222,6.077630792508944,9.443294597426602,7.543483122979624,-2.0623289457565512,16.177046320244482
12.14276881813231,6.057007503051379,9.518729428656398,7.705253586182069,-3.811573539781868,15.758246778625747
12.203338893162824,6.01889176765356,9.595781964518219,7.862836053968326,-5.719344556428868,15.184682133885545
