th1 (rad),w1 (rad/s),th2 (rad),w2 (rad/s),a1 (rad/s^2),a2 (rad/s^2)
2.6061315682657344,2.134854042001151,4.419043792874757,-2.1183633496834027,-2.293765604741445,4.406746469175608
2.627480108685746,2.1119163859537364,4.397860159377923,-2.0742958849916464,-2.26467738571572,4.498583671283995
2.648599272545283,2.089269612096579,4.377117200528007,-2.0293100482788065,-2.243951645401372,4.591023640068007
2.669491968666249,2.0668300956425654,4.356824100045219,-1.9833998118781264,-2.230675959244059,4.684831537328298
2.6901602696226745,2.044523336050125,4.336990101926437,-1.9365514965048434,-2.224031378362269,4.78060540263132
2.7106055029831757,2.0222830222665023,4.317624586961389,-1.8887454424785302,-2.2232732985924444,4.87879316261822
2.7308283332058405,2.0000502892805776,4.298737132536604,-1.839957510852348,-2.2277145651092307,4.9797067856778625
2.750828836098646,1.9777731436294852,4.280337557428081,-1.7901604429955693,-2.236710689807282,5.083533948725908
2.770606567534941,1.9554060367314123,4.262435952998125,-1.7393251035083102,-2.249647048163515,5.190347634703876
2.7901606279022553,1.9329095662497773,4.245042701963042,-1.6874216271612714,-2.265927933893913,5.300114099520746
2.809489723564753,1.9102502869108382,4.2281684856914294,-1.634420486166064,-2.2849673725442523,5.412699647890417
2.8285922264338614,1.8874006131853958,4.211824280829769,-1.5802934896871599,-2.3061816217631645,5.527876645933842
2.8474662325657154,1.864338796967764,4.196021345932897,-1.5250147232278215,-2.328983311190604,5.645329177985132
2.866109620535393,1.841048963855858,4.1807711987006195,-1.4685614314479702,-2.352777194933152,5.764658726893093
2.8845201101739515,1.8175211919065266,4.16608558438614,-1.4109148441790393,-2.3769575017999123,5.885390220953744
2.9026953220930167,1.7937516168885275,4.151976435944349,-1.352060941969502,-2.400906870946552,6.00697874545987
2.920632838261902,1.7697425481790618,4.1384558265246545,-1.2919911545149032,-2.423996852148068,6.128817161615553
2.9383302637436928,1.7455025796575812,4.125535914979506,-1.2307029828987477,-2.4455899301677575,6.250244809529853
2.9557852895402688,1.7210466803559035,4.1132288851505185,-1.1682005348034492,-2.465043002017778,6.3705573952736
2.9729957563438276,1.6963962503357257,4.101546879802484,-1.1044949608507133,-2.481712195649284,6.489018075791023
2.9899597188471847,1.671579128379233,4.090501930193977,-1.039604780092803,-2.4949588710889166,6.604869662386969
3.006675510130977,1.6466295396683437,4.080105882393049,-0.9735560834689333,-2.5041565935470786,6.717347767554362
3.0231418055276604,1.621587973732873,4.07037032155836,-0.9063826057933897,-2.508698816702487,6.825694626346497
3.039357685264989,1.596500985565848,4.061306495500426,-0.8381256595299247,-2.5080069679503474,6.929173238578697
3.0553226951206476,1.5714209158863446,4.052925238905126,-0.7688339271441377,-2.501538590832443,7.027081408547141
3.071036904279511,1.5464055299780202,4.045236899633685,-0.6985631130586663,-2.4887951778167254,7.118765211121752
3.086500959579291,1.521517578199853,4.038251268503099,-0.6273754609474487,-2.4693293229215407,7.203631392437137
3.10171613536129,1.4968242849706375,4.031977513893624,-0.5553391470230773,-2.4427508409166343,7.2811582236390295
3.116684378210996,1.4723967765614712,4.026424122423394,-0.482527564786687,-2.4087315387628823,7.350904368522704
3.131408345976611,1.4483094611738423,4.021598846775527,-0.40901852110146,-2.3670083843665175,7.412515398929932
3.145891440588349,1.424639377330177,4.017508661564513,-0.33489336711216067,-2.3173848944093507,7.465727691123462
3.160137834361651,1.4014655283860835,4.014159727893391,-0.26023609020092603,-2.2597306519998126,7.510369555169695
3.174152489645512,1.3788682218660855,4.011557366991382,-0.1851323946492291,-2.193978959912652,7.546359578873435
3.187941171864173,1.356928432266959,4.00970604304489,-0.10966879886049474,-2.120122729358591,7.57370229826933
3.201510456186843,1.335727204973373,4.008609355056285,-0.03393177587780144,-2.0382087907663946,7.592481428363162
3.2148677282365767,1.3153451170657091,4.008270037297507,0.041993038405830185,-1.948330886005732,7.602850992061377
3.228021179407234,1.2958618082056519,4.0086899676815655,0.11802154832644396,-1.8506216562777398,7.605024765259505
3.2409797974892904,1.2773555916428745,4.00987018316483,0.194071795979039,-1.7452439737975056,7.599264507588584
3.253753353405719,1.2599031519048993,4.011810901124621,0.2700644410549249,-1.632381977579295,7.585867469774608
3.266352384924768,1.2435793321291064,4.01451154553517,0.345923115752671,-1.5122321651493065,7.5651536610022685
3.278788178246059,1.2284570104776134,4.017970776692696,0.42157465236269365,-1.384994865437322,7.537453326376991
3.291072748350835,1.21460706182324,4.022186523216323,0.49694918562646356,-1.2508663771321256,7.503095030473131
3.3032188189690674,1.2020983980519189,4.027156015072588,0.5719801359311949,-1.110032005727941,7.462394673915716
3.3152398029495864,1.1909980779946394,4.0328758164319005,0.6466040826703521,-0.9626601757619864,7.415645692107778
3.3271497837295327,1.1813714762370195,4.039341857258604,0.7207605395914298,-0.80889773647137,7.363110604399653
3.338963498491903,1.1732824988723058,4.046549462654518,0.7943916456354263,-0.6488665228020747,7.305014003245134
3.350696323480626,1.1667938336442851,4.054493379110872,0.8674417856678777,-0.48266118211884995,7.241537000203907
3.362364261817069,1.1619672218230965,4.0631677969675515,0.9398571556699167,-0.31034823198038486,7.172813081882804
3.3739839340352997,1.1588637395032926,4.07256636852425,1.0115852864887447,-0.13196627703479508,7.098925275796212
3.3855725714303326,1.1575440767329446,4.082682221389137,1.0825745392467068,0.05247271617117755,7.019904484423362
3.397148012197662,1.1580688038946563,4.093507966781605,1.1527735840909403,0.24298120907387136,6.935728815415446
3.4087287002366087,1.160498615985395,4.105035702622514,1.2221308722450948,0.4395930823846575,6.846323716356954
3.4203336863964626,1.1648945468092415,4.1172570113449645,1.2905941094086644,0.642359973168414,6.751562712747973
3.431982631864555,1.1713181465409257,4.1301629524390515,1.358109736536144,0.8513471042291205,6.651268546796025
3.443695813329964,1.1798316175832169,4.143744049804413,1.4246224220041044,1.066628749924353,6.545214520983465
3.4554941295057966,1.1904979050824605,4.157990274024454,1.490074567213939,1.2882834765211915,6.4331258630449275
3.4673991085566214,1.2033807398476724,4.172891019696593,1.5544058258443882,1.5163892864512751,6.314680946870518
3.479432915955098,1.2185446327121852,4.188435077955036,1.6175526353130933,1.7510187851123595,6.189512225970964
3.49161836228222,1.2360548205633088,4.204610604308168,1.679447757572803,1.9922344769219786,6.057206761621376
3.503978910487853,1.2559771653325287,4.221405081883896,1.7400198251890169,2.2400842848326894,5.917306255837054
3.5165386821411784,1.2783780081808556,4.238805280135786,1.7991928877473875,2.4945973751171815,5.769306529171884
3.529322462222987,1.3033239819320275,4.25679720901326,1.8568859530391064,2.7557803575620747,5.6126564142386615
3.5423557020423075,1.3308817855076482,4.275366068543651,1.9130125171814931,3.0236139209044177,5.446756067113064
3.555664519897384,1.3611179247166925,4.2944961937154655,1.9674800778526238,3.2980499550302715,5.27095472968706
3.569275699144551,1.3940984242669952,4.314170994493992,2.020189625149494,3.5790092057353102,5.084548005882705
3.5832166833872208,1.4298885163243482,4.334372890745487,2.0710351052083213,3.86637950528661,4.886774742744945
3.597515568550464,1.4685523113772143,4.355083241797571,2.1199028526357706,4.160014623112844,4.67681363316444
3.6122010916642364,1.5101524576083427,4.376282270323928,2.166670988967415,4.459733786072087,4.453779679756268
3.62730261624032,1.5547497954690637,4.397948980213602,2.2112087857649776,4.765321927144929,4.216720678727356
3.6428501141950105,1.602403014740513,4.420061068071252,2.253375992552251,5.076530735142576,3.9646138979729573
3.6588741443424158,1.6531683220919389,4.442594827996775,2.2930221315319805,5.393080595962233,3.69636313480186
3.6754058275633352,1.7070991280515613,4.465525049312094,2.329985762879999,5.714663537684703,3.4107963453335324
3.692476818843851,1.7642457634284083,4.488824906940894,2.3640937263333344,6.040947316743204,3.1066640395511627
3.710119276478135,1.8246552365958404,4.512465844204227,2.395160366728846,6.371580809553745,2.78263863313504
3.7283658288440935,1.888371044691378,4.536417447871516,2.4229867530601967,6.706200902110903,2.4373149395608666
3.7472495392910075,1.955433053712487,4.560647315402118,2.4473599024558053,7.044441097466691,2.0692119737308903
3.7668038698281325,2.025877464687154,4.5851209144266765,2.468052022193114,7.385942085629401,1.6767762221221343
3.787062644475004,2.099736885543448,4.609801434648608,2.4848197844143356,7.730364539607121,1.2583865151088596
3.8080600133304388,2.1770405309395193,4.634649632492751,2.4974036495654244,8.07740441174576,0.8123606166170178
3.8298304186398338,2.257814575056977,4.659623668988405,2.5055272557315944,8.426811001919864,0.33696362781805617
3.8524085643904034,2.3420826850761753,4.684678941545721,2.508896892009775,8.778408047994773,-0.16958170950630724
3.875829391241165,2.429866765556123,4.709767910465819,2.507201074914712,9.132118041943658,-0.7090827194706182
3.9001280588967266,2.5211879459755595,4.7348399212149666,2.5001102477200057,9.487989892081691,-1.2833623839551875
3.9253399383564824,2.6160678448963766,4.759841023692166,2.487276623880454,9.846229919167893,-1.8942426116312228
3.951500616805446,2.7145301440880556,4.78471378993097,2.468334197764142,10.207235971860923,-2.5435248117286515
3.9786459182463267,2.816602503806665,4.809397131908612,2.4428989496468554,10.571634146602506,-3.232967109293672
4.006811943284394,2.92231884527269,4.83382612140508,2.410569278553919,10.940317156479205,-3.964257052785017
4.036035131737121,3.031722016837482,4.857931814190619,2.3709267080260688,11.314482750782675,-4.738977882954405
4.066352351905496,3.1448668443453087,4.881641081270879,2.323536929196525,11.695669649087609,-5.558565205698594
4.097801020348949,3.261823540836185,4.904876450562845,2.267951277139539,12.085787082005721,-6.424249023687286
4.13041925575731,3.3826814116562423,4.92755596333424,2.203708786902666,12.487132018229559,-7.3369732150747
4.164246069873872,3.5075527318385378,4.949593051203267,2.1303390547519188,12.902385196299747,-8.297280242687327
4.199321597192258,3.6365765838015354,4.970896441750786,2.0473662523250455,13.334572716933398,-9.305142473084555
4.235687363030273,3.7699223109708693,4.991370104274036,1.9543148275942,13.786973532507929,-10.359712047671367
4.273386586139981,3.9077920462959486,5.010913252549979,1.8507177071174863,14.26294377133537,-11.458947492467182
4.312464506602941,4.050421484009302,5.029420429621154,1.7361282321928144,14.765615212388655,-12.599055494453328
4.352968721443034,4.198077636133188,5.046781711943082,1.6101376772482812,15.297405837263266,-13.77365849685648
4.394949497804366,4.351051694505821,5.062883088715564,1.4724010922797164,15.859253621308351,-14.972561034200165
4.438460014749424,4.509644230718904,5.077607099638361,1.3226754819377147,16.44944968243942,-16.17993938180952
4.483556457056613,4.674138727543299,5.090833854457738,1.1608760881196194,17.061905358961738,-17.371723720815545
4.530297844332046,4.844757781132916,5.102442615338934,0.9871588509114639,17.6836486187626,-18.511893974864776
4.578745422143375,5.021594267320542,5.112314203848049,0.8020399111628161,18.291333390833493,-19.547407926704263
4.628961364816581,5.204507601228877,5.1203346029596775,0.6065658318957735,18.846618256472308,-20.401608384622268
4.681006440828869,5.3929737837936,5.1264002612786355,0.4025497480495508,19.290542295662984,-20.966381453654122
4.734936178666805,5.5858792067502305,5.130425758759131,0.19288593351300956,19.53768841328551,-21.094337996184173
4.790794970734307,5.781256090883086,5.132354618094261,-0.01805744644883217,19.472226698536165,-20.594216760345745
4.848607531643138,5.975978357868447,5.132174043629773,-0.22399961405228963,18.94999484606429,-19.235717595942692
4.908367315221822,6.16547830632909,5.129934047489249,-0.41635679001171655,17.813065449974648,-16.773258873063455
4.970022098285113,6.343608960828837,5.125770479589132,-0.5840893787423511,15.9236514159061,-12.99860427224596
5.033458187893401,6.502845474987898,5.119929585801708,-0.7140754214648107,13.218524017379256,-7.823831876631565
5.09848664264328,6.63503071516169,5.112788831587061,-0.7923137402311264,9.769738653384282,-1.3734812359774327
5.164836949794897,6.732728101695533,5.104865694184749,-0.8060485525909008,5.81746585619938,5.964691016723621
5.232164230811852,6.790902760257526,5.09680520865884,-0.7464016424236646,1.736668620425179,13.587209457802466
5.300073258414428,6.808269446461778,5.0893411922346035,-0.61052954784564,-2.0675725431599656,20.82961312045396
5.368155952879046,6.787593721030178,5.083235896756147,-0.40223341664110035,-5.286506113514247,27.15697020516474
5.436031890089348,6.734728659895035,5.079213562589736,-0.13066371458945297,-7.784691080080715,32.28518234004977
5.5033791766882985,6.656881749094228,5.077906925443841,0.19218810881104476,-9.595492194579538,36.18327296086083
5.569947994179241,6.560926827148433,5.0798288065319515,0.5540208384196531,-10.860633379232178,38.990911390315745
5.6355572624507255,6.452320493356111,5.085369014916148,0.9439299523228106,-11.760754033936104,40.918806121796905
5.700080467384287,6.33471295301675,5.094808314439376,1.3531180135407797,-12.466779881831204,42.17671589472369
5.763427596914454,6.210045154198437,5.108339494574784,1.7748851724880166,-13.117159585067046,42.938323956956516
5.825528048456438,6.078873558347767,5.126088346299664,2.2042684120575817,-13.81313530517512,43.332870277098415
5.8863167840399155,5.940742205296016,5.14813103042024,2.6375971148285657,-14.622774962615761,43.450517750412125
5.945724206092875,5.794514455669859,5.174507001568526,3.072102292332687,-15.58761395389502,43.352414915483564
6.003669350649574,5.638638316130908,5.205228024491853,3.505626441487523,-16.728962672942842,43.080843473848155
6.0600557338108825,5.47134868940148,5.240284288906728,3.9364348762260044,-18.052928807430302,42.667687114786396
6.114769220704897,5.290819401327177,5.279648637668988,4.3631117473738685,-19.554135416062497,42.14084995663326
6.1676774147181685,5.095278047166552,5.323279755142726,4.784520246940201,-21.218427037623055,41.528774545412794
6.218630195189834,4.8830937767903215,5.371124957612128,5.199807992394329,-23.02487180156531,40.863315852402486
6.267461132957737,4.652845058774669,5.4231230375360715,5.608441150918354,-24.947260579262313,40.181167417264064
6.313989583545484,4.403372452982046,5.479207449045255,6.010252825090995,-26.955146582598832,39.52391261142316
6.358023308075305,4.133820987156057,5.539309977296165,6.405491951205226,-29.01427773756454,38.936609189702374
6.399361517946866,3.843678209780412,5.603364896808217,6.79485804310225,-31.086037427106756,38.46458268311237
6.43779830004467,3.5328178355093445,5.67131347723924,7.179503869933374,-33.12519566865138,38.147745807060375
6.473126478399763,3.2015658788228305,5.743108515938573,7.560981328003978,-35.07483962486116,38.011197689800575
6.505142137187991,2.850817482574219,5.818718329218613,7.941093304901983,-36.85676844501188,38.05001865220641
6.533650312013733,2.4822497981241,5.8981292622676325,8.321593491424048,-38.35496799638258,38.205114394959715
6.558472809994973,2.0987001181602745,5.981345197181873,8.703644635373646,-39.389438676909066,38.326185445571916
6.5794598111765765,1.7048057313911837,6.068381643535609,9.086906489829365,-39.679017846071204,38.1192192427612
6.596507868490488,1.3080155529304718,6.159250708433903,9.468098682256977,-38.798474823170025,37.084125711716894
6.609588024019793,0.9200308046987715,6.2539316952564725,9.838939939374146,-36.153903107231606,34.472710632148896
6.618788332066781,0.5584917736264554,6.352321094650214,10.183667045695636,-31.0376854261447,29.347421355052795
6.624373249803045,0.2481149193650084,6.45415776510717,10.477141259246164,-22.863763833692918,20.87639246557446
6.626854398996695,0.01947728102807922,6.558929177699632,10.685905183901909,-11.638807485993988,8.943818525076455
6.627049171806976,-0.09691079383186066,6.665788229538651,10.775343369152674,1.5430971640990392,-5.201000399920964
6.626080063868658,-0.08147982219087027,6.773541663230178,10.723333365153465,14.557229723922749,-19.015433617499475
6.625265265646749,0.06409247504835722,6.880774996881713,10.53317902897847,25.19278419433378,-29.88991330170942
6.625906190397233,0.31602031699169497,6.986106787171497,10.234279895961375,32.28169215853438,-36.58045550459386
6.629066393567149,0.6388372385770389,7.088449586131111,9.868475340915436,35.961515387787365,-39.480137480347956
6.63545476595292,0.9984523924549126,7.187134339540266,9.473673966111956,37.09145820823892,-39.81186859965203
6.645439289877469,1.3693669745373018,7.281871079201385,9.075555280115436,36.600709832203975,-38.78899653733229
6.659132959622842,1.7353740728593416,7.3726266320025395,8.687665314742114,35.18677349722427,-37.2614039907668
6.676486700351435,2.0872418078315844,7.45950328514996,8.315051274834445,33.28768929803998,-35.714494580786834
6.697359118429751,2.420118700811984,7.542653797898304,7.957906329026577,31.15218302267206,-34.3806953928997
6.721560305437871,2.7316405310387046,7.622232861188571,7.61409937509758,28.91347200456261,-33.343868812089056
6.748876710748258,3.0207752510843306,7.698373854939546,7.28066068697669,26.6411387253962,-32.60900069439631
6.779084463259101,3.2871866383382926,7.771180461809313,6.9545706800327265,24.372353587297802,-32.142716793483686
6.811956329642484,3.5309101742112707,7.84072616860964,6.63314351209789,22.129159579362867,-31.89529933006922
6.847265431384597,3.7522017700048993,7.907057603730619,6.314190518797198,19.927431797033126,-31.812255282789128
6.884787449084645,3.9514760879752306,7.970199508918591,5.996067965969306,17.781136375425763,-31.84031149944929
6.924302209964398,4.129287451729488,8.030160188578284,5.677664850974813,15.704021592536904,-31.930514582197812
6.965595084481692,4.286327667654858,8.086936837088032,5.358359705152835,13.709955257395245,-32.03982545789901
7.008458361158241,4.42342722022881,8.14052043413956,5.037961450573845,11.8125968111456,-32.13189944451102
7.052692633360529,4.541553188340266,8.190900048645299,4.716642456128735,10.024797949954486,-32.177382016395654
7.098108165243931,4.641801167839811,8.238066473206587,4.394868635964778,8.35795821861825,-32.15387428361655
7.144526176922329,4.725380750025993,8.282015159566235,4.073329893128613,6.821462977209659,-32.04564318475212
7.191779984422589,4.79359537979809,8.322748458497522,3.7528734612810917,5.422269034212055,-31.84312152091651
7.23971593822057,4.84781807014021,8.360277193110333,3.4344422460719266,4.164662106455884,-31.542235950322485
7.2881941189219726,4.889464691204769,8.394621615571053,3.1190198865687018,3.050182251199925,-31.143602614686266
7.33708876583402,4.919966513716768,8.42581181443674,2.8075838604218393,2.0776946516338346,-30.651632630469948
7.386288430971187,4.940743460233107,8.453887653040958,2.50106753411714,1.243571537848028,-30.073589652235814
7.435695865573519,4.953179175611587,8.47889832838213,2.2003316375947817,0.5419451766658434,-29.418637889967684
7.485227657329634,4.958598627378246,8.500901644758077,1.9061452586951049,-0.03500945872274563,-28.696911560986123
7.5348136436034165,4.958248532791019,8.519963097345029,1.6191761430852436,-0.49680168937569025,-27.918626827156622
7.584396128931327,4.953280515897262,8.53615485877588,1.3399898748136774,-0.8543967960507414,-27.09324628830085
7.633928934090299,4.944736547936754,8.549554757524017,1.0690574119306688,-1.120061438319172,-26.228695781202585
7.683376299569667,4.9335359335535625,8.560245331643324,0.8067704541186429,-1.3073047335218129,-25.33062549557528
7.7327116589052025,4.920462886218345,8.568313036184511,0.5534641991628901,-1.4309279688767509,-24.401704589946906
