th1 (rad),w1 (rad/s),th2 (rad),w2 (rad/s),a1 (rad/s^2),a2 (rad/s^2)
1.228976718447169,-2.979786389611635,4.524706779282324,-0.7860307671665971,-7.52281356757527,3.557472634956958
1.1991788545510527,-3.0550145252873873,4.516846471610658,-0.7504560408170275,-7.069681245894278,4.287709642296675
1.1686287092981789,-3.12571133774633,4.509341911202488,-0.7075789443940608,-6.574576130020396,5.086598576205548
1.1373715959207156,-3.191457099046534,4.502266121758547,-0.6567129586320053,-6.0408547403785136,5.94914591006965
1.1054570249302502,-3.251865646450319,4.495698992172227,-0.5972214995313088,-5.4734028817003395,6.868113341529969
1.072938368465747,-3.3065996752673223,4.489726777176914,-0.5285403661160091,-4.878705303741952,7.833983910705973
1.0398723717130738,-3.355386728304742,4.484441373515754,-0.45020052700894936,-4.264845339628147,8.83505076023967
1.0063185044300265,-3.3980351817010237,4.479939368245664,-0.36185001940655265,-3.641418780593385,9.857650011078517
0.9723381526130163,-3.4344493695069573,4.476320868051599,-0.2632735192957675,-3.0193506668374526,10.886550569124413
0.9379936589179467,-3.464642876175332,4.4736881328586415,-0.15440801360452333,-2.4106109782772673,11.905500775951227
0.9033472301561934,-3.4887489859581047,4.472144052722596,-0.035353005845011054,-1.827835159947057,12.897915404935356
0.8684597402966124,-3.507027337557575,4.471790522664146,0.09362614820434251,-1.283867133159455,13.847668316662306
0.8333894669210367,-3.51986600888917,4.4727267841461895,0.23210283137096557,-0.7912543735818888,14.739938808871141
0.7981908068321449,-3.5277785526249885,4.475047812459899,0.379502219459677,-0.3617347306169866,15.562046601008639
0.762913021305895,-3.5313958999311583,4.478842834654496,0.5351226854697634,-0.005760756408764759,16.30420467781734
0.7275990623065834,-3.531453507495246,4.484194061509194,0.6981647322479367,0.2678923271251804,16.96012314959386
0.692284527231631,-3.528774584223994,4.4911757088316735,0.8677659637438753,0.4523950295384916,17.5274114310789
0.6569967813893911,-3.524250633928609,4.499853368469112,1.0430400780546643,0.5429804261765807,18.00774883366887
0.621754275050105,-3.518820829666843,4.510283769249659,1.223117566391353,0.5368975612317737,18.406821581313107
0.5865660667534366,-3.513451854054525,4.522514944913572,1.407185782204484,0.4332067784153179,18.734052578121336
0.5514315482128913,-3.509119786270372,4.536586802735617,1.5945263079856973,0.23243759594762958,19.002174221045248
0.5163403503501875,-3.506795410310896,4.552532065815474,1.7845480501961497,-0.06385957437875882,19.226710556776112
0.48127239624707857,-3.5074340060546834,4.570377546317435,1.9768151557639109,-0.4536319692580213,19.42544147851034
0.44619805618653174,-3.5119703257472636,4.590145697875075,2.1710695705490144,-0.9348790593596448,19.617918956550096
0.4110783529290591,-3.52131911634086,4.611856393580565,2.3672487601145153,-1.5062159175988932,19.825095764246015
0.3758651617656505,-3.536381275516849,4.63552888118171,2.5654997177569756,-2.167428604310865,20.069114015344812
0.340501349010482,-3.5580555615599576,4.66118387835928,2.7661908579104235,-2.920016851209774,20.37328732495262
0.30492079339488243,-3.5872557300720556,4.688845786938384,2.9699237311599496,-3.7677310931718706,20.762299055548414
0.26904823609416184,-3.624933041003774,4.718545024249984,3.1775467217154336,-4.717120834318562,21.2626311214055
0.2327989056841241,-3.6721042493469596,4.750320491467138,3.390173032929489,-5.7781179472201565,21.903232657693213
0.1960778631906545,-3.729885428819161,4.784222221796433,3.609205359506421,-6.964679625229716,22.716432545902574
0.1587790089024629,-3.799532225071458,4.820314275391498,3.8363696849654465,-8.29550698686262,23.73908738875809
0.12078368665174832,-3.882487294940084,4.858677972241153,4.073760558853027,-9.794827208048122,25.013922531681768
0.08195881370234748,-3.9804355670205656,4.899415577829683,4.3238997841698446,-11.493158591686566,26.590937951202896
0.04215445803214182,-4.095367152937431,4.942654575671382,4.589809163681873,-13.427823945816792,28.528549794404302
0.0012007865027675105,-4.229645392395599,4.9885526673082,4.8750946616259165,-15.642641284012846,30.893687487482147
-0.04109566742118848,-4.386071805235727,5.037303613924459,5.184031536500738,-18.185496961490706,33.75908038404734
-0.08495638547354575,-4.567926774850634,5.089143929289467,5.521622340341212,-21.1009664446301,37.193849834883004
-0.1306356532220521,-4.778936439296936,5.144360152692879,5.893560838690042,-24.41193114346394,41.23906825349287
-0.17842501761502144,-5.023055750731575,5.203295761079779,6.30595152122497,-28.07767657693156,45.85094970851973
-0.2286555751223372,-5.303832516500891,5.266355276292029,6.764461018310167,-31.904116819585116,50.77776972267441
-0.2816939002873461,-5.622873684696742,5.333999886475131,7.272238715536911,-35.36508250526495,55.31305210350814
-0.33792263713431353,-5.9765245097493915,5.4067222736305,7.8253692365719925,-37.29145544981024,57.863871923056514
-0.39768788223180745,-6.349439064247494,5.484975965996219,8.404007955802557,-35.488928943589286,55.41701765836962
-0.4611822728742824,-6.704328353683387,5.569016045554245,8.958178132386253,-26.79226003563683,43.608692975143775
-0.5282255564111162,-6.9722509540397555,5.658597826878108,9.394265062137691,-8.889793271881562,19.25635285204371
-0.5979480659515138,-7.061148886758571,5.752540477499484,9.58682859065813,15.541625235539943,-13.899955436065213
-0.6685595548190996,-6.905732634403171,5.8484087634060655,9.447829036297478,37.54414381922756,-43.44262644197706
-0.7376168811631313,-6.530291196210896,5.942887053769041,9.013402771877708,49.41808382080584,-58.79882803163535
-0.8029197931252402,-6.036110358002837,6.033021081487818,8.425414491561353,51.41397005179426,-60.4607685360733
-0.8632808967052685,-5.521970657484895,6.117275226403431,7.82080680620062,48.10574908724012,-54.83839309575085
-0.9185006032801175,-5.040913166612493,6.195483294465437,7.2724228752431115,43.16631176976939,-47.013191448301285
-0.9689097349462424,-4.6092500489148,6.2682075232178684,6.802290960760098,38.3333360738497,-39.3579235343739
-1.0150022354353905,-4.225916688176302,6.336230432825469,6.408711725416359,34.18290997568675,-32.63876140263959
-1.0572614023171536,-3.884087588419435,6.400317550079633,6.082324111389964,30.80250328252086,-26.954491265365338
-1.0961022782013479,-3.5760625555942265,6.461140791193532,5.81277919873631,28.115795786660716,-22.185230058920112
-1.13186290375729,-3.2949045977276192,6.519268583180896,5.590926898147109,26.00966095109541,-18.16593942526271
-1.1648119497345661,-3.034807988216665,6.575177852162367,5.409267503894482,24.377070257225636,-14.744096521957912
-1.1951600296167328,-2.791037285644409,6.629270527201312,5.261826538674903,23.12829421551718,-11.794188558528866
-1.2230704024731769,-2.559754343489237,6.681888792588061,5.143884653089614,22.191213609984775,-9.217659968307858
-1.2486679459080692,-2.337842207389389,6.733327639118957,5.051708053406536,21.5084712937252,-6.938831968956773
-1.2720463679819631,-2.122757494452137,6.783844719653023,4.982319733716968,21.034161976331585,-4.900401970275268
-1.2932739429264846,-1.9124158746888211,6.833667916990192,4.933315714014215,20.7308943496346,-3.059593898553907
-1.3123981016733728,-1.7051069311924751,6.883001074130335,4.902719775028676,20.567400721855456,-1.3851420863830255
-1.3294491709852976,-1.4994329239739206,6.932028271880622,4.888868354164846,20.51665849850207,0.1449906229590282
-1.3444435002250368,-1.2942663389889,6.980916955422271,4.890318260394436,20.554439345641786,1.545326701865505
-1.3573861636149258,-1.0887219455324821,7.029820138026215,4.9057715274130915,20.658208381158865,2.824182403207535
-1.3682733830702507,-0.8821398617208935,7.078877853300346,4.9340133514451665,20.806317580294337,3.9847119010621976
-1.3770947816874597,-0.6740766859179501,7.128217986814798,4.973860470455788,20.977460405273916,5.025805149721827
-1.3838355485466391,-0.46430208186521094,7.177956591519356,5.024118521953007,21.15037328110368,5.942936904434587
-1.3884785693652912,-0.25279834905417414,7.228197776738886,5.083547890997353,21.303781739321327,6.729045010796889
-1.391006552855833,-0.039760531660960885,7.2790332556488595,5.150838341105321,21.416593418665975,7.375495279125176
-1.3914041581724428,0.17440540252569886,7.330541639059913,5.2245932938965725,21.468335463084532,7.873165221212429
-1.3896601041471859,0.3890887571565442,7.382787571998878,5.303324946108697,21.43981950515,8.213647781031561
-1.3857692165756204,0.6034869522080442,7.435820821459965,5.385461423919013,21.313993857931333,8.390538962262877
-1.37973434705354,0.8166268907873575,7.489675435699155,5.469366813541642,21.076912254270574,8.400732709218955
-1.3715680781456663,1.0273960133300633,7.544369103834572,5.5533741406338315,20.71871656563245,8.245608493463656
-1.3612941180123657,1.2345831789863877,7.59990284524091,5.635830225568468,20.234505025461356,7.931970521289244
-1.3489482862225017,1.4369282292410013,7.656261147496595,5.715149930781361,19.62494655778352,7.472592079289506
-1.3345790039300918,1.6331776948188366,7.713412646804409,5.789875851574256,18.896513853611808,6.88624208083492
-1.3182472269819034,1.8221428333549547,7.7713114053201515,5.858738272382605,18.06124673353159,6.197125583145826
-1.3000257986483539,2.0027553006902705,7.829898788043978,5.920709528214063,17.13602016142445,5.433749732453723
-1.2799982456414511,2.174115502304515,7.889105883326119,5.975047025538601,16.141367393271143,4.627316339204725
-1.258257090618406,2.3355291762372263,7.948856353581505,6.021320188930648,15.099981748023902,3.8098215460774134
-1.2349017988560338,2.4865289937174655,8.009069555470811,6.0594184043914225,14.035072852027568,3.0120917582968234
-1.2100365089188592,2.6268797222377414,8.069663739514725,6.0895393219743905,12.968772074017968,2.2619903977750284
-1.1837677116964818,2.756567442977921,8.130559132734469,6.112159225952141,11.92076349273925,1.5829912757162017
-1.1562020372667026,2.8757750779053133,8.19168072499399,6.127989138709303,10.907267612087217,0.9932427228241586
-1.1274442864876495,2.9848477540261853,8.252960616381083,6.137921565937544,9.940439188101875,0.5051611648575712
-1.0975958089473876,3.084252145907204,8.314339832040458,6.1429731775861205,9.02817439767463,0.12551377979338446
-1.0667532874883157,3.1745338898839504,8.37576956381632,6.144228315384054,8.174269789507743,-0.1441076346979951
-1.035007948589476,3.256276587779028,8.437211846970161,6.142787239037074,7.378843546223119,-0.3065486272933333
-1.0024451827116858,3.330065023241259,8.498639719360533,6.139721752764141,6.638919424475369,-0.3682191813617611
-0.9691445324792732,3.3964542174860126,8.560036936888174,6.136039560950523,5.949081172054866,-0.3381974960098299
-0.9351799903044131,3.4559450292065614,8.62139733249768,6.132657585990424,5.302123667664698,-0.2273934002428512
-0.9006205400123475,3.5089662658832084,8.682723908357584,6.130383651987995,4.68964988175531,-0.04782305789103547
-0.8655308773535154,3.5558627647007617,8.744027744877464,6.129905421409085,4.1025848970040695,0.18798145729683396
-0.8299722497065078,3.5968886136708025,8.805326799091555,6.131785235982053,3.5315965666888416,0.46742591577153364
-0.7940033635697998,3.632204579337691,8.866644651451375,6.136459495139769,2.9674256911923607,0.7781838955474785
-0.7576813177764229,3.6618788362496146,8.928009246402773,6.144241334095243,2.401136936948791,1.108424111187064
-0.7210625294139268,3.6858902056191027,8.989451659743725,6.155325575207113,1.8243059156008508,1.4469595423732058
-0.6842036273577358,3.7041332647751113,9.051004915495797,6.169795170630845,1.2291589442545547,1.783342614851658
-0.6471622947099847,3.716424854217657,9.112702867202106,6.187628596779362,0.6086810295358455,2.1079283837599734
-0.6099980461678081,3.7225116645130156,9.1745791531699,6.208707880616962,-0.04329463273499365,2.4119242402221666
-0.5727729295226779,3.722078718185666,9.23666623197607,6.232827123019184,-0.7320053040125039,2.6874407511017218
-0.5355521423408213,3.7147586651455407,9.298994503206261,6.259701530530201,-1.4616784548414323,2.9275542037051814
-0.49840455568936587,3.7001418805971262,9.361591518511563,6.288977072567253,-2.2354490170324954,3.1263874145576254
-0.4614031368833946,3.6777873904268015,9.424481289237235,6.320240946712829,-3.055273987327298,3.2792114139857276
-0.4246252629791266,3.6472346505535285,9.487683698704364,6.353033060852686,-3.921847618152125,3.382566742753518
-0.38815291647359135,3.608016174372007,9.551214029312892,6.386858728280221,-4.834523628190606,3.434399331063342
-0.35207275472987126,3.5596709380901013,9.615082616595695,6.421202721590855,-5.791253701942831,3.434202388980714
-0.3164760453489702,3.501758401070673,9.679294643811604,6.455544745480662,-6.788553778288568,3.383152638587076
-0.28145846133826347,3.433872863287787,9.74385009126641,6.489376271866533,-7.821510947141381,3.2842268822271916
-0.2471197327053856,3.355657753816373,9.808743853985074,6.5222185406888045,-8.88384385017617,3.14228372100923
-0.21356315516722185,3.2668193153146117,9.873966039391963,6.553641377898897,-9.968028025007307,2.964095617653861
-0.18089496201407573,3.1671390350645385,9.939502453170952,6.583282334075435,-11.065494472297507,2.758318765995671
-0.14922357166343034,3.0564840903415633,10.005335276511707,6.610865521735392,-12.166904900735403,2.535392536371421
-0.11865873076001471,2.9348150413342093,10.07144393172906,6.636219447099107,-13.262500931955659,2.3073664918706935
-0.08931058034667261,2.8021900320146527,10.13780612620005,6.659293112017814,-14.342517646441864,2.0876606688503827
-0.061288680026526085,2.658764855550234,10.204399057320229,6.680169718706318,-15.397645107790417,1.8907732219353464
-0.03470103147102374,2.50478840447233,10.271200754507293,6.699077450925671,-16.41951595579634,1.7319576544769437
-0.00965314742630044,2.3405932449143663,10.33819152901655,6.716397027470441,-17.401193828840952,1.6268986294136045
0.013752785022843224,2.166581306625957,10.405355499291254,6.732666013764577,-18.3376370632913,1.5914198672639364
0.03541859808910279,1.983204935993044,10.4726821594289,6.748580212437217,-19.22611522323861,1.6412593280012906
0.05525064744903323,1.7909437837606579,10.540167961553271,6.764992805717229,-20.0665624329885,1.7919456912112106
0.07316008528663981,1.5902781594307729,10.607817889610443,6.782912262629341,-20.861860605636796,2.058806601682814
0.08906286688094754,1.381659553374405,10.675647012236736,6.8035003286461695,-21.61805647399524,2.4571342236947067
0.10287946241469159,1.1654789886344525,10.743682015523197,6.828071670883117,-22.34452760999681,3.002528619361804
0.11453425230103612,0.9420337125344844,10.811962732232027,6.858096957076735,-23.054123113832453,3.7114356018940873
0.12395458942638096,0.7114924813961598,10.880543701802795,6.895211313095676,-23.763313186329427,4.6018939101502125
0.13106951424034255,0.47385934953286557,10.949495814933751,6.941230252197179,-24.492387155344787,5.694506854208236
0.1358081077356712,0.22893547797941768,11.018908117455723,6.998175320739261,-25.265739977038088,7.013654437665414
0.13809746251546537,-0.02372192179096319,11.088889870663115,7.0683118651159145,-26.112279352440332,8.588958765054594
0.13786024329755572,-0.2848447153153665,11.159572989314274,7.15420145276646,-27.065961776491488,10.45699755661804
0.13501179614440206,-0.5555043330802814,11.23111500384194,7.258771428332641,-28.166409034014787,12.663204207472623
0.12945675281359925,-0.8371684234204293,11.303702718125265,7.3854034704073666,-29.459429325403818,15.26374672934589
0.12108506857939495,-1.1317627166744675,11.377556752829339,7.538040937700825,-30.99698754595602,18.326830586605613
0.10976744141265028,-1.4417325921340276,11.452937162206346,7.721309243566881,-32.835560399274364,21.932079600483007
0.09535011549131,-1.7700881961267712,11.530150254642015,7.940630039571711,-35.03049542897894,26.164891964745742
0.0776492335300423,-2.1203931504165605,11.609556555037733,8.202278959219168,-37.62117767185803,31.098842469446545
0.05644530202587669,-2.4966049271351407,11.691579344629924,8.513267383913634,-40.595939323618985,36.75111745541679
0.03147925275452529,-2.9025643203713307,11.77671201846906,8.880778558467801,-43.81414835534463,42.979929719002726
0.002453609550811982,-3.3407058039247772,11.865519804053738,9.31057785565783,-46.84374625982402,49.26570614007199
-0.030953448488435793,-3.8091432665230176,11.958625582610317,9.80323491705855,-48.65551388454024,54.292447124622754
-0.06904488115366597,-4.29569840536842,12.056657931780903,10.346159388304777,-47.168452028910934,55.31500757025873
-0.11200186520735017,-4.76738292565753,12.16011952566395,10.899309464007365,-38.99680194138965,47.7849645134589
-0.15967569446392546,-5.1573509450714266,12.269112620304023,11.377159109141953,-20.703438096403147,27.0261331549359
-0.21124920391463972,-5.364385326035458,12.382884211395442,11.647420440691311,6.881443763980616,-5.889515310913423
-0.2648930571749943,-5.295570888395652,12.499358415802355,11.588525287582177,34.94401245336041,-39.11890841832882
-0.3178487660589508,-4.9461307638620475,12.615243668678177,11.197336203398889,52.91415960993636,-58.64636208706639
-0.3673100736975713,-4.416989167762684,12.727217030712167,10.610872582528225,58.71439296762408,-62.11513539800072
-0.41147996537519815,-3.8298452380864427,12.833325756537448,9.989721228548218,57.14193223770194,-56.278475292717154
-0.4497784177560626,-3.2584259157094233,12.93322296882293,9.426936475621046,52.89705243875729,-47.47102149603826
-0.4823626769131568,-2.72945539132185,13.02749233357914,8.952226260660664,48.37048376512252,-38.78411280218756
-0.5096572308263754,-2.245750553670625,13.117014596185747,8.564385132638789,44.408442456101675,-31.226468070303287
-0.5321147363630816,-1.8016661291096083,13.202658447512135,8.252120451935756,41.18453008989361,-24.938794707905856
-0.5501313976541777,-1.3898208282106723,13.285179652031493,8.002732504856697,38.63834453258115,-19.784355470391525
-0.5640296059362845,-1.0034373828848608,13.36520697708006,7.804888950152781,36.64852233586416,-15.572886450682237
-0.5740639797651331,-0.6369521595262193,13.443255866581588,7.649160085645959,35.09212303036851,-12.132181824627661
-0.5804335013603953,-0.2860309292225342,13.519747467438048,7.527838267399682,33.86138365372423,-9.324544612821525
-0.5832938106526206,0.052582907314708105,13.595025850112044,7.434592821271467,32.86586545884213,-7.045362463706135
-0.5827679815794735,0.3812415619031294,13.66937177832476,7.364139196634405,32.03031245488616,-5.217011814018297
-0.5789555659604422,0.701544686451991,13.743013170291103,7.311969078494222,31.2918218951156,-3.7824133331666063
-0.5719401190959222,1.014462905403147,13.816132861076046,7.274144945162556,30.597461199314264,-2.6994342840470753
-0.5617954900418908,1.3204375173962897,13.88887431052767,7.247150602322085,29.902585925242768,-1.9363027083513575
-0.5485911148679279,1.6194633766487174,13.961345816550892,7.227787575238572,29.1698130381432,-1.4679123892277537
-0.5323964811014407,1.9111615070301493,14.033623692303278,7.213108451346294,28.36850965338364,-1.2728641078909384
-0.5132848660311392,2.1948466035639855,14.105754776816742,7.200379810267385,27.47463375196258,-1.331129530165514
-0.49133639999549933,2.4695929410836115,14.177758574919416,7.18706851496573,26.470763393891023,-1.6222747654531706
-0.46664047058466324,2.7343005750225218,14.249629260069073,7.170845767311198,25.34616141210484,-2.1242181217763467
-0.439297464834438,2.98776218914357,14.321337717742185,7.149603586093434,24.096741949693943,-2.8125131883368826
-0.40941984294300227,3.2287296086405095,14.392833753603119,7.121478454210066,22.724834755345825,-3.6601433638158984
-0.37713254685659714,3.455977956193968,14.464048538145219,7.0848770205719065,21.2386828584764,-4.637790947680648
-0.34257276729465747,3.6683647847787317,14.534897308350939,7.0384991110951,19.651656183559293,-5.714510003470168
-0.30588911944687014,3.864881346614325,14.605282299461889,6.981354011060398,17.981211975628614,-6.858696758411227
