th1 (rad),w1 (rad/s),th2 (rad),w2 (rad/s)
3.2210067332857384,1.02942228087242,0.29070300231207724,1.106271032926307
3.2313009560944628,1.017631389818611,0.30176571264134033,1.0688754538427465
3.241477269992649,1.006917569059391,0.3124544671797678,1.0314549659553414
3.2515464456832426,0.997290563049505,0.32276901683932124,0.9940589318717618
3.2615193513137375,0.9887610938928554,0.33270960615803885,0.9567375882418577
3.2714069622526663,0.9813408973677434,0.3422769820404574,0.9195420325807518
3.2812203712263437,0.9750427687084001,0.3514724023662649,0.8825242200143457
3.2909707989134276,0.9698806170985311,0.3602976445664084,0.8457369686505067
3.300669605084413,0.9658695276709628,0.36875501425291346,0.8092339720416963
3.3103283003611224,0.9630258296468662,0.3768473539733304,0.7730698169659769
3.319958558657591,0.9613671690855787,0.3845780521429902,0.7373000045091358
3.3295722303484467,0.9609125845488584,0.3919510521880815,0.7019809721770051
3.339181356193935,0.961682583808769,0.3989708619098516,0.667170114499938
3.3487981820320227,0.9636992195438582,0.40564256305485097,0.6329257993071632
3.3584351742274614,0.966986161771843,0.4119718210479226,0.5993073765441822
3.3681050358451796,0.9715687645572271,0.41796489481336446,0.5663751761790821
3.377820723490752,0.9774741243084865,0.4236286465751553,0.5341904913921515
3.387595464733837,0.9847311267419995,0.4289705514890768,0.5028155428673808
3.397442776001257,0.9933704793402415,0.4339987069177506,0.47231341960577206
3.4073764807946594,1.0034247258728568,0.43872184111380835,0.4427479912623716
3.417410728053388,1.014928239285628,0.44314932102643206,0.41418378657745664
3.4275600104462445,1.02791718900063,0.4472911588922066,0.3866858320360874
3.437839182336251,1.0424294784196846,0.4511580172125675,0.3603194444613214
3.448263477120448,1.0585046481937974,0.4547612116571807,0.33514997084056997
3.458848523602386,1.0761837406273622,0.4581127113655864,0.3112424683218463
3.4696103610086597,1.0955091204441942,0.4612251360488049,0.2886613170215709
3.4805654522131015,1.1165242470723928,0.4641117492190206,0.2674697580875507
3.4917306946838256,1.1392733936289174,0.4667864467998961,0.24772934939406854
3.503123428620115,1.1638013079274547,0.4692637402938368,0.22949933134985306
3.5147614416993895,1.1901528111216113,0.4715587336073353,0.21283589561759966
3.5266629698106056,1.2183723300580291,0.4736870925635113,0.19779135012282092
3.5388466931111857,1.248503360079438,0.47566500606473955,0.18441317461961787
3.55133172671198,1.2805878559137296,0.47750913781093574,0.17274296233157097
3.5641376052711173,1.3146655494370931,0.47923656743425147,0.16281524484572488
3.5772842607654884,1.3507731945278532,0.48086471988270874,0.15465619955037677
3.5907919927107668,1.388943740947004,0.48241128187821253,0.14828224150891395
3.604681430120237,1.4292054411968116,0.48389410429330165,0.14369850477638357
3.618973484532205,1.471580896614443,0.4853310893410655,0.14089722180115932
3.6336892934983496,1.5160860515346233,0.4867400615590771,0.1398560136995633
3.648850154013696,1.5627291471706066,0.48813862169607275,0.14053610881167897
3.664477445485402,1.6115096498680326,0.48954398278418954,0.14288051198035154
3.6805925419840824,1.6624171715183662,0.49097278790399307,0.1468121523523321
3.697216713699266,1.7154304031010745,0.4924409094275164,0.15223204306096932
3.7143710177302767,1.7705160854689415,0.4939632298581261,0.15901749176511107
3.732076178584966,1.827628044504084,0.4955534047757772,0.16702040651331002
3.750352459030007,1.8867063205551704,0.49722360884091027,0.17606574657656388
3.7692195222355585,1.9476764245219633,0.4989842663066759,0.18595017252720777
3.788696286480778,2.010448754989206,0.500843768031948,0.19644095370049236
3.80880077403067,2.0749182123423364,0.5028081775689529,0.20727519400963862
3.8295499561540933,2.1409640467432265,0.5048809295090493,0.21815943863304166
3.8509595966215255,2.2084499771287613,0.5070625238953796,0.22876972407807272
3.873044096392813,2.2772246179383844,0.5093502211361604,0.23875213225588726
3.8958163425721968,2.3471222489852557,0.5117377424587193,0.24772390515848328
3.9192875650620493,2.417963961641309,0.5142149815103041,0.2552751701668445
3.9434672046784622,2.4895592111565685,0.5167677332119726,0.26097131656091943
3.968362796790028,2.5617078002843443,0.5193774463775818,0.26435605104850035
3.9939798747928714,2.634202313205242,0.5220210068880667,0.26495514367799083
4.020321897924924,2.7068310107812072,0.5246705583248467,0.2622808549838062
4.047390208032736,2.7793811881839026,0.5272933668746848,0.2558370103674645
4.075184019914575,2.8516429837511286,0.5298517369783594,0.24512465846596151
4.103700449752086,2.9234136134881075,0.532302983563019,0.22964821682443834
4.132934585886967,2.9945019891274804,0.5345994657312634,0.208921971215633
4.162879605778242,3.064733659588785,0.5366886854434197,0.18247675561311044
4.19352694237413,3.133955996929607,0.5385134529995509,0.1498665999262701
4.224866502343426,3.2020435298042016,0.5400121189988136,0.11067509457731699
4.256886937641468,3.268903311844823,0.5411188699445868,0.06452118783628483
4.289575970759916,3.334480201448143,0.5417640818229497,0.011064106874961253
4.322920772774397,3.398761925612214,0.5418747228916992,-0.04999291989302296
4.356908392030519,3.4617838061590196,0.541374793692769,-0.11890046056442574
4.391526230092109,3.523633044029901,0.5401857890871247,-0.19586250161008528
4.426762560532408,3.584452487880937,0.5382271640710238,-0.2810381639533025
4.462607085411218,3.644443857569554,0.5354167824314907,-0.3745457347408075
4.499051523986913,3.703870450895671,0.5316713250840827,-0.4764691771978692
4.53609022849587,3.7630594316838697,0.526906633312104,-0.5868672180854384
4.573720822812708,3.822403876707679,0.5210379611312496,-0.7057850544174697
4.611944861579786,3.882364845471856,0.5139801105870748,-0.8332686785855135
4.650768510034504,3.9434738282302453,0.5056474238012197,-0.9693818049540098
4.690203248316807,4.006336022700287,0.4959536057516796,-1.1142254023342468
4.730266608543809,4.0716349895451085,0.48481135172833717,-1.2679599057748112
4.7709829584392605,4.140139344252445,0.47213175267058904,-1.4308303069818264
4.812384351881785,4.212712265025502,0.45782344960077076,-1.603194513474729
4.85451147453204,4.290324742267344,0.44179150446602344,-1.7855556294871158
4.897414721954713,4.374073677100804,0.42393594817115227,-1.9785991528488884
4.941155458725722,4.465206166266002,0.4041499566426634,-2.1832365052479794
4.985807520388382,4.5651515959284605,0.3823175915901836,-2.4006568137090722
5.031459036347666,4.675563498004054,0.35831102345309285,-2.6323894107543326
5.078214671327706,4.798373446856781,0.3319871293455495,-2.880380031546752
5.126198405796274,4.935859435617543,0.303183329030082,-3.1470839265958666
5.17555700015245,5.09073077540615,0.2717124897641233,-3.4355785129421887
5.226464307906512,5.2662296699107936,0.23735670463470143,-3.749695428234406
5.2791266046056196,5.466244064348241,0.19985975035235737,-4.094163877580197
5.333789045249102,5.6954122060515555,0.1589181115765554,-4.474737021621511
5.390743167309617,5.959165417743635,0.11417074136034028,-4.898225169731317
5.450334821487053,6.263577121318032,0.06518848966302711,-5.372248983032691
5.512970592700234,6.614710649328582,0.011465999832700198,-5.904279099912983
5.57911769919352,7.016786520795337,-0.04757679116642963,-6.4990062919004075
5.649285564401474,7.467793146865906,-0.11256685408543371,-7.152108527658744
5.723963495870133,7.95026958095886,-0.18408793936202117,-7.837227267262656
5.803466191679721,8.415621220863565,-0.26246021203464776,-8.483866626301516
5.887622403888357,8.76904969969021,-0.3472988782976629,-8.95622084633542
5.975312900885259,8.88673866551711,-0.4368610867610171,-9.077516373848477
6.06418028754043,8.701345939175889,-0.5276362504995018,-8.75061481613206
6.151193746932189,8.283737720464384,-0.6151423986608224,-8.073413055607547
6.234031124136833,7.782520931258731,-0.6958765292168979,-7.254223933790663
6.311856333449421,7.306494851483192,-0.7684187685548045,-6.446536629360941
6.384921281964252,6.898118598591827,-0.832884134848414,-5.711181326724718
6.45390246795017,6.562508941348951,-0.8899959481156612,-5.056526458305064
6.51952755736366,6.2916648594698685,-0.9405612126987118,-4.472290866069055
6.5824442059583586,6.0750825665987085,-0.9852841213594024,-3.9444594366556984
6.643195031624345,5.903195093399419,-1.0247287157259592,-3.460200808030735
6.702226982558339,5.768106634467651,-1.0593307238062666,-3.009000318297427
6.759908048903016,5.66347767982433,-1.0894207269892409,-2.5825945918132662
6.8165428257012595,5.584210698159614,-1.1152466729073736,-2.174616284472281
6.872384932682856,5.52613913255841,-1.1369928357520964,-1.7802336202813238
6.92764632400844,5.48577103819004,-1.1547951719549097,-1.3958564621174414
6.98250403439034,5.460091493928651,-1.168753736576084,-1.0189131058923384
7.037104949329627,5.446415707494953,-1.1789428676350076,-0.6476835777849632
7.0915691064045765,5.442283488112107,-1.1854197034128573,-0.2811726354696773
7.145991941285698,5.445387345194506,-1.188231429767554,0.08099227138991755
7.200445814737643,5.4535282431287255,-1.187421507053655,0.43864969915437674
7.254981097168931,5.464594250935423,-1.1830350100621112,0.7911879771323448
7.3096270396782845,5.4765578798041314,-1.1751231302907879,1.137629373761737
7.364392618476326,5.487487948421104,-1.1637468365531705,1.4767170907423346
7.419267497960536,5.495571594501585,-1.1489796656457472,1.807004889173216
7.474223213905552,5.499141823305932,-1.130909616754015,2.12694698285563
7.529214632138611,5.4967059836756755,-1.1096401469254586,2.434984333759455
7.584181691975368,5.486970945850088,-1.085290303587864,2.7296228228565447
7.639051401433869,5.468861567973758,-1.0579940753592987,3.009498999287075
7.6937400171136066,5.441530205145549,-1.0278990853664278,3.2734301300279216
7.748155319165062,5.404356366484957,-0.9951647840661486,3.520446834841425
7.802198882829912,5.356936947897219,-0.9599603157177343,3.749808365008189
7.855768252308884,5.299068561528207,-0.9224622320676524,3.9610022325180982
7.9087589379241665,5.230724210513941,-0.8828522097424715,4.153731154346246
7.961066180029306,5.152026868777348,-0.8413148981990091,4.327890998341622
8.01258644871708,5.0632224515821385,-0.7980359882155929,4.483543583916105
8.063218673232901,4.964654292615647,-0.7532005523764318,4.620887884426755
8.112865216159058,4.856740692906424,-0.7069916735321643,4.740232540009241
8.161432623088123,4.739956488613898,-0.6595893481320719,4.841971776087389
8.208832187974261,4.614818989826203,-0.611169630371198,4.926565972877149
8.254980377872522,4.481878132806223,-0.5619039706424265,4.99452734891921
8.299799159200585,4.341710297135022,-0.5119586971532344,5.046410571984786
8.343216262171936,4.194914977978892,-0.46149459143338656,5.082807624532011
8.385165411951725,4.042113368114177,-0.41066651518806646,5.10434593403018
8.425586545632866,3.8839478812673667,-0.35962305584776466,5.111688620521894
8.46442602444554,3.7210817198898467,-0.30850616964254574,5.105535695128043
8.501636841644439,3.554197736327799,-0.2574508126912653,5.086625139328255
8.537178819007718,3.383996034622474,-0.20658456129798275,5.055732978720761
8.571018779353942,3.2111899880787056,-0.15602723151077513,5.013671708110421
8.603130679234729,3.036500582219484,-0.10589051442967091,4.961286698188895
8.633495685056923,2.8606492117411237,-0.05627764744778197,4.899450489454274
8.662102177174335,2.6843492442485912,-0.007283142553239225,4.829055130528119
8.688945669616821,2.508296798128589,0.04100740875204197,4.751002924359929
8.714028637598107,2.333161258315326,0.08851743799564127,4.666196092122418
8.73736025018126,2.1595760703029967,0.13517939891686545,4.575525943798448
8.75895601088429,1.9881303147190816,0.18093465835484993,4.4798621574436535
8.778837314031481,1.8193614828173168,0.22573327992928646,4.380042723898344
8.797030928859654,1.6537497616932049,0.2695337071682699,4.276865023617124
8.813568426476586,1.4917140124566184,0.3123023574044411,4.171078383452338
8.828485566601152,1.3336094996723808,0.3540131412389645,4.063378330207668
8.841821661597876,1.1797273181079135,0.39464692454104117,3.9544026293450334
8.853618934778956,1.0302953715478367,0.4341909508344915,3.844729082908102
8.863921888494433,0.885480692542876,0.4726382416635725,3.734874968088833
8.872776695419862,0.745392852243363,0.5099869913444608,3.625297930526081
8.880230623942296,0.6100881938685108,0.5462399706497216,3.516398104593039
8.886331505880982,0.4795746279269196,0.5814039516956521,3.4085212142532457
8.891127252160251,0.3538167471221708,0.6154891638381845,3.3019624085877295
8.894665419631473,0.23274104888348265,0.6485087879240619,3.196970601137227
8.896992830120308,0.11624108901378048,0.6804784939354341,3.093753107059385
8.898155241010446,0.004182427182994428,0.711416025006028,2.992480402533036
8.898197065282277,-0.10359273902014593,0.7413408290313583,2.893290863354966
8.897161137892075,-0.20726132203418401,0.770273737664908,2.796295371621017
8.895088524671733,-0.3070155165294945,0.7982366913811182,2.7015817089388516
8.892018369506438,-0.4030594147799508,0.8252525084705067,2.609218680682731
8.887987775358638,-0.49560606571134336,0.851344695277334,2.51925993785222
8.883031714701525,-0.5848749643604831,0.8765372946558563,2.4317474810526374
8.877182965057921,-0.6710899487947437,0.9008547694663827,2.346714845188456
8.870472065569974,-0.7544774753227177,0.9243219179182672,2.2641899740471523
8.862927290816746,-0.8352652394292892,0.9469638176587387,2.1841978015370835
8.854574638422452,-0.9136811086838712,0.9688057956741095,2.106762561441455
8.845437827335614,-0.9899523343545678,0.9898734212885241,2.0319098506549187
8.835538303992069,-1.064305010148003,1.0101925197950732,1.959668472426965
8.824895253890588,-1.1369637490001894,1.0297892045193429,1.8900720865328209
8.813525616400586,-1.2081515518601733,1.048689925384671,1.8231606928468072
8.801444100881984,-1.2780898456943872,1.0669215323131391,1.758981973756103
8.78866320242504,-1.346998671309915,1.0845113520507002,1.6975925194105759
8.77519321571194,-1.4150970049056146,1.1014872772448059,1.6390589580805903
8.761042245662884,-1.48260320039616,1.1178778668256117,1.5834590119532541
8.746216213658922,-1.549735542414881,1.1337124569451442,1.5308824965416443
8.730718858234773,-1.6167129023854578,1.1490212819105607,1.4814322794494608
8.71455172921092,-1.683755492041019,1.1638356047050553,1.4352252113886645
8.697714174290509,-1.7510857101049688,1.178187856818942,1.3923930388607697
8.68020331718946,-1.8189290783099434,1.1921117872075495,1.3530833034337648
8.662014026406359,-1.8875152622004685,1.205642620241887,1.3174602265631554
8.643138873784354,-1.9570791697767216,1.2188172225075187,1.2857055706789233
8.623568082086587,-2.027862116316346,1.231674278214308,1.25801945573638
8.603289460923424,-2.1001130356816904,1.2442544727716718,1.2346210941106905
8.582288330566607,-2.1740897056747537,1.2566006837127788,1.2157493834815554
8.560547433509859,-2.250059935528265,1.2687581775475942,1.2016632642124072
8.538046834154576,-2.3283026345563025,1.2807748101897183,1.1926417004705057
8.514763807809013,-2.4091086382963898,1.2927012271944234,1.1889830770890781
8.49067272142605,-2.4927811065335925,1.3045910579653142,1.1910037088311545
8.465744910360714,-2.5796352186962164,1.3165010950536258,1.1990350242543435
8.439948558173752,-2.6699967659370087,1.3284914452961691,1.213418798177264
8.413248590514382,-2.764199062475471,1.3406256332779418,1.2344995461688446
8.385606599889627,-2.8625773554144773,1.3529706287396304,1.2626128392928897
8.356980826335482,-2.965459585062766,1.3655967571325593,1.2980678243077517
8.327326230484854,-3.0731519232756086,1.3785774353756368,1.3411216266244135
8.296594711252098,-3.1859169967916476,1.391988651641881,1.3919425761948274
8.264735541284182,-3.303942125083639,1.4059080774038293,1.4505583917895266
8.231696120033346,-3.427294387525792,1.4204136613217246,1.5167847663640504
8.197423176158088,-3.5558591552569903,1.4355815089853652,1.590129616635633
8.161864584605517,-3.6892594103347123,1.4514828051517215,1.6696693677184822
8.12497199050217,-3.826755636530259,1.4681794988289063,1.753897352259016
8.086704434136866,-3.9671316229066598,1.4857184723514965,1.8405526129205068
8.0470331179078,-4.1085816215359765,1.5041239984807016,1.9264521782050217
8.00594730169244,-4.248629481580399,1.5233885202627517,2.007371978752663
7.963461006876637,-4.384128027940917,1.5434622400502784,2.078047183777672
7.919619726597228,-4.51139820413359,1.564242711888055,2.132379088037769
7.874505744555892,-4.626556086105079,1.5855665027684327,2.163919336480011
7.828240183694841,-4.7260248575592305,1.6072056961332328,2.1666287750245035
7.780979935119248,-4.807139525218581,1.6288719838834778,2.1357791368321686
7.732908539867062,-4.868664507221402,1.6502297752517994,2.068738089626314
7.684221894794848,-4.911027588045789,1.6709171561480625,1.9653514335937705
7.63511161891439,-4.936169524568195,1.6905706704840002,1.8277710373679281
7.5857499236687085,-4.947072184807569,1.7088483808576795,1.6598113812237216
7.536279201820633,-4.947151837042083,1.7254464946699168,1.466097968364331
7.486807683450212,-4.939714907738057,1.74010747435356,1.2512911216827776
7.437410534372831,-4.927591926607339,1.752620385570388,1.0195557759911777
7.3881346151067575,-4.91296592379042,1.7628159433302997,0.7743066920232309
7.3390049558688535,-4.897349215363333,1.770559010250532,0.5181680566888853
7.29003146371522,-4.881646070155733,1.775740690817421,0.2530606264259134
7.241215003013663,-4.866250068698693,1.77827129708168,-0.019656316543507968
7.192552502326675,-4.85114430355485,1.778074733916245,-0.29903463750317927
7.144041059291127,-4.8359890556168885,1.7750843875412132,-0.584402221531484
7.095681168734958,-4.820192202741636,1.7692403653258983,-0.8752516923993743
7.0474792467075416,-4.802963194547424,1.7604878484019046,-1.171153698134446
6.999449614762067,-4.78335373187295,1.7487763114205601,-1.471692147982571
6.9516160774433375,-4.760288816826523,1.7340593899407344,-1.7764179587779925
6.904013189275072,-4.732591546602706,1.7162952103529545,-2.084818187953844
6.856687273809045,-4.699004429138584,1.695447028473416,-2.3962981359962443
6.809697229517659,-4.658209342241294,1.6714840471134536,-2.7101747205252904
6.763115136095246,-4.608847631484677,1.6443822999082007,-3.025680000111337
6.7170266597804,-4.549541267308819,1.6141254999070873,-3.3419741094488855
6.671531247107311,-4.478915453593252,1.5807057588125986,-3.6581670600496956
6.626742092571379,-4.395622589871689,1.5441240882121017,-3.9733488859931505
6.582785866672662,-4.298367035104367,1.5043905993521702,-4.286627506574725
6.539802196321618,-4.185929710790594,1.461524324286423,-4.597173476495137
6.4979428992137125,-4.0571912347490535,1.4155525895214718,-4.90427054214007
6.457370986866222,-3.911152024168891,1.3665098841000711,-5.20737066217699
6.418259466624533,-3.746947686779165,1.3144361774783013,-5.506151919473423
6.3807899897567415,-3.5638580801196404,1.259374658283567,-5.800577571761474
6.345151408955545,-3.361308719986937,1.2013688825659523,-6.090954352641426
6.311538321755676,-3.1388638396021373,1.1404593390395381,-6.377987978731404
6.280149683359655,-2.8962114632154026,1.076679459252224,-6.662833481830941
6.2511875687275005,-2.6331425738661016,1.0100511244339145,-6.947137137528691
6.224856142988839,-2.3495292165511033,0.9405797530586276,-7.233064783026693
6.201360850823328,-2.0453109184259537,0.8682491052283607,-7.523307077519532
6.180907741639069,-1.7205064786249342,0.7930160344531654,-7.821043743077521
6.16370267685282,-1.3752813854422556,0.7148055970223901,-8.129832521546989
6.1499498629983975,-1.0101238640031827,0.6335072718069202,-8.453358662934093
6.139848624358366,-0.6262206852804858,0.5489736851775793,-8.794928571185343
6.133586417505561,-0.2261831230510396,0.4610243994657258,-9.15650756668226
6.131324586275051,0.18465069910711807,0.3694593237989032,-9.536990116931502
6.133171093266122,0.5960676955238582,0.2740894226295882,-9.929314228932864
6.13913177022136,0.9898878998826981,0.17479628034025957,-10.316232861862645
