th1 (rad),w1 (rad/s),th2 (rad),w2 (rad/s)
4.90952360892784,0.5061063517127631,2.7990255025638806,2.5764167468084143
4.914584672444968,0.574929788920764,2.8247896700319646,2.581062300099133
4.920333970334175,0.6435974966676984,2.8506002930329557,2.587462439446784
4.926769945300852,0.7120749125442162,2.8764749174274233,2.5957490995484855
4.933890694426294,0.7803178823650431,2.902432408422908,2.606052377244959
4.941693873249944,0.8482726821537374,2.9284929321953577,2.6185004079812924
4.950176600071481,0.915875997498529,2.9546779362751705,2.633219151756905
4.959335360046467,0.9830548611623038,2.9810101277927394,2.650332091673747
4.9691659086580895,1.049726550482216,3.007513448709477,2.66995984925455
4.979663174162912,1.115798446721265,3.0342130472020226,2.6922197216834944
4.9908211586301245,1.1811678591933923,3.0611352444188573,2.7172251471006534
5.002632837222058,1.245721817718119,3.0883074958898638,2.7450851051239864
5.01509005539924,1.3093368378002577,3.1157583469411034,2.775903460931661
5.028183423777242,1.3718786638927147,3.14351738155042,2.8097782625572325
5.041902210416169,1.4332019971922993,3.171615164175992,2.846801002567275
5.0562342303880925,1.4931502156346914,3.200083174201665,2.887055857035183
5.071165732544439,1.5515550950781216,3.2289537327720166,2.9306189167188634
5.086681283495221,1.6082365420655569,3.258259921939205,2.9775574276087826
5.102763648915876,1.6630023499877344,3.288035496215293,3.027929060542108
5.119393672415754,1.7156479918740026,3.3183147868207143,3.0817812323731824
5.136550152334494,1.7659564643374104,3.349132599144446,3.139150504231982
5.154209716977868,1.8136981982995142,3.3805241041867657,3.2000620856570716
5.1723466989608635,1.8586310529047838,3.4125247250433364,3.2645294768074185
5.190933009489911,1.9005004093712958,3.4451700198114104,3.3325542844694604
5.209938013583624,1.9390393812628404,3.478495562656105,3.4041262510944876
5.2293284073962525,1.9739691566415116,3.5125368251670497,3.4792235395212066
5.249068098962668,2.004999485592091,3.547329060562262,3.55781331923873
5.269118093818588,2.0318293235182754,3.5829071937546493,3.6398527028953183
5.289436387053771,2.054147636218744,3.6193057207836024,3.7252900841245795
5.309977863415958,2.071634366897553,3.656558621624848,3.8140669295180754
5.3306942070849335,2.08396155781971,3.694699290920029,3.9061200786172883
5.35153382266313,2.090794610211244,3.7337604917062017,4.001384606061692
5.372441768765243,2.0917936552193055,3.7737743377668185,4.099797299500054
5.393359705317436,2.086614996387411,3.814772310761819,4.201300805604841
5.41422585528131,2.074912570391103,3.8567853188178676,4.305848494659085
5.434974980985221,2.056339358116632,3.8998438037644583,4.413410091920922
5.455538374566387,2.0305486631653764,3.9439779046836674,4.523978121572644
5.47584386119804,1.9971951604320746,3.9892176858993937,4.637575206771239
5.495815812802361,1.9559356048284098,4.035593437967107,4.754262267231623
5.515375168850645,1.9064290813542142,4.083136060639423,4.874147653601947
5.5344394596641875,1.848336675239856,4.131877537175442,4.997397254545055
5.552922826416586,1.7813204487865846,4.181851509720893,5.124245605339684
5.5707360309044525,1.7050416359276794,4.23309396577429,5.25500801071628
5.5877864472637295,1.6191580160419714,4.285644045881453,5.390093659687441
5.603978027424149,1.5233205206700633,4.339544982478327,5.530019638572494
5.61921123263085,1.4171692859084815,4.394845178864053,5.67542560909221
5.633382925489935,1.3003296314756185,4.451599434954975,5.82708865744939
5.646386221804691,1.1724088949340543,4.509870321529469,5.98593734542853
5.658110310754031,1.0329957935142067,4.569729694983755,6.153063148749462
5.6684402686891735,0.8816652214714875,4.631260326471249,6.329725986114622
5.677256920903888,0.7179934393357539,4.694557586332396,6.517347982096398
5.684436855297245,0.5415919915859055,4.75973106615336,6.717485244310833
5.6898527752131045,0.3521742057910921,4.826905918596468,6.931760129565106
5.693374517271016,0.14967693011717403,4.89622351989212,7.161724555722421
5.694871286572187,-0.06552638165988775,4.967840765449344,7.408606321337732
5.6942160227555885,-0.29226629737767085,5.041926828662721,7.672863723288491
5.691293359781811,-0.5279953472196185,5.118655465895606,7.953442051840802
5.686013406309615,-0.767896693737037,5.198189886414014,8.246606655571638
5.678334439372245,-1.0036396482178196,5.280655952969731,8.544276703416527
5.668298042890067,-1.2219269570867635,5.3660987200038965,8.832028281415111
5.656078773319199,-1.4034527575711742,5.454419002818048,9.08756754831359
5.642044245743487,-1.523665423499635,5.545294678301183,9.281524972439467
5.6268075915084905,-1.5571907730023669,5.638109928025578,9.383063544313066
5.6112356837784665,-1.4862855513549382,5.731940563468709,9.37081214322342
5.596372828264917,-1.3094143997791832,5.825648684900943,9.243895254134202
5.583278684267125,-1.0430533596771348,5.9180876374422855,9.023898285799671
5.572848150670353,-0.7143855711021384,6.0083266203002825,8.744895456499968
5.565704294959332,-0.3508366020877487,6.095775574865282,8.439722531232867
5.562195928938454,0.02649008806515435,6.180172800177611,8.13181250636104
5.562460829819106,0.40404986191301495,6.261490925241222,7.834154859682713
5.566501328438235,0.7742245643718407,6.339832473838049,7.551873835972198
5.574243574081954,1.1331718056461046,6.415351212197771,7.285280017456655
5.585575292138414,1.4791525901174973,6.4882040123723375,7.032150338140751
5.600366818039589,1.8114711734138078,6.558525515753745,6.789137382022436
5.618481529773727,2.1298767988899883,6.626416889573969,6.552555257797661
5.639780297762627,2.434256932952575,6.691942442151945,6.318789882985719
5.664122867092153,2.724499741443032,6.755130340981802,6.084502454035848
5.691367864506583,3.0004504061280755,6.815975365522161,5.846725179613574
5.721372368567864,3.2619176141166295,6.874442617318296,5.602902858182258
5.75399154470903,3.5087054305647274,6.930471645900119,5.350907445906119
5.789078599014677,3.7406563565400583,6.98398072035918,5.089038299349051
5.826485162580077,3.957697183525719,7.03487110335267,4.8160132221544485
5.866062134415334,4.159882472168134,7.083031235574214,4.530951745145553
5.907660959137016,4.347432359874491,7.12834075302567,4.2333505061549035
5.951135282735761,4.520762621330047,7.170674258087219,3.923050218130142
5.996342908949061,4.680505815945828,7.209904760268521,3.600193986547088
6.04314796710852,4.827523113077792,7.245906700133991,3.265177345540368
6.091423198239298,4.962907035805566,7.278558473589395,2.9185911330136474
6.141052268597353,5.0879758894597105,7.307744384919531,2.5611591007483367
6.1919320274919505,5.204260985818067,7.333355975927015,2.193672900584195
6.2439746373501315,5.31348785441732,7.3552927049328565,1.8169278133363114
6.297109515894305,5.41755233594516,7.373461983066219,1.4316633898009719
6.3512850392537565,5.518491620445187,7.387778616964229,1.0385142669412946
6.406469955458208,5.618448684527849,7.398163759633642,0.6379781883425188
6.462654442303487,5.719625814490763,7.404543541517067,0.23041131877564724
6.519850700448394,5.82421836743246,7.406847654704824,-0.18393373918186812
6.578092884122719,5.934312699251904,7.405008317313005,-0.604802848019145
6.637436011115238,6.051721056889319,7.398960288832813,-1.0317293834170842
6.697953221684131,6.177710103793208,7.3886429949986425,-1.4636573338054917
6.759730322722063,6.312559381424371,7.374006421660588,-1.8983113658128983
6.822855916536306,6.454869026746004,7.355023308002459,-2.331205241141348
6.887404606803766,6.600548817558934,7.3317112555910455,-2.754201685211205
6.953410094979356,6.741529027841458,7.304169238738933,-3.153695416628077
7.02082538525777,6.864556274585997,7.272632284572652,-3.508953791183468
7.08947094800363,6.951067330652126,7.237542746660818,-3.7920442258618654
7.158981621310151,6.979789774490567,7.199622304402199,-3.971697927003881
7.228779519055056,6.933207238912218,7.1599053251321605,-4.022704443878918
7.2981115914441785,6.805893930174557,7.119678280693371,-3.937938963196116
7.366170530745924,6.608772111611681,7.08029889106141,-3.7344792599043655
7.432258251862041,6.364799999641488,7.042954098462367,-3.4473487337014705
7.495906251858456,6.099308038345802,7.008480611125353,-3.1154643656616274
7.556899332241914,5.832336771508817,6.977325967468737,-2.7703585314028665
7.615222699957002,5.576275195647767,6.949622382154708,-2.4325105578302804
7.67098545191348,5.337115629576444,6.925297276576405,-2.112962625030045
7.724356608209244,5.116701226837306,6.904167650326104,-1.816469588100126
7.7755236204776175,4.914599183609003,6.886002954445103,-1.5441866409001974
7.824669612313707,4.729312100408858,6.8705610880361005,-1.2954428992856488
7.871962733317796,4.5589617689508755,6.857606659043244,-1.0687679275570225
7.917552351007305,4.401639357474196,6.846918979767674,-0.8624371487187024
7.961568744582046,4.255567028882195,6.838294608280487,-0.6747398777666578
8.00412441487087,4.119160124852329,6.83154720950282,-0.5040973404976612
8.045316016119392,3.9910399178854896,6.826506236097844,-0.3491033732271662
8.085226415298246,3.870023553801056,6.823015202365572,-0.20852732773207386
8.123926650836257,3.755104821192869,6.820929929088251,-0.08130000124565595
8.161477699048186,3.64543245194953,6.820116929075795,0.03350674969691332
8.197932023567681,3.5402890534460827,6.820451996572764,0.13670145433982675
8.233334914102143,3.4390719461267794,6.821819011116163,0.22899309952229954
8.26772563356341,3.341276284312127,6.824108942111386,0.31100884721572697
8.30113839640653,3.2464804226993795,6.827219030583543,0.3833091424284903
8.333603200633524,3.154333319093359,6.831052122007828,0.4464003021076404
8.365146533824458,3.0645437116815457,6.835516125028905,0.500744825436463
8.395791970941273,2.9768708127045955,6.840523573283269,0.5467697163701233
8.425560679068319,2.8911162871119664,6.84599127044697,0.5848731112165749
8.454471841939439,2.807117318598233,6.851840001559136,0.615429483961324
8.48254301512542,2.7247405986962696,6.85799429639875,0.638793673314921
8.509790421112383,2.6438771041542513,6.864382233131899,0.655303944782502
8.536229192153925,2.564437552642036,6.8709352725797235,0.6652842715230599
8.561873567680346,2.4863484469723987,6.877588115294954,0.6690459906832128
8.58673705215007,2.409548633996866,6.884278575201787,0.6668889676657874
8.610832538490039,2.3339863168131507,6.890947464878445,0.65910237942221
8.63417240165817,2.259616468575437,6.897538488672667,0.6459652091600968
8.656768566343924,2.1863986036412584,6.903998140764267,0.6277465285969657
8.678632552380337,2.1142948675415205,6.910275606050237,0.6047056298263324
8.699775501055752,2.043268411752018,6.916322662348501,0.5770920567679017
8.720208185173272,1.97328202281665,6.92209358291618,0.5451455758441324
8.739941005401437,1.904296978288533,6.927545038674621,0.5090961167758766
8.758983975184323,1.8362721044145003,6.93263599984238,0.4691637070513667
8.777346696228468,1.7691630126369697,6.937327636912894,0.42555841754049206
8.795038326354838,1.702921493928545,6.941583221088298,0.3784803317563517
8.812067541294123,1.6374950517798226,6.9453680244058615,0.32811954727470355
8.828442491811922,1.5728265563758634,6.948649219878608,0.27465621468465157
8.84417075737568,1.508854004149762,6.951395782025455,0.21826061704520422
8.859259297417179,1.44551036850812,6.953578388195907,0.15909329105579445
8.87371440110226,1.3827235290899733,6.955169321106465,0.09730518991720351
8.887541636393161,1.3204162684494454,6.956142373005637,0.03303788707453954
8.900745799077656,1.2585063265418026,6.956472751876382,-0.03357618038294716
8.913330862343074,1.1969065048399508,6.956136990072553,-0.102413430009456
8.925299927391473,1.1355248133107412,6.955112855772458,-0.17335881520475335
8.93665517552458,1.0742646548349573,6.95337926762041,-0.2463054702585849
8.94739782207293,1.0130250429592216,6.950916212917824,-0.32115431973053266
8.957528072502521,0.9517008501203487,6.947704669720519,-0.3978136521294592
8.967045081003725,0.8901830846810037,6.943726533199224,-0.4761986572691168
8.975946911850535,0.8283591962576627,6.938964546626533,-0.5562309260622389
8.984230503813112,0.7661134099045537,6.93340223736591,-0.637837910903508
8.991891637912158,0.7033270907355829,6.927023858256875,-0.7209523442095782
8.998924908819513,0.6398791415128326,6.919814334814779,-0.8055116121586937
9.00532370023464,0.5756464365944124,6.911759218693192,-0.891457080230932
9.011080164600585,0.5105042964014879,6.902844647890883,-0.9787333668219801
9.0161852075646,0.4443270072144824,6.893057314222664,-1.0672875610206696
9.020628477636745,0.3769883916162835,6.882384438612457,-1.1570683806388402
9.024398361552908,0.3083624352339595,6.870813754806068,-1.2480252668012612
9.027481985905247,0.23832397555129758,6.858333502138056,-1.3401074118874816
9.02986522566076,0.1667494584267774,6.844932428019181,-1.433262718414999
9.031532720245028,0.09351776750311896,6.830599800835031,-1.527436687615688
9.032467897920059,0.01851113087740784,6.815325433958874,-1.6225712380382864
9.032653009228833,-0.05838389184660135,6.799099721578491,-1.7186034565610095
9.032069170310367,-0.13727534074243797,6.781913687012881,-1.8154642867668973
9.030696416902941,-0.2182647058909699,6.763759044145211,-1.9130771627564542
9.028513769844032,-0.30144570065838694,6.744628272517647,-2.0113566001656737
9.025499312837448,-0.3869029652484248,6.724514706515991,-2.1102067604139987
9.021630283184964,-0.47471071201729065,6.703412638911851,-2.20952000898014
9.016883176064791,-0.5649313288067572,6.681317438822049,-2.3091754936988385
9.011233862776724,-0.6576139618395963,6.65822568388506,-2.4090377745320444
9.004657723158328,-0.7527931053855293,6.63413530613974,-2.5089555417639273
8.997129792104472,-0.850487231223567,6.6090457507221005,-2.608760464788187
8.988624919792237,-0.9506974965917828,6.582958146074219,-2.708266218198065
8.979117944826319,-1.0534065744329402,6.555875483892239,-2.8072677352679256
8.96858387908199,-1.1585776538328414,6.527802806539559,-2.905540740569472
8.956998102543661,-1.266153661054549,6.4987473991338645,-3.0028416127848376
8.944336565933115,-1.376056751897247,6.468718983006016,-3.098907625141398
8.930575998414144,-1.4881881236517125,6.437729906754602,-3.1934576037225644
8.915694117177626,-1.6024281891374021,6.4057953307173765,-3.2861930327436712
8.899669835286252,-1.7186371457660745,6.37293340038994,-3.376799620458509
8.882483463828592,-1.8366559590648064,6.339165404185355,-3.4649493196999135
8.864116904237944,-1.956307762672457,6.304515910988356,-3.550302773541098
8.84455382661122,-2.0773996559165875,6.2690128832529455,-3.6325121300022025
8.823779830052054,-2.1997248565000453,6.232687761952923,-3.71122414137986
8.801782581487053,-2.3230651408027847,6.1955755205391245,-3.786083435338859
8.778551930079026,-2.447193479427742,6.157714686185736,-3.856735818419781
8.754079995284748,-2.5718767527569426,6.119147328001539,-3.9228314503462927
8.728361227757178,-2.6968784124321816,6.079919013498076,-3.9840277117484693
8.701392443632857,-2.8219609417755143,6.0400787363805915,-4.0399915807464115
8.673172834215102,-2.9468879629034848,5.999678820573127,-4.090401336931718
8.643703954586067,-3.0714258419027667,5.95877480720381,-4.134947425696068
8.61298969616704,-3.1953446565655232,5.9174253329468485,-4.173332341892885
8.581036249601384,-3.318418413800249,5.87569200952792,-4.205269429005472
8.547852065463381,-3.4404244352499918,5.833639315237865,-4.23048053715077
8.513447821110882,-3.5611418686260286,5.791334509866357,-4.248692538657245
8.477836402424622,-3.6803493271998167,5.748847584479785,-4.2596327616218
8.441032909152623,-3.7978217090626356,5.706251256863567,-4.263023467777364
8.403054692061996,-3.9133262995534728,5.663621022185793,-4.258575569449032
8.363921429066462,-4.026618313386971,5.621035266491303,-4.245981850026704
8.323655245932592,-4.137436086637915,5.578575447991036,-4.224910022374659
8.282280885066212,-4.2454961824339605,5.5363263477672895,-4.194996029371104
8.239825923241872,-4.350488727804699,5.4943763874735785,-4.155838059695582
8.196321035963825,-4.452073352375196,5.4528180068766225,-4.106991818786504
8.151800302440073,-4.549876151619788,5.411748088688758,-4.047967656881962
8.106301540923875,-4.643488146094843,5.371268412119938,-3.9782302082014507
8.059866659462926,-4.732465749324292,5.331486110037924,-3.8972012292854457
8.012542001969683,-4.816333783926736,5.2925140977450695,-3.804266327794605
7.9643786641304155,-4.894591587883311,5.254471434467123,-3.6987862285837525
7.9154327482515825,-4.966722716711042,5.217483572181286,-3.5801131102196266
7.865765521084472,-5.03220865585593,5.18168244107909,-3.447612338226138
7.815443434525913,-5.090546792669384,5.147206317696829,-3.300689597900467
7.764537966599219,-5.141272642707525,5.1141994217178235,-3.1388229727870725
7.713125240172144,-5.183985971816432,5.082811191989952,-2.961598922851797
7.66128538045398,-5.218380008603399,5.053195202761434,-2.7687504118568436
7.609101580367946,-5.24427242807604,5.0255076986428655,-2.560194673721585
7.556658856087185,-5.261636260764029,4.99990575190565,-2.3360673906705514
7.504042493479544,-5.270628426053873,4.976545077998944,-2.0967495177816007
7.451336209219006,-5.27161330991635,4.955577582821128,-1.8428827876427674
7.398620076119842,-5.2651788170843785,4.9371487549447,-1.5753702145494035
7.345968287948998,-5.252142714937708,4.921395052799206,-1.2953587855313604
7.293446860799621,-5.233547884381728,4.908441464943893,-1.004202969515841
7.241111381955804,-5.210646252353816,4.898399435248734,-0.7034095550197279
7.189004919432266,-5.184872559173669,4.891365339698537,-0.39456636390081906
7.1371561938405295,-5.157810495688173,4.887419676059529,-0.07925921458116442
7.085578088883648,-5.131154887351913,4.886627083913717,0.24101725487382353
7.034266540010129,-5.106674300144148,4.889037256462455,0.5649489305717191
6.983199797008687,-5.086178589268704,4.894686745768172,0.8914863820488426
6.932338011116,-5.0714955288646655,4.9036016095886605,1.2199199968280832
6.881623055827354,-5.064459895387289,4.915800809556941,1.5499443834109108
6.83097845687348,-5.066917453895588,4.931300253391051,1.8817127350124032
6.780309282334525,-5.0807454557087155,4.950117380741174,2.2158841673706045
6.729501827777438,-5.107890691261335,4.97227622241488,2.5536690319461135
6.678422920864825,-5.150425950925689,4.997812912734341,2.8968787178452593
6.6269186613555675,-5.2106258890529,5.026781699912794,3.247987409173817
6.574812402465039,-5.291063519268173,5.059261574004532,3.6102134866455384
6.521901767272357,-5.394728282272838,5.0953637088709876,3.9876271762850823
6.467954484449629,-5.525164428078787,5.1352399806338385,4.385287011499595
6.412702840168841,-5.686621152385012,5.179092850748835,4.809396510295401
6.35583662864499,-5.884186137121734,5.2271868158517885,5.267444095073179
6.296994767273773,-6.123824756366934,5.27986125680252,5.768219978444122
6.235756519710104,-6.412129161644639,5.337543456586961,6.321439047159132
6.171635228093657,-6.755309795721074,5.400757847058553,6.93631988613843
6.1040821301364465,-7.156375436452388,5.470121045919937,7.617651015577316
6.0325183757719225,-7.608364770213686,5.54629755607571,8.356359738887962
5.956434728069786,-8.080357752393592,5.6298611534645895,9.110005850099764
5.87563115054585,-8.495744051672334,5.720961211965587,9.772462104777413
5.790673710029126,-8.721308752451767,5.818685833013362,10.158767472209279
5.7034606225046085,-8.622393873192175,5.9202735077354545,10.082489406413462
5.617236683772687,-8.193959149611642,6.021098401799589,9.538943885387747
5.53529709227657,-7.589389708342256,6.116487840653467,8.744557947004715
5.459403195193148,-6.971731237039416,6.203933420123514,7.928345048038315
5.389685882822754,-6.419184168915517,6.283216870603897,7.200396438395623
5.325494041133599,-5.947585230197951,6.355220834987853,6.583745750820729
5.2660181888316195,-5.548878535073054,6.421058292496061,6.068128067360826
5.210529403480889,-5.209837866072237,6.481739573169669,5.636056069076995
5.158431024820167,-4.918173929330964,6.538100133860439,5.271313560151082
5.1092492855268565,-4.663865913203837,6.59081326946195,4.960811975425566
