th1 (rad),w1 (rad/s),th2 (rad),w2 (rad/s)
0.05937887462348113,-2.6665876653314635,4.498012123263684,1.995505055975819
0.032712997970166496,-2.6694800719442155,4.517967173823442,2.158938835429164
0.00601819725072434,-2.676937220248382,4.539556562177734,2.322844154870021
-0.02075117495175948,-2.6894125107734297,4.562785003726434,2.4876816444486125
-0.04764530005949378,-2.7073791349750183,4.58766182017092,2.6540081359320853
-0.07471909140924396,-2.731339125667382,4.614201901530241,2.8224831534030823
-0.10203248266591777,-2.761833602373282,4.642426733064272,2.993877151777308
-0.1296508186896506,-2.799454161201942,4.672365504582045,3.16908172813524
-0.15764536030167,-2.8448552465385992,4.704056321863397,3.349121852850298
-0.186093912767056,-2.8987671034178746,4.737547540391899,3.5351698264737363
-0.21508158380123474,-2.9620084431095752,4.7728992386566365,3.7285600285835407
-0.2447016682323305,-3.035497080600868,4.8101848389424715,3.9308023427677843
-0.27505663903833916,-3.1202552049396015,4.849492862370149,4.143589984101746
-0.3062591910877352,-3.2174030681872248,4.890928762211167,4.368793558075823
-0.33843322176960744,-3.3281297729156494,4.934616697791925,4.608426220540262
-0.37171451949876394,-3.4536209153368707,4.9807009599973275,4.864552573607656
-0.40625072865213263,-3.5949076386551955,5.029346485733404,5.1390929645722485
-0.4421998050386846,-3.752576919611763,5.080737415379127,5.433440541951975
-0.4797255742348022,-3.926246250224093,5.135071820798647,5.747757214938071
-0.5189880367370432,-4.113662452531126,5.1925493929480275,6.0797533315533885
-0.5601246612623545,-4.309267000972002,5.2533469262635615,6.422729431317116
-0.6032173312720746,-4.50218512986836,5.3175742205767325,6.762813863930396
-0.6482391825707582,-4.6740822695316595,5.385202359216036,7.076000041560592
-0.6949800052660748,-4.798478350390068,5.455962359631642,7.327176051470278
-0.7429647887699755,-4.844555086277767,5.529234120146345,7.475344587919893
-0.7914103396327532,-4.787769747453045,5.603987566025544,7.488224498644173
-0.8392880371072836,-4.623285534929443,5.678869811011985,7.360667073565306
-0.8855208924565781,-4.370736083539628,5.752476481747638,7.120977048821951
-0.9292282532919743,-4.0641044459290105,5.8236862522358575,6.8166794509469115
-0.9698692977512644,-3.7360504340808327,5.891853046745327,6.492856496561814
-1.0072298020920727,-3.409039080399713,5.956781611710945,6.1801183257476655
-1.0413201928960698,-3.09495564566315,6.018582794968422,5.89433133383492
-1.0722697493527014,-2.798373741136577,6.077526108306771,5.6412917628714645
-1.1002534867640672,-2.5198085314111176,6.133939025935486,5.421275408674021
-1.1254515720781784,-2.257873083336156,6.188151780022226,5.2320140980809375
-1.14803030291154,-2.010471040941986,6.240471921003035,5.070318823097678
-1.1681350133209598,-1.7753864778437802,6.291175109234012,4.932865941846244
-1.1858888780993977,-1.5505467919569695,6.340503768652474,4.8165341638707675
-1.2013943460189673,-1.3341219922294014,6.388669110291182,4.7185195102220225
-1.2147355659412613,-1.1245472641613168,6.435854305393402,4.6363479981894615
-1.2259810385828744,-0.920512448407541,6.482217785375297,4.567845626636409
-1.2351861630669498,-0.7209394398120402,6.527896241641661,4.5110940503894135
-1.2423955574650702,-0.5249571371267664,6.573007182145555,4.464384817589873
-1.247645128836338,-0.3318779967979139,6.617651030321454,4.426177545693073
-1.2509639088043172,-0.14117757711972898,6.6619128057783845,4.395063899263094
-1.2523756845755145,0.04752277100164637,6.7058634447710155,4.369737664939866
-1.2519004568654981,0.2344704397202584,6.749560821420414,4.348970581063775
-1.2495557524682954,0.419793891954649,6.793050527231052,4.331593371616176
-1.2453578135487489,0.6035133806412432,6.836366460947214,4.316481412255263
-1.2393226797423365,0.7855506201440006,6.879531275069766,4.302544502661482
-1.2314671735408964,0.9657378990078198,6.922556720096381,4.288720279114672
-1.2218097945508182,1.1438270376385753,6.965443922887528,4.273970850287081
-1.2103715241744324,1.319498502874193,7.0081836313903985,4.257282269385739
-1.1971765391456906,1.4923708977799843,7.050756454084256,4.237666466794194
-1.1822528301678907,1.6620109521614148,7.093133118752198,4.214165263265315
-1.1656327206462767,1.8279440502012327,7.135274771384851,4.185856070718016
-1.1473532801442643,1.9896652498448115,7.177133332092031,4.151858872912056
-1.1274566276458162,2.146650678071813,7.218651920821151,4.111344068728941
-1.1059901208650982,2.29836913094918,7.259765361508441,4.063540762459066
-1.0830064295556063,2.4442936705839284,7.300400769133032,4.007745102513954
-1.0585634928497671,2.583912994599454,7.340478220158171,3.943328303964907
-1.0327243629037726,2.7167423574100686,7.37991150319782,3.8697440400107532
-1.005556939329672,2.8423338440181767,7.418608943597928,3.7865349488504294
-0.9771336008894902,2.960285831861905,7.456474293086432,3.6933380691581807
-0.9475307425708711,3.070251518361691,7.493407673778013,3.5898890817881237
-0.9168282273872542,3.171946434465704,7.5293065645958945,3.4760252897755732
-0.8851087630425972,3.2651549011828878,7.56406681749365,3.3516873067797905
-0.8524572140307684,3.349735411687327,7.597583690561448,3.2169194420181917
-0.8189598599138951,3.425624933207816,7.62975288498163,3.071868767120876
-0.7847036105818169,3.492842120535198,7.660471572652839,2.9167828306338173
-0.7497751893764649,3.5514894194758666,7.6896394009591775,2.752005956078219
-0.7142602951817063,3.6017540193949165,7.71715946051996,2.5779740290749835
-0.6782427549877571,3.643907596281988,7.742939200810709,2.395207658728856
-0.6418036790249372,3.678304779216654,7.766891277397998,2.204303598211113
-0.6050206312327706,3.7053802805472222,7.78893431338011,2.0059243366902115
-0.5679668284272984,3.7256446582001765,7.808993556747012,1.8007858326382866
-0.5307103818452966,3.7396787287626747,7.827001415073395,1.5896434450046661
-0.4933135945576699,3.7481267200032824,7.842897849523442,1.3732762261744782
-0.45583232735763707,3.751688335292692,7.856630611785186,1.1524698565844549
-0.41831544400471016,3.751109991002343,7.868155310351031,0.92799860976983
-0.3808043440946867,3.747175570877203,7.877435296448729,0.7006068221349054
-0.3433325883859147,3.7406971082533027,7.884441364670078,0.47099038948575
-0.30592561730338164,3.732505849414023,7.889151268564936,0.23977881235662724
-0.2686005588092414,3.7234441643198366,7.891549056688502,0.007518260566396429
-0.23136611716604302,3.714358753541545,7.891624239294166,-0.22534397279030668
-0.19422252963062758,3.7060955557604944,7.8893707995662625,-0.45847339738214676
-0.15716157407302264,3.6994966952548114,7.884786065592441,-0.691660566366071
-0.12016660712047453,3.6953997317315395,7.87786945992878,-0.9248317405679887
-0.08321260980315913,3.6946393938585373,7.8686211425231,-1.1580582505698622
-0.04626621586457375,3.698051898625808,7.857040560017402,-1.3915649713853593
-0.009285696878315673,3.7064818820116217,7.8431249103035485,-1.6257384220797553
0.027779121941800544,3.72079188512436,7.826867526082751,-1.8611350378527571
0.06498704079304415,3.7418742343679643,7.808256175704223,-2.0984901057964276
0.1024057831367238,3.77066498473035,7.787271274646258,-2.338727658366788
0.1401124329840273,3.808159289511706,7.763883998062591,-2.5829711905876303
0.17819402587914437,3.855426988332929,7.738054286156714,-2.8325542423685475
0.21674829576247368,3.913626138931183,7.709728743733029,-3.0890283628661916
0.2558845571517855,3.984010252138761,7.678838460104367,-3.3541632015802154
0.2957246596731731,4.067921412820813,7.645296828088565,-3.6299284754282386
0.3364038738013812,4.166755056557808,7.608997543334283,-3.9184386455423623
0.3780714243669593,4.281870888086482,7.569813156878859,-4.221825469899147
0.4208901332478241,4.414405166469689,7.527594902179867,-4.5419768328547345
0.46503418491252096,4.564908488586249,7.48217513385132,-4.8800369617685995
0.5106832697983834,4.732688504898163,7.433374764233634,-5.235500727786362
0.558010154847365,4.914689779529362,7.38101975695577,-5.604668417325774
0.6071570526426586,5.103747831054964,7.324973072782512,-5.978232985552181
0.6581945309532082,5.286272964714345,7.265190742926991,-6.3380748832382245
0.7110572606003517,5.440174763808869,7.201809994094608,-6.654391285843515
0.7654590082384404,5.5353664553111415,7.135266081236173,-6.886417385529046
0.8208126727915518,5.540445311546306,7.066401907380882,-6.991745075177015
0.8762171259070148,5.436371266951446,6.996484456629112,-6.945351726807779
0.9305808385765293,5.228969199885646,6.9270309393610345,-6.756884310133999
0.9828705305753858,4.947432313759056,6.859462096259694,-6.468339330233747
1.0323448537129762,4.628840681602576,6.794778702957356,-6.132319470148131
1.078633260529002,4.303224252943122,6.733455508255875,-5.791240479204673
1.1216655030584333,3.988524371044699,6.675543103463828,-5.470450418433284
1.1615507467688801,3.6927718695974243,6.620838599279495,-5.181393105270285
1.1984784654648544,3.417989709046486,6.569024668226793,-4.927115166524111
1.2326583625553191,3.1631984861290836,6.519753516561551,-4.70647802422657
1.26429034741661,2.926184450095148,6.472688736319285,-4.516623942798643
1.2935521919175614,2.7044003572700204,6.4275224968912985,-4.354226201954722
1.3205961954902616,2.495376129419303,6.383980234871752,-4.216054582809427
1.3455499567844547,2.296880405831345,6.341819689043657,-4.0991939702907665
1.368518760842768,2.106964432067001,6.300827749340749,-4.001099526560367
1.389588405163438,1.9239546554441012,6.260816754075146,-3.919580746537549
1.408827951717879,1.7464259591100406,6.22162094660977,-3.852758650152147
1.4262922113089793,1.573170203434863,6.1830933601082485,-3.799016362037957
1.442023913343328,1.4031663608078966,6.145103196487869,-3.7569517226992737
1.456055576951407,1.2355545684224716,6.107533679260877,-3.725335124069155
1.4684111226356318,1.069614617368075,6.070280328020186,-3.7030733049562192
1.4791072688093125,0.9047486229412881,6.0332495949706235,-3.689178816172011
1.4881547550387255,0.7404673317177806,5.996357806808904,-3.6827445091013464
1.4955594283559033,0.5763794498370425,5.95953036171789,-3.6829223465319028
1.5013232228542737,0.41218339720400193,5.922701138252571,-3.688905904226968
1.5054450568263136,0.24766094488486742,5.885812079210302,-3.699916042894764
1.5079216662751622,0.08267225197656727,5.848812918781355,-3.715189344809924
1.5087483887949278,-0.08284812617859211,5.8116610253332555,-3.7339690107539494
1.5079199075331418,-0.248894636574993,5.774321335225716,-3.7554979945234757
1.5054309611673917,-0.41539386641295406,5.736766355280482,-3.779014211888465
1.5012770225032621,-0.5822077088111928,5.698976213161597,-3.8037476984795364
1.4954549454151502,-0.7491367998718415,5.660938736176801,-3.8289196075889853
1.4879635774164317,-0.9159244220785692,5.622649540100912,-3.85374293599179
1.478804333195646,-1.0822610155316068,5.5841121107409935,-3.877424846164406
1.4679817230403298,-1.2477893798448838,5.545337862279349,-3.8991704202200026
1.455503829241881,-1.4121105867915387,5.506346158077149,-3.918187639104565
1.4413827233739656,-1.5747905595539524,5.467164281686103,-3.9336933357773054
1.425634817778426,-1.7353672125556807,5.42782734832833,-3.9449198296912598
1.4082811456528692,-1.8933579910775304,5.388378150031418,-3.9511219186486866
1.389347565742094,-2.048267607287237,5.348866930844931,-3.951583889369747
1.3688648896692215,-2.1995957436752023,5.309351091951234,-3.9456262149765027
1.3468689322324694,-2.3468444897902687,5.269894829801468,-3.932611639085186
1.3234004873345666,-2.489525295386812,5.230568713410617,-3.911950402617293
1.2985052343806984,-2.6271652620862374,5.1914492093844435,-3.883104448001844
1.272233581759836,-2.759312653377418,5.152618164904425,-3.845590530338522
1.244640455226062,-2.8855415738611088,5.11416225960104,-3.798982267981921
1.2157850394874508,-3.0054558459118255,5.076172436921221,-3.74291126588677
1.1857304810283325,-3.1186921872054056,5.038743324262353,-3.6770675333746734
1.1545435591562785,-3.2249228575714044,5.001972648928606,-3.6011994838411323
1.1222943305805644,-3.3238579909252395,4.965960654090195,-3.5151138391410215
1.0890557506713119,-3.415247851748197,4.930809515698785,-3.4186757603674622
1.0549032721538298,-3.498885251976419,4.89662275809511,-3.3118094869864256
1.0199144196340657,-3.5746083319344124,4.863504663225246,-3.194499688693526
0.9841683363147216,-3.6423038493528,4.831559666338311,-3.066793623208371
0.9477452978211935,-3.7019110373061053,4.800891730106227,-2.928804056084755
0.9107261874481325,-3.7534259912505554,4.77160368954538,-2.780712746117987
0.8731919275356269,-3.796906435594329,4.7437965620842,-2.6227741454108204
0.8352228631796836,-3.83247661165774,4.717568820630092,-2.455318822107443
0.7968980970631062,-3.8603319331485157,4.6930156324090175,-2.278756002950643
0.758294777731621,-3.8807429846547747,4.670228072379511,-2.0935745687190384
0.7194873478850733,-3.8940584048116342,4.64929232669232,-1.9003418326764345
0.6805467638369569,-3.9007062082149595,4.630288908365556,-1.6996995002682054
0.6415397017548073,-3.9011931643500426,4.6132919133628745,-1.4923563501734602
0.6025277701113069,-3.89610196761106,4.59836834986114,-1.2790773859731905
0.5635667504351962,-3.8860860929139003,4.585577576001408,-1.0606694673638084
0.5247058895060572,-3.8718624224735017,4.57497088132777,-0.837963713692225
0.4859872652813222,-3.85420193125474,4.566591244190848,-0.6117952474231827
0.4474452459687748,-3.833918908406185,4.560473291716616,-0.3829810755428923
0.4091060568847129,-3.8118593469965343,4.5566434809611875,-0.15229706093034145
0.3709874634147476,-3.7888892362116198,4.555120510351884,0.0795450093641992
0.3330985710526314,-3.7658835280655327,4.5559159604455255,0.3119193055609122
0.2954397357719761,-3.7437165234188825,4.559035153501134,0.5443059892581658
0.25800257053778725,-3.723254338070418,4.564478213393716,0.7763088427428106
0.22077002715708305,-3.7053499850374942,4.572241301821144,1.0076702296511906
0.18371652730670812,-3.6908414644898984,4.582318004117656,1.238283437309923
0.14680811266180915,-3.6805531093443684,4.5947008384907555,1.4682027538920377
0.11000258156836547,-3.675300310271952,4.609382866029676,1.6976518989294402
0.07324957846564595,-3.6758976505640146,4.62635938501897,1.9270316356431458
0.0364906019600058,-3.683170422077274,4.645629701375402,2.1569275368463927
-0.00034110226076693867,-3.6979694606503837,4.667198976743865,2.3881189442101634
-0.03732079686727078,-3.7211892111094245,4.691080166185967,2.6215901388060576
-0.07453268897836503,-3.753788865482412,4.717296067574027,2.858544594022593
-0.11207057763318914,-3.7968162355450445,4.745881513514253,3.100422830435612
-0.1500387399886396,-3.851433581319193,4.776885741818609,3.348923668587209
-0.1885530758018315,-3.9189436616073094,4.810374978504481,3.6060272462981597
-0.2277425124179046,-4.000812319853049,4.846435250967463,3.8740153864116182
-0.2677506356164351,-4.098680071233203,4.885175404831579,4.155479540542602
-0.3087374363287671,-4.214347751516076,4.926730200237005,4.453296295043548
-0.35088091384392783,-4.349707303300502,4.97126316318744,4.770531105696997
-0.3943779868769329,-4.506562972733468,5.01896847424441,5.110195211519841
-0.43944361660426756,-4.686242412034727,5.070070426359608,5.474717113446777
-0.4863060407246148,-4.888822057667411,5.124817597494076,5.864885295050685
-0.5351942613012889,-5.111688467673076,5.183466450444582,6.2778749936220715
-0.5863111459780197,-5.3470867943302895,5.246245200380803,6.703871242742315
-0.6397820139213226,-5.5785140331030645,5.313283912808226,7.121083657672478
-0.6955671542523533,-5.776926722804618,5.384494749384951,7.490492872644237
-0.7533364214803995,-5.9005296750115495,5.459399678111393,7.755563857417524
-0.8123417182305149,-5.904941384792629,5.536955316685568,7.85637698818102
-0.8713911320784412,-5.765895187664239,5.615519086567378,7.761129074776464
-0.9290500839550836,-5.498539248846234,5.693130377315143,7.492717387709148
-0.9840354764435459,-5.149992503238784,5.768057551192234,7.117994734167731
-1.0355354014759337,-4.771296882453526,5.839237498533911,6.7085958503502106
-1.083248370300469,-4.39752692641085,5.906323457037413,6.313480228860643
-1.1272236395645774,-4.045781354865364,5.969458259326019,5.956445024014279
-1.1676814531132311,-3.7213267421221525,6.029022709566162,5.644852780067532
-1.2048947205344527,-3.423505740956142,6.085471237366837,5.377904525171397
-1.239129777944014,-3.1492949649221025,6.139250282618551,5.1515826039408275
-1.2706227275932351,-2.8950496217923862,6.19076610865796,4.961054145406556
-1.299573223811159,-2.657247062029218,6.240376650112026,4.8016819530356685
-1.3261456944314511,-2.432751792394501,6.288393469642383,4.669373770352427
-1.3504732123553962,-2.2188718354592494,6.335087207345907,4.560645031942235
-1.3726619307099888,-2.0133330415336745,6.380693657665329,4.472569966423399
-1.3927952611253256,-1.814227352418252,6.425419357329563,4.402697808297563
-1.410937534649508,-1.6199583252846843,6.469446335412539,4.348965722754345
-1.4271371179023549,-1.4291926384812013,6.512935992640083,4.309620056683613
-1.441429044287167,-1.2408200234271256,6.556032193206919,4.283149033536169
-1.4538372445214383,-1.053921514643459,6.59886368354228,4.26822664526008
-1.4643764596678728,-0.8677449889293951,6.641545949994881,4.263666367063099
-1.4730539095571666,-0.68168672991971,6.684182613665512,4.26838313086162
-1.4798707768563637,-0.4952777854299077,6.726866444974128,4.281362165024131
-1.4848235547106627,-0.3081740001160663,6.769680066624369,4.301633591170592
-1.4879052947118234,-0.1201487310892316,6.8126964025360754,4.3282519583195675
-1.4891067820227157,0.06891263592888405,6.855978922119271,4.36028014893019
-1.488417655663427,0.2590171608633849,6.899581723608573,4.396777295190183
-1.4858274840547931,0.4500685257577104,6.9435494965604745,4.436790492258284
-1.481326798797216,0.6418715485258828,6.987917401483057,4.479350186555662
-1.4749080833119572,0.8341375841619327,7.0327109033486135,4.5234691514089205
-1.466566707470338,1.0264912612028705,7.077945594862703,4.568144940537844
-1.4563017948583092,1.2184788748502986,7.123627044268082,4.612365635654832
-1.4441170061098063,1.4095786054499382,7.16975070062463,4.6551185852200545
-1.4300212200553069,1.599212555057189,7.21630188647683,4.695401679549551
-1.414029094504735,1.7867604045708632,7.263255903272325,4.732236540732521
-1.3961614904590263,1.9715743040467748,7.3105782686796505,4.764682846546288
-1.3764457474185585,2.1529944382229624,7.358225097145113,4.791852880723267
-1.3549158030363289,2.3303645786377754,7.406143625952346,4.8129253318049106
-1.331612157249951,2.503046861950527,7.454272879270396,4.827157368985953
-1.3065816886304458,2.6704350347508696,7.502544452960255,4.833894116695127
-1.2798773382829371,2.8319654832981715,7.550883394127207,4.832574829433927
-1.2515576834499553,2.9871255169605138,7.599209142421547,4.822735321215755
-1.2216864282803501,3.1354585811255262,7.647436495633705,4.8040065051855265
-1.190331842469095,3.276566315541691,7.6954765606855595,4.776109216499465
-1.157566179313678,3.4101076197726656,7.743237652850554,4.7388457909017845
-1.1234651031159513,3.5357951115015345,7.790626110759572,4.69208912163824
-1.088107152000936,3.6533895433270005,7.837547001975954,4.635770095497418
-1.051573256567666,3.7626928647365316,7.883904702930929,4.569864402871529
-1.0139463279203007,3.8635406724145156,7.929603346959644,4.494379726102613
-0.9753109211961556,3.9557947866361434,7.97454714422067,4.409344243918081
-0.9357529733297941,4.039336633252786,8.018640586659851,4.31479726269576
-0.8953596069972662,4.11406201228943,8.061788559286809,4.210782615457372
-0.8542189868743719,4.179877708777599,8.103896385441383,4.0973452738988705
-0.8124202097865959,4.236700260935323,8.144869838180371,3.974531411281226
-0.7700532071772427,4.284457054089218,8.184615152293183,3.84239194424017
-0.7272086366363505,4.323089761473993,8.223039071735585,3.70098937512007
-0.6839777390216105,4.352560008175305,8.260048965486785,3.550407556119869
-0.6404521389398574,4.372856993373313,8.295553041047985,3.3907638043193766
