th1 (rad),w1 (rad/s),th2 (rad),w2 (rad/s),a1 (rad/s^2),a2 (rad/s^2)
3.1248008066148674,-1.5188623615226673,4.3661397018391,-2.264619633277563,1.1857450844406396,6.651897067140141
3.1096121829996406,-1.5070049106782608,4.343493505506324,-2.1981006626061617,0.8568897038727584,6.714066250196605
3.094542133892858,-1.4984360136395332,4.321512498880263,-2.1309600001041957,0.5362729318432817,6.766169936914962
3.0795577737564623,-1.4930732843211003,4.3002028988792205,-2.0632983007350463,0.22411988081218762,6.808343133175636
3.064627040913251,-1.4908320855129784,4.27956991587187,-1.9952148694032898,-0.07938550670652024,6.840634770594458
3.0497187200581215,-1.4916259405800436,4.259617767177837,-1.9268085216973452,-0.3740979068820773,6.863016544040886
3.034802460652321,-1.4953669196488644,4.240349681960864,-1.8581783562569363,-0.6599086240018289,6.875391535397418
3.0198487914558325,-1.5019660058888826,4.221767898398294,-1.789424440902962,-0.9367441387343511,6.877602556599304
3.0048291313969435,-1.511333447276226,4.203873653989264,-1.720648415336969,-1.2045651678969411,6.869440158810764
2.989715796924181,-1.5233790989551954,4.186667169835895,-1.6519540137488613,-1.463366204824972,6.850650265684222
2.9744820059346293,-1.538012761003445,4.170147629698406,-1.583447511092019,-1.713175506925925,6.820941396796946
2.959101878324595,-1.5551445160727044,4.154313154587486,-1.5152380971240496,-1.9540554948119677,6.7799914523763
2.9435504331638676,-1.574685071020824,4.139160773616245,-1.4474381826002864,-2.186103524922685,6.7274540322028065
2.9278035824536595,-1.5965461062700508,4.1246863917902425,-1.3801636422782584,-2.409452994317708,6.6629642601524735
2.911838121390959,-1.620640636213228,4.11088475536746,-1.3135339996767337,-2.6242747320790905,6.586144081429901
2.8956317150288267,-1.6468833835340189,4.097749415370692,-1.2476725588624347,-2.830778626477243,6.496606992604154
2.8791628811934866,-1.6751911697987913,4.085272689782068,-1.1827064889363932,-3.029215430909978,6.393962155786586
2.8624109694954987,-1.705483324107891,4.073445624892703,-1.1187668673785274,-3.2198786850201873,6.277817838614518
2.84535613625442,-1.7376821109580929,4.062257956218918,-1.0559886889923822,-3.403106680906803,6.14778411225084
2.827979315144839,-1.7717131777671609,4.051698069328994,-0.9945108478698738,-3.579284398656212,6.003474731628816
2.8102621833671675,-1.8075060217537229,4.041752960850295,-0.9344761005535855,-3.74884533126811,5.8445081169501485
2.7921871231496302,-1.844994475066404,4.03240819984476,-0.876031019384084,-3.912273117118169,5.670507354199153
2.7737371783989664,-1.8841172062375857,4.023647889650919,-0.8193259458420925,-4.070102898939957,5.481099136201757
2.7548960063365904,-1.9248182352269854,4.015454630192497,-0.7645149544800749,-4.222922332249953,5.2759115752877275
2.7356478239843205,-1.9670474585494848,4.007809480647697,-0.7117558387271976,-4.371372173219492,5.054570834298468
2.7159773493988255,-2.01076118028168,4.000691922260425,-0.661210130384213,-4.516146385914144,4.8166965445042935
2.695869737596009,-2.0559226441408214,3.994079820956583,-0.61304316493917,-4.6579917209160575,4.561896006529565
2.6753105111546005,-2.102502561349982,3.9879493893071913,-0.5674242048738743,-4.797706730619661,4.289757202843496
2.654285485541101,-2.1504796286561785,3.9822751472584526,-0.5245266328454394,-4.936140199655473,3.99984068670231
2.632780689254539,-2.1998410306527334,3.977029880929998,-0.4845282259784163,-5.074188980446119,3.691670451429706
2.6107822789480117,-2.2505829204571945,3.9721845986702142,-0.44761152146411926,-5.212795232210243,3.36472392442386
2.58827644974344,-2.302710872779297,3.967708483455573,-0.4139642822198807,-5.352943065170332,3.0184212712967926
2.565249341015647,-2.3562403034310004,3.963568840633374,-0.38378006950691274,-5.495654588748446,2.652114236452617
2.541686937981337,-2.4111968493184848,3.9597310399383048,-0.35725892714238655,-5.641985351793073,2.265074787046181
2.517574969488152,-2.4676167028364153,3.956158450666881,-0.33460817927192477,-5.793019143270954,1.8564838680595293
2.4928988024597882,-2.525546894269125,3.9528123688741617,-0.3160433405913295,-5.949862092583049,1.425420618229752
2.467643333517097,-2.585045515194955,3.9496519354682484,-0.301789134409032,-6.113635969257003,0.9708524413827602
2.4417928783651472,-2.6461818748875254,3.946634044124158,-0.2920806099952044,-6.285470532101349,0.4916263774914589
2.415331059616272,-2.7090365802085388,3.943713238024206,-0.2871643462202898,-6.466494718197584,-0.013537725066658705
2.3882406938141867,-2.773701527390515,3.940841594562003,-0.2872997234709564,-6.657826392937926,-0.546051667477145
2.3605036785402818,-2.840279791319894,3.9379685973272935,-0.2927602401457278,-6.860560304688233,-1.1074603407117298
2.332100880627083,-2.9088853943667763,3.9350409949258363,-0.3038348435528451,-7.075753803083993,-1.6994394065807858
2.3030120266834153,-2.979642932397616,3.9320026464903077,-0.320829237618653,-7.304409790659884,-2.323788369954796
2.2732155973594392,-3.052687030304215,3.928794354114121,-0.34406712131820094,-7.547456286628869,-2.9824180703982948
2.242688727056397,-3.1281615931705034,3.9253536829009392,-0.3738913020221839,-7.805721893631551,-3.6773314887469897
2.211407111124692,-3.206218812106819,3.9216147698807173,-0.4106646169096538,-8.079906379402471,-4.41059662724549
2.1793449230036237,-3.2870178759008435,3.9175081237116207,-0.45477058318210867,-8.370545524082148,-5.184310091307938
2.1464747442446153,-3.370723331141665,3.9129604178797996,-0.506613684095188,-8.677969351762965,-6.00054989255035
2.1127675109331987,-3.4575030246592946,3.907894281038848,-0.5666191830206916,-9.002252876649933,-6.861315928585465
2.0781924806866057,-3.547525553425794,3.902228089208641,-0.6352323423065462,-9.343158568626091,-7.76845660458672
2.0427172251523475,-3.640957139112055,3.8958757657855756,-0.7129169083524134,-9.700069902586614,-8.723580182115501
2.006307653761227,-3.737957838137921,3.8887465967020516,-0.8001527101735684,-10.071915626484815,-9.727949717113248
1.9689280753798477,-3.838676994402769,3.880745069600316,-0.8974322073447009,-10.457084792197442,-10.782360932279925
1.93054130543582,-3.9432478423247432,3.871770747526869,-1.0052558166675,-10.853333167456178,-11.887003112631788
1.8911088270125727,-4.051781173999305,3.861718189360194,-1.124125847793818,-11.257682406665166,-13.041304165915086
1.8505910152725795,-4.164357998065957,3.8504769308822557,-1.254538889452969,-11.666314311080658,-14.24376238621388
1.80894743529192,-4.281021141176764,3.837931541987726,-1.3969765133151077,-12.074463640366544,-15.49176920491584
1.7661372238801523,-4.401765777580429,3.823961776854575,-1.5518942053642661,-12.476314201193906,-16.78142926611188
1.722119566104348,-4.5265289195923675,3.8084428348009323,-1.719708498025385,-12.864904244022103,-18.107386413217633
1.6768542769084243,-4.655177962032589,3.7912457498206784,-1.9007823621575612,-13.232048403977517,-19.462666421962364
1.6303024972880984,-4.787498446072364,3.772237926199103,-2.095409026377185,-13.568284328715404,-20.83854926310314
1.5824275128273748,-4.923181289359518,3.751283835935331,-2.3037945190082163,-13.862852502522388,-22.224484929199956
1.5331956999337797,-5.061809814384742,3.728245890745249,-2.526039368300216,-14.103717338953118,-23.608066945269808
1.4825776017899324,-5.202846987774273,3.702985497062247,-2.762120037752914,-14.277636137871854,-24.975076124570315
1.4305491319121897,-5.345623349152992,3.6753642966847178,-3.011870798998617,-14.370279845026973,-26.30960353839886
1.3770928984206598,-5.489326147603261,3.6452455886947317,-3.2749668343826057,-14.366405747877952,-27.594255874220487
1.3221996369446272,-5.632990205082041,3.6124959203509057,-3.550909393124811,-14.250077582994072,-28.810438560017364
1.2658697348938068,-5.775490980911981,3.576986826419658,-3.8390137787249845,-14.004923625147812,-29.93870293187508
1.208114825084687,-5.91554021716346,3.538596688632408,-4.138400808043736,-13.614419100030695,-30.959134573880934
1.1489594229130524,-6.051684408163767,3.4972126805519705,-4.447992153782545,-13.062176872725571,-31.851752531828037
1.0884425788314147,-6.182306176891022,3.452732759014145,-4.7665096791008255,-12.332231038380051,-32.59688547662682
1.0266195170625045,-6.305628487274823,3.4050676622231366,-5.0924785338670935,-11.409302812108525,-33.175493122929446
0.9635632321897563,-6.419721515395908,3.354142876884466,-5.424233465096388,-10.279047513934318,-33.56941086922457
0.8993660170357972,-6.522511990535252,3.299900542233502,-5.759927573788634,-8.928295201847858,-33.76151333778698
0.8341408971304447,-6.611794942553731,3.2423012664956157,-6.097542707166504,-7.345314310012363,-33.73581750262149
0.7680229477049074,-6.685248085653854,3.1813258394239505,-6.434900882192719,-5.520145005533829,-33.477575986806436
0.7011704668483689,-6.7404495357091925,3.1169768306020234,-6.769676642060783,-3.445063185413655,-32.97344169058046
0.633765971491277,-6.774900167563329,3.0492800641814157,-7.099411058966587,-1.11524229337092,-32.211810242353344
0.5660169698156438,-6.786052590497039,2.97828595359175,-7.42152916139012,1.470327172681081,-31.183459404514604
0.4981564439106734,-6.771349318770228,2.904070661977849,-7.733363755435266,4.307627288250297,-29.882596107864195
0.4304429507229711,-6.7282730458877245,2.826737024423496,-8.032189716513908,7.386129214899233,-28.30838398571605
0.3631602202640939,-6.654411753738732,2.746415127258357,-8.31527355637107,10.687131327716003,-26.466951135624793
0.2966161027267066,-6.547540440461573,2.6632623916946465,-8.579943067727317,14.182112591666113,-24.373768945243743
0.23114069832209083,-6.405719314544911,2.5774629610173734,-8.823680757179755,17.831402202180325,-22.056157679706015
0.16708350517664172,-6.227405292523108,2.4892261534455757,-9.044242333976815,21.58355729501869,-19.55553653777689
0.10480945225141064,-6.011569719572921,2.3987837301058077,-9.239797699354584,25.375879235113036,-16.92893334934034
0.044693755055681426,-5.757810927221791,2.306385753112262,-9.409087032847987,29.136447064039697,-14.24924987487357
-0.012884354216536484,-5.466446456581394,2.212294882783782,-9.551579531596722,32.787877074868796,-11.603886228992847
-0.06754881878235043,-5.138567685832706,2.116779087467815,-9.66761839388665,36.25273334077435,-9.091580424708521
-0.1189344956406775,-4.776040352424963,2.0201029035289486,-9.758534198133736,39.460163157577874,-6.817689227944412
-0.16669489916492713,-4.381438720849184,1.9225175615476113,-9.82671109041318,42.35300517658668,-4.888545181293715
-0.21050928637341898,-3.9579086690833174,1.8242504506434796,-9.875596542226118,44.894427480349336,-3.4058576810199606
-0.25008837306425213,-3.508964394279824,1.7254944852212184,-9.909655119036318,47.07318590586187,-2.4622750013821295
-0.28517801700705037,-3.0382325352212054,1.6263979340308552,-9.934277869050138,48.906871620029925,-2.139134471722459
-0.31556034235926245,-2.5491638190209063,1.5270551553403537,-9.955669213767363,50.44297861090681,-2.5071280760940473
-0.3410519805494715,-2.044734032911838,1.4274984632026801,-9.980740494528304,51.7581371876049,-3.6302030907370857
-0.3614993208785899,-1.5271526610357893,1.327691058257397,-10.017042525435674,52.95627882651241,-5.572630091372572
-0.3767708474889478,-0.9975898727706651,1.2275206330030404,-10.0727688263494,54.16669208765883,-8.408885542028916
-0.38674674621665445,-0.45592295189407683,1.1267929447395464,-10.156857681769688,55.54278968277903,-12.235765403702061
-0.3913059757355952,0.09950494493371353,1.0252243679218496,-10.27921533580671,57.261753620949,-17.185669523945556
-0.3903109262862581,0.6721224811432036,0.9224322145637824,-10.451072031046165,59.52355399902304,-23.43843623103975
-0.383589701474826,1.2673580211334339,0.8179214942533208,-10.685456393356562,62.54369173430512,-31.224306337866143
-0.37091612126349166,1.892794938476485,0.7110669303197552,-10.997699456735223,66.52344195961659,-40.7969813667754
-0.35198817187872683,2.558029358072651,0.601089935752403,-11.405669270402976,71.55423571931821,-52.319131291886684
-0.32640787829800033,3.2735717152658332,0.48703324304837325,-11.928860583321843,77.34584397773835,-65.51024760329913
-0.293672161145342,4.047030155043217,0.3677446372151548,-12.583963059354835,82.52506360493685,-78.70584994638175
-0.2532018595949098,4.872280791092585,0.24190500662160647,-13.371021558818653,83.08847433122742,-86.73772040333714
-0.20447905168398395,5.703165534404859,0.10819479103341995,-14.238398762852023,70.2235014544602,-77.88207589247652
-0.14744739633993537,6.405400548949461,-0.03418919659510028,-15.017219521776788,32.22932893629004,-36.32481152113421
-0.08339339085044076,6.727693838312361,-0.18436139181286818,-15.38046763698813,-28.251038641535906,34.465920981252175
-0.016116452467317147,6.445183451897002,-0.33816606818274947,-15.035808427175608,-78.89236024778235,91.23563418982393
0.04833538205165287,5.656259849419178,-0.48852415245450553,-14.12345208527737,-95.89468966261809,103.36613951272938
0.10489798054584465,4.697312952792997,-0.6297586733072792,-13.089790690150076,-91.19103196532852,88.23172796378475
0.15187111007377463,3.7854026331397117,-0.7606565802087799,-12.207473410512229,-81.14161036288345,67.72953268492876
0.18972513640517175,2.973986529510877,-0.8827313143139022,-11.53017808366294,-72.14252263627263,49.82097526159028
0.21946500170028052,2.2525613031481506,-0.9980330951505316,-11.031968331047038,-65.38960120783427,35.62105121909448
0.24199061473176203,1.5986652910698078,-1.1083527784610019,-10.675757818856093,-60.63654274612061,24.52402623333813
0.2579772676424601,0.9922998636086017,-1.215110356649563,-10.430517556522712,-57.40766964386143,15.76686720711138
0.26790026627854613,0.4182231671699873,-1.31941553221479,-10.272848884451598,-55.28034295872424,8.753711089309443
0.272082497950246,-0.13458026241725507,-1.422144021059306,-10.185311773558503,-53.920227939705384,3.0713976841325317
0.2707366953260735,-0.673782541814309,-1.523997138794891,-10.154597796717178,-53.06380906708472,-1.551990537065178
0.26399886990793037,-1.204420632485156,-1.6255431167620626,-10.17011770208783,-52.496537655043646,-5.288259466043291
0.25195466358307883,-1.7293860090355926,-1.7272442937829409,-10.223000296748264,-52.03677753461869,-8.240969705575957
0.2346608034927229,-2.2497537843817796,-1.8294742967504236,-10.305409993804023,-51.52648442642557,-10.469555556120545
0.21216326564890509,-2.765018628646035,-1.9325283966884639,-10.410105549365229,-50.827652123860425,-12.008425159229134
0.18451307936244474,-3.2732951498846394,-2.036629452182116,-10.53018980095752,-49.82326794363121,-12.882943700321862
0.15178012786359835,-3.7715278293209513,-2.1419313501916912,-10.65901923796074,-48.42139017703993,-13.123072108943987
0.11406484957038883,-4.255741731091351,-2.2485215425712988,-10.790249959050179,-46.56071871830522,-12.774428780245632
0.07150743225947533,-4.721348918274403,-2.356424042161801,-10.917994246852635,-44.21577060844583,-11.905845857189325
0.024293943076731293,-5.163506624358861,-2.4656039846303273,-11.037052705424529,-41.39971357365646,-10.612271676411018
-0.02734112316685732,-5.577503760095426,-2.5759745116845725,-11.143175422188639,-38.16326275733122,-9.012242725170909
-0.08311616076781159,-5.959136387668738,-2.687406265906459,-11.233297849440348,-34.58888354503221,-7.240065969054714
-0.14270752464449898,-6.30502522311906,-2.7997392444008624,-11.305698509130895,-30.78071647682891,-5.434037695295006
-0.20575777687568958,-6.612832387887349,-2.912796229492171,-11.360038886083846,-26.85179022630325,-3.723025286869658
-0.2718861007545631,-6.881350290150381,-3.0263966183530098,-11.397269138952542,-22.91079872498594,-2.214120536056864
-0.3406996036560669,-7.110458277400241,-3.1403693097425354,-11.41941034431311,-19.050727754524548,-0.9836526982588952
-0.41180418643006933,-7.300965554945487,-3.2545634131856667,-11.4292468712957,-15.340961652083088,-0.07279770033771435
-0.4848138419795242,-7.454375171466317,-3.368855881898624,-11.429974848299077,-11.823488843709157,0.5122331108675703
-0.5593575936941874,-7.5726100599034085,-3.4831556303816145,-11.4248525171904,-8.512857541453029,0.7964405888210938
-0.6350836942932214,-7.657738635317939,-3.5974041555535186,-11.416888111302189,-5.398909954551949,0.8302152096774655
-0.7116610806464008,-7.711727734863459,-3.7115730366665405,-11.408585959205414,-2.451141385481599,0.6828822340097712
-0.7887783579950354,-7.7362391487182744,-3.8256588962585947,-11.401757136865317,0.37629315422385623,0.436636517599766
-0.8661407494822181,-7.7324762171760355,-3.939676467627248,-11.39739077168932,3.1395353263450296,0.18133829179657934
-0.9434655116539784,-7.701080863912585,-4.053650375344141,-11.395577388771354,5.900157719403314,0.010135464935527885
-1.0204763202931042,-7.642079286718552,-4.167606149231855,-11.395476034121998,8.720376517395291,0.015515249164668602
-1.0968971131602898,-7.554875521544599,-4.2815609095730744,-11.39532088163035,11.658067116700694,0.28520212357422975
-1.1724458683757357,-7.438294850377591,-4.395514118389378,-11.392468860394608,14.761293785155727,0.8973156826714868
-1.2468288168795116,-7.2906819125260345,-4.509438806993324,-11.383495703567894,18.062223958430405,1.9143849343736354
-1.319735636004772,-7.1100596729417305,-4.623273764029003,-11.364351854224157,21.570629544098633,3.376192536561453
-1.3908362327341894,-6.894353377500744,-4.736917282571245,-11.330589928858542,25.2676524309248,5.291982175535224
-1.459779766509197,-6.6416768531914965,-4.85022318185983,-11.277670107103189,29.101039933302353,7.633233478932984
-1.526196535041112,-6.350666453858473,-4.962999882930862,-11.20133777231386,32.98346290967903,10.328819287890422
-1.5897031995796966,-6.020831824761682,-5.075013260654,-11.098049579434955,36.79556693210394,13.264634269588555
-1.6499115178273134,-5.652876155440643,-5.185993756448349,-10.96540323673907,40.39483937956404,16.289420563866287
-1.7064402793817197,-5.248927761645002,-5.29564778881574,-10.802509031100406,43.630132962999646,19.227355483153783
-1.7589295569981698,-4.812626432015006,-5.403672879126744,-10.610235476268869,46.36001674787525,21.896178327912935
-1.8070558213183199,-4.349026264536254,-5.509775233889433,-10.39127369298974,48.47161234157958,24.127785448226724
-1.8505460839636825,-3.8643101411204577,-5.61368797081933,-10.149995838507474,49.89591977913695,25.787096405928633
-1.889189185374887,-3.365350943329088,-5.715187929204405,-9.892124874448188,50.616284277438,26.785183315598594
-1.9228426948081778,-2.859188100554708,-5.814109177948887,-9.624273041292202,50.66846201112374,27.084185337740344
-1.9514345758137248,-2.352503480443471,-5.910351908361809,-9.353431187914799,50.133006894767696,26.6937904946916
-1.9749596106181595,-1.8511734114957938,-6.0038862202409575,-9.086493282967883,49.12252779965923,25.661140985924966
-1.9934713447331174,-1.3599481334992016,-6.094751153070637,-8.829881873108633,47.76715190391737,24.057181711968564
-2.0070708260681096,-0.8822766144600278,-6.183049971801723,-8.589310055988948,46.20121364684596,21.962515480778233
-2.0158935922127097,-0.42026447799156824,-6.268943072361613,-8.369684901181166,44.55315950950468,19.45503432904808
-2.020096236992625,0.025267117103478565,-6.352639921373425,-8.175134557890686,42.93945577207157,16.60046905872491
-2.0198435658215903,0.45466167482419423,-6.434391266952331,-8.009129867303438,41.46232253253521,13.445980090745124
-2.0152969490733486,0.8692849001495464,-6.514482565625365,-7.8746700663959865,40.21056492399541,10.01623579963678
-2.0066041000718533,1.2713905493895006,-6.593229266289325,-7.774507708399619,39.26259810584386,6.3111251853384545
-1.9938901945779584,1.664016530447939,-6.670974343373321,-7.711396456546234,38.690822492866054,2.3042606466108326
-1.977250029273479,2.0509247553765997,-6.748088307938783,-7.688353850080126,38.56662172110028,-2.058324291661111
-1.9567407817197129,2.4365909725876027,-6.824971846439584,-7.708937092996737,38.96523063161661,-6.8593576020655345
-1.932374871993837,2.826243278903769,-6.9020612173695515,-7.777530669017392,39.96927216097501,-12.210425723882262
