th1 (rad),w1 (rad/s),th2 (rad),w2 (rad/s),a1 (rad/s^2),a2 (rad/s^2)
1.6168348500044631,-1.2916454245590687,6.092831233466397,-2.8660980573555594,-13.752751088542473,0.255320105528274
1.6039183957588725,-1.4291729354444935,6.064170252892842,-2.8635448563002766,-13.678266702293367,0.6948098079119149
1.5896266664044276,-1.5659556024674273,6.0355348043298385,-2.8565967582211576,-13.57731026275978,1.192481860306563
1.5739671103797535,-1.7017287050950252,6.006968836747627,-2.8446719396180917,-13.448167516522837,1.7476661518797312
1.5569498233288033,-1.8362103802602536,5.978522117351447,-2.8271952780992944,-13.28952421037066,2.359248895479329
1.5385877195262008,-1.9691056223639603,5.950250164570454,-2.803602789144501,-13.100518052220366,3.0256268472965036
1.5188966633025611,-2.1001108028861637,5.922214136679009,-2.7733465206715358,-12.88078944679073,3.7446701751578484
1.4978955552736994,-2.228918697354071,5.8944806714722935,-2.7358998189199575,-12.63052948703049,4.513695834656769
1.4756063683001588,-2.355223992224376,5.867121673283094,-2.6907628605733898,-12.35052365512737,5.3294533989581065
1.452054128377915,-2.47872922877565,5.84021404467736,-2.6374683265838086,-12.042189682550287,6.188125355994998
1.4272668360901584,-2.599151125601153,5.813839361411522,-2.5755870730238586,-11.707608039366741,7.08534393049329
1.4012753248341467,-2.7162272059948203,5.7880834906812835,-2.5047336337189257,-11.34954357648487,8.01622649370391
1.3741130527741985,-2.829722641759669,5.763036154344094,-2.4245713687818866,-10.971456945221577,8.975431566680832
1.3458158263566018,-2.9394372112118847,5.738790440656276,-2.3348170531150783,-10.57750458980478,9.957237269792538
1.316421454244483,-3.0452122571099327,5.715442270125125,-2.235244680417153,-10.17252638089628,10.955643782585435
1.2859693316733836,-3.1469375209188954,5.693089823320954,-2.125688242591299,-9.762020367468093,11.964500916271355
1.2544999564641945,-3.2445577245935766,5.671832940895041,-2.0060432334285854,-9.352104704982098,12.977661239906036
1.2220543792182588,-3.3380787716433975,5.6517725085607555,-1.876266621029525,-8.949467595823815,13.989158338793896
1.1886735915018247,-3.4275734476016355,5.63300984235046,-1.7363750376415859,-8.561307061992567,14.99340875411452
1.1543978570258084,-3.5131865182215614,5.615646091974044,-1.5864409501004406,-8.195263543408783,15.985435035845216
1.1192659918435928,-3.595139153655649,5.59978168247304,-1.4265865997419884,-7.85934963040999,16.96110626418474
1.0833146003070362,-3.673732649959749,5.5855158164756205,-1.256975537100141,-7.561882617329236,17.917391526029313
1.0465772738074386,-3.7493514761330413,5.572946061104619,-1.0778016218398478,-7.311426900660127,18.85262136291179
1.0090837590461081,-3.8224657451396427,5.562168044886221,-0.8892754082107299,-7.116754419706828,19.766752317219527
0.9708591015947117,-3.893633289336711,5.553275290804113,-0.6916078850385347,-6.986832226123995,20.661630527260495
0.9319227687013446,-3.963501611597951,5.546359211953728,-0.48499157976592966,-6.930846752979022,21.54125189252596
0.8922877525853651,-4.032810079127741,5.541509296156069,-0.26957906084067007,-6.958274315087138,22.412018523054172
0.8519596517940877,-4.102392822278612,5.538813505547663,-0.045458875610128346,-7.079006655905631,23.28299363878702
0.8109357235713016,-4.173182888837669,5.5383589167915614,0.18737106077774185,-7.30353868346415,24.166159075755488
0.7692038946829249,-4.246218275672311,5.540232627399339,0.42903265153529674,-7.643222323252337,25.07667978911645
0.7267417119262018,-4.322650498904834,5.544522953914692,0.6797994494264612,-8.110584418298588,26.033175921730425
0.6835152069371535,-4.40375634308782,5.551320948408956,0.9401312086437654,-8.719695272140473,27.057990995837635
0.6394776435062753,-4.490953295809224,5.560722260495394,1.2107111186021418,-9.486552657272746,28.177416959920485
0.594568110548183,-4.585818822381952,5.572829371681416,1.4924852882013466,-10.429403906764476,29.421778851729655
0.5487099223243636,-4.690112861449596,5.5877542245634295,1.7867030767186431,-11.568846727805422,30.825166482537266
0.5018087937098676,-4.80580132872765,5.605621255330616,2.094954741544016,-12.927390517528233,32.42437590009623
0.45375078042259115,-4.935075233902933,5.626570802746056,2.419198500544978,-14.52785389053081,34.25619124676806
0.4044000280835618,-5.080353772808241,5.650762787751506,2.7617604130126585,-16.389390640273614,36.3513162805817
0.35359649035547935,-5.244247679210977,5.678380391881633,3.1252735758184755,-18.51884640890404,38.72173477051145
0.30115401356336957,-5.429436143300017,5.709633127639817,3.51249092352359,-20.893194394449328,41.33554228928214
0.2468596521303694,-5.63836808724451,5.744758036875053,3.9258463464164115,-23.425594000039137,44.06881428472291
0.1904759712579243,-5.8726240272449015,5.784016500339217,4.366534489263641,-25.903435392776956,46.61825914884389
0.13174973098547527,-6.131658381172671,5.8276818452318535,4.832717080752079,-27.885202552707653,48.35638223546748
0.07043314717374854,-6.410510406699748,5.876009016039374,5.316280903106755,-28.558857157682215,48.13345112120339
0.006328043106751058,-6.69609897827657,5.9291718250704415,5.797615414318789,-26.637229648324116,44.13332299022198
-0.06063294667601464,-6.962471274759811,5.9871479792136295,6.238948644221009,-20.54779716113909,34.14642782366755
-0.13025765942361275,-7.167949246371202,6.049537465655839,6.580412922457684,-9.354750047747226,16.87644437818613
-0.20193715188732478,-7.261496746848674,6.115341594880416,6.749177366239546,5.637402486032234,-5.794346419926641
-0.27455211935581153,-7.205122721988351,6.182833368542812,6.691233902040279,20.356965376000296,-28.064796795613447
-0.346603346575695,-7.001553068228348,6.249745707563215,6.4105859340841445,30.48153901751875,-43.77351344345398
-0.4166188772579785,-6.69673767805316,6.313851566904057,5.9728507996496045,34.640911504641586,-50.93047241250684
-0.48358625403851013,-6.3503285630067445,6.373580074900553,5.463546075524536,34.330243169135734,-51.60990015215621
-0.5470895396685775,-6.007026131315387,6.428215535655799,4.947447074002974,31.7184688985746,-48.86418870636256
-0.6071598009817314,-5.689841442329641,6.477690006395829,4.458805186939348,28.334961139241955,-44.86285642609877
-0.6640582154050279,-5.406491830937221,6.522278058265222,4.010176622678361,24.963036136531223,-40.73033372713668
-0.7181231337144001,-5.156861469571909,6.562379824492005,3.602873285406994,21.918953774214483,-36.931792195183945
-0.7696917484101191,-4.9376719318297635,6.598408557346075,3.2335553634551544,19.289418729308764,-33.60508981333908
-0.8190684677284168,-4.744777744536676,6.630744110980626,2.8975044653217634,17.06437034763206,-30.747601184564648
-0.8665162451737836,-4.574134041060355,6.659719155633844,2.590028453476117,15.19984900385418,-28.30542998703492
-0.9122575855843871,-4.422135551021813,6.6856194401686055,2.3069741536057675,13.644925587369126,-26.212181671138758
-0.9564789410946052,-4.285686295148122,6.708689181704663,2.04485233689438,12.352059258149238,-24.404324478632937
-0.9993358040460865,-4.16216570256663,6.729137705073607,1.8008090921080506,11.280286268275468,-22.82632238758617
-1.0409574610717527,-4.049362839883875,6.747145795994688,1.572545868232189,10.395502963801649,-21.431549514244015
-1.0814510894705915,-3.9454078102458583,6.76287125467701,1.3582303730897487,9.669700415616344,-20.181623381384437
-1.1209051675730501,-3.848710806089695,6.7764535584079075,1.1564141392759044,9.079928614096486,-19.04527333137663
-1.1593922756339472,-3.7579115199487303,6.788017699800666,0.9659614059621381,8.607295266933408,-17.997189211418355
-1.1969713908334345,-3.671838567279396,6.797677313860287,0.7859895138479546,8.236102059674218,-17.017005548697682
-1.2336897765062285,-3.589477546682654,6.805537208998767,0.6158194583609777,7.953138234692843,-16.088455615173103
-1.269584551973055,-3.5099461643357253,6.811695403582377,0.4549349022092467,7.747120021312528,-15.198683181175733
-1.3046840136164124,-3.4324749641226,6.816244752604469,0.3029480703974894,7.608254928106677,-14.337685122437735
-1.3390087632576384,-3.356392414841533,6.819274233308444,0.15957121917311204,7.527909068689741,-13.497856631871425
-1.3725726874060538,-3.281113324154636,6.820869945500175,0.024592652854397795,7.4983578822899934,-12.673614351585679
-1.4053838206476001,-3.206129745331736,6.821115872028719,-0.102143490661459,7.512603498629629,-11.861077724343556
-1.4374451181009176,-3.13100371034544,6.820094437122105,-0.22075426790489455,7.5642447142881855,-11.057793788532207
-1.468755155204372,-3.055361263202558,6.817886894443056,-0.3313322057902166,7.647387852089274,-10.262494939812663
-1.4993087678363977,-2.978887384681665,6.814573572385154,-0.4339571551883432,7.756588672624067,-9.474882681180556
-1.5290976416832143,-2.9013214979554243,6.810234000833271,-0.5287059820001487,7.886817085006051,-8.695433072167965
-1.5581108566627686,-2.8224533271053636,6.804946941013269,-0.6156603127218284,8.033437757311345,-7.925221528533699
-1.5863353899338222,-2.74211894953225,6.798790337886051,-0.6949125280071654,8.19220093016554,-7.165765908535814
-1.6137565794291446,-2.6601969402305947,6.79184121260598,-0.7665701870925236,8.359238835662724,-6.418887558433602
-1.6403585488314505,-2.5766045518739675,6.7841755107350545,-0.8307590626768596,8.531064138501387,-5.6865902927038015
-1.6661245943501901,-2.4912939104889538,6.775867920108286,-0.8876249656038976,8.704567747989786,-4.970957268343747
-1.6910375334550796,-2.404248233009056,6.7669916704522475,-0.937334538287335,8.877014188219096,-4.274065486396961
-1.7150800157851702,-2.315478091126865,6.757618325069374,-0.9800751931513046,9.046033445055931,-3.597917314498579
-1.7382347966964389,-2.2250177566763054,6.747817573137861,-1.0160543662962904,9.209608820254939,-2.944388052383958
-1.7604849742632018,-2.132921668473756,6.7376570294748985,-1.04549824682013,9.366060808016009,-2.315188219215241
-1.7818141909479395,-2.0392610603935957,6.727202047006697,-1.0686501290122823,9.514027367995572,-1.7118389685132969
-1.8022068015518755,-1.9441207867136399,6.716515545716574,-1.0857685186974153,9.652441208634066,-1.1356588558915757
-1.821648009419012,-1.8475963746272992,6.7056578605296,-1.097125107256331,9.780504829194149,-0.5877601031091202
-1.840123973165285,-1.7497913263353577,6.694686609457037,-1.1030027082874223,9.897664115726979,-0.06905251330235558
-1.8576218864286385,-1.650814685178088,6.683656582374162,-1.103693233420446,10.003581264887188,0.41974671759100707
-1.8741300332804194,-1.5507788725292162,6.672619650039958,-1.099495766244536,10.098107739718504,0.8780988979988548
-1.8896378220057115,-1.449797795132031,6.661624692377512,-1.0907147772645474,10.181257861314615,1.3056268611161834
-1.9041357999570319,-1.347985216518885,6.650717544604867,-1.0776585086533854,10.253183525120992,1.7020963121840844
-1.9176156521222207,-1.2454533812676751,6.639940959518333,-1.0606375455315447,10.31415041293565,2.0673964908668108
-1.9300701859348974,-1.1423118771383187,6.629334584063018,-1.0399635806228766,10.364515960479958,2.401520930078115
-1.9414933047062806,-1.0386667175335191,6.618934948256789,-1.0159483713220956,10.404709241767856,2.704548903557031
-1.9518799718816158,-0.9346196251158405,6.608775464543568,-0.9889028822865252,10.435212848778763,2.9766279890293736
-1.9612261681327743,-0.8302674966280529,6.598886435720702,-0.9591366023962314,10.456546779376316,3.217958034648962
-1.9695288430990547,-0.7257020288342897,6.58929506969674,-0.9269570220497418,10.46925429766519,3.4287767039153962
-1.9767858633873976,-0.6210094858576378,6.580025499476243,-0.8926692550105879,10.47388969760862,3.609346686950588
-1.982995958245974,-0.5162705888815516,6.571098806926137,-0.856575788141082,10.47100788066266,3.75994460124218
-1.9881586641347895,-0.41156051007492506,6.562533049044726,-0.8189763421286602,10.461155649040817,3.8808515594047255
-1.9922742692355386,-0.3069489535845169,6.554343285623439,-0.7801678265346129,10.44486461558934,3.972345351574426
-1.9953437587713838,-0.20250030742862352,6.546541607358093,-0.7404443730188687,10.422645636851039,4.03469417216904
-1.9973687618456701,-0.09827385106011313,6.539137163627904,-0.7000974312971783,10.394984685690606,4.068151811558219
-1.9983515003562713,0.005675995796792926,6.532136189314932,-0.6594159131815961,10.362340092116328,4.072954229699648
-1.9982947403983033,0.10929939671795622,6.525542030183116,-0.6186863708845997,10.325141094237335,4.049317428388319
-1.9972017464311238,0.21255080766032958,6.51935516647427,-0.5781931966007164,10.283787654516923,3.9974365392399918
-1.9950762383545204,0.3153886842054988,6.513573234508263,-0.5382188312083165,10.23865150876038,3.9174860440677124
-1.9919223515124653,0.41777519929310264,6.508191046196179,-0.49904397076763934,10.190078425974056,3.8096210414376532
-1.9877445995195342,0.5196759835528432,6.503200606488503,-0.4609477603532628,10.138391665910135,3.67397946674272
-1.9825478396840057,0.6210599002119446,6.49859112888497,-0.4242079656858356,10.083896627478985,3.5106851621914497
-1.9763372406818862,0.7218988664867344,6.494349049228111,-0.38910111406392106,10.026886685119415,3.3198516769890887
-1.969118252017019,0.8221677333379286,6.490458038087472,-0.3559025972940302,9.967650211636567,3.1015866561878918
-1.9608965746836398,0.9218442354542943,6.486899012114532,-0.32488673073215124,9.906478785044298,2.855996648888861
-1.9516781323290968,1.0209090233047373,6.483650144807211,-0.29632676424326265,9.843676573818092,2.5831921325484286
-1.9414690420960494,1.1193457890429181,6.480686877164778,-0.27049484291777837,9.779570890073744,2.283292510121692
-1.9302755842056203,1.2171414979436557,6.4779819287356,-0.24766191781656144,9.714523894137944,1.9564307908977758
-1.9181041692261838,1.314286736885035,6.475505309557435,-0.22809760990758368,9.648945427617779,1.6027576145923257
-1.9049613018573335,1.410776191161213,6.473224333458359,-0.21207003376166042,9.583306946557485,1.2224442222048455
-1.8908535399457214,1.5066092606267878,6.471103633120742,-0.19984559153961196,9.518156523099732,0.81568391716666
-1.8757874473394536,1.601790825857785,6.469105177205345,-0.19168875236794536,9.454134885161784,0.38269149738918373
-1.8597695390808757,1.696332174709403,6.467188289681666,-0.18786183739405352,9.391992471369475,-0.0762999259657439
-1.8428062173337816,1.7902520994230977,6.465309671307726,-0.18862483665371096,9.332607495733383,-0.5610453728279409
-1.8249036963395506,1.8835781743804316,6.463423422941189,-0.19423529038199036,9.277005046687586,-1.0712984172795637
-1.8060679145957463,1.9763482248473074,6.46148107003737,-0.204948274554786,9.226377292048001,-1.6068263705710994
-1.7863044323472732,2.0686119977677873,6.459431587291822,-0.221016538260497,9.182104929593661,-2.1674310713857423
-1.7656183123695954,2.160433047063724,6.4572214219092166,-0.24269084897435442,9.145780117208021,-2.7529761988755346
-1.7440139818989582,2.251890848235804,6.454794513419473,-0.2702206109631098,9.119231242127759,-3.363422097731927
-1.7214950734166001,2.343083160657082,6.452092307309842,-0.30385483194042906,9.104550051455337,-3.9988691890982873
-1.6980642418100294,2.434128661171635,6.449053758990438,-0.3438435238314119,9.104121871534652,-4.65961114401943
-1.673722955198313,2.5251698798869815,6.445615323752124,-0.39043963527160624,9.120659897920879,-5.346199127182538
-1.6484712563994433,2.61637647886619,6.4417109273994075,-0.4439016265434316,9.15724484599471,-6.059518589662323
-1.6223074916107814,2.7079489273261372,6.437271911133974,-0.5044968124400548,9.217371619176623,-6.800880312664323
-1.59522800233752,2.8001226435179034,6.432226943009573,-0.5725056155666981,9.30500507897146,-7.572127690337708
-1.567226775902341,2.893172694307618,6.426501886853906,-0.6482268924700751,9.424647484845243,-8.37576259193999
-1.5382950489592648,2.9874191691560705,6.4200196179292055,-0.7319845183894751,9.581420696708287,-9.215092548409707
-1.508420857267704,3.0832333761231534,6.41269977274531,-0.8241354438735722,9.781166759912416,-10.094402417265835
-1.4775885235064725,3.1810450437222775,6.404458418306574,-0.9250794680462305,10.030570938491449,-11.01915397631634
-1.4457780730692498,3.281350753107192,6.395207623626112,-1.0352710078093939,10.337311456943327,-11.996216836054238
-1.412964565538178,3.3847238676766254,6.3848549135480175,-1.1552331761699361,10.710239820722624,-13.034133157995676
-1.3791173268614116,3.4918262658838515,6.3733025817863185,-1.2855745077498928,11.159593969370468,-14.143415990462788
-1.3441990642025732,3.603422205577556,6.360446836708819,-1.4270086676545206,11.69724245411504,-15.33687482366142
-1.3081648421467975,3.7203946301187063,6.346176750032274,-1.5803774158911348,12.33694901888011,-16.62994891610148
-1.2709608958456104,3.8437641203075072,6.330372975873363,-1.7466769050521496,13.094629058041987,-18.0410028624175
-1.2325232546425353,3.974710410887927,6.312906206822841,-1.9270869336763246,13.988534261329832,-19.591488170779908
-1.192776150533656,4.114595753501225,6.293635337486078,-2.1230018153841237,15.039234016575648,-21.30577763767405
-1.1516301929986439,4.2649880936669815,6.272405319332237,-2.336059591760864,16.269133227785176,-23.210295741539536
-1.1089803120619741,4.4276794259448335,6.249044723414628,-2.568162549176259,17.70102337486893,-25.33122396695131
-1.0647035178025257,4.6046896596935225,6.223363097922865,-2.821474788845772,19.354712119370717,-27.68942196933251
-1.0186566212055905,4.79823678088723,6.195148350034407,-3.0983690085390974,21.239955522838166,-30.29004847287195
-0.9706742533967182,5.010636336115612,6.164164659949017,-3.401269493267817,23.34248564496874,-33.102354783215894
-0.920567890035562,5.244061192565299,6.1301519650163385,-3.7322930410999757,25.597646350944906,-36.021930688544984
-0.8681272781099091,5.500037656074748,6.092829034605339,-4.0925123479854255,27.84325430634665,-38.80365193000471
-0.8131269015491616,5.778470199138215,6.051903911125485,-4.4805488672854725,29.74220027301043,-40.952138302743876
-0.7553421995577794,6.075892201868319,6.00709842245263,-4.890070250312911,30.675278048371645,-41.57081332989417
-0.6945832775390962,6.382644982352035,5.958197719949501,-5.3057783836118535,29.650111036600876,-39.23502003947202
-0.6307568277155758,6.679146092718044,5.9051399361133825,-5.698128584006573,25.38773654376415,-32.118243260333784
-0.5639653667883954,6.933023458155685,5.848158650273317,-6.019311016609911,16.88999192042992,-18.800242189953075
-0.4946351322068385,7.101923377359984,5.787965540107217,-6.207313438509441,4.59510686149373,0.09158660924478036
-0.42361589843323866,7.147874445974922,5.725892405722123,-6.206397572416994,-8.806291870829964,20.72037232476126
-0.35213715397348944,7.059811527266622,5.663828429997953,-5.999193849169381,-19.559934329157308,37.71528452550417
-0.2815390387008232,6.864212183975049,5.60383649150626,-5.622041003914339,-25.47951909447656,47.900362878617116
-0.2128969168610727,6.609416993030283,5.547616081467116,-5.143037375128168,-26.94242084591855,51.728320028567786
-0.1468027469307699,6.3399927845710975,5.496185707715835,-4.62575417484249,-25.601914393708388,51.4838323675491
-0.08340281908505891,6.083973640634014,5.44992816596741,-4.110915851166999,-22.97959205212244,49.29615700957007
-0.022563082678718767,5.854177720112789,5.40881900745574,-3.617954281071299,-20.012410428787632,46.48683805960971
0.03597869452240912,5.654053615824912,5.372639464645028,-3.153085900475202,-17.16011444610587,43.7093625109853
0.09251923068065825,5.482452471363853,5.341108605640276,-2.7159922753653487,-14.607042351812089,41.2273293618012
0.14734375539429678,5.336382047845732,5.313948682886623,-2.3037189817473367,-12.403453827401444,39.11132145236879
0.20070757587275412,5.2123475095717176,5.290911493069149,-1.9126057672236487,-10.542193981458166,37.34662058327893
0.2528310509684713,5.106925569757136,5.271785435396913,-1.5391395613908594,-8.995577200089313,35.88567434759321
0.3039003066660427,5.016969797756243,5.256394039783004,-1.1802828179149274,-7.731705005902789,34.671867688448
