th1 (rad),w1 (rad/s),th2 (rad),w2 (rad/s)
5.311746925378173,0.7238770229321542,0.467051104549515,-2.7672144366651015
5.318985695607494,0.847073306843722,0.439378960182864,-2.832785825276467
5.327456428675931,0.9729547083427785,0.4110511019300993,-2.9024997128114483
5.3371859757593585,1.1017938225976074,0.38202610480198484,-2.977031279069476
5.348203913985334,1.2339193094922987,0.3522557920112901,-3.057111383374049
5.360543107080257,1.3697219774430094,0.3216846781775496,-3.143534608012996
5.374240326854688,1.5096609445852966,0.29024933209741965,-3.237167782189885
5.38933693630054,1.6542693801851311,0.2578776542755208,-3.338958295852555
5.405879630102391,1.8041588868768748,0.22448807131699522,-3.449940901017297
5.42392121897116,1.9600208333033091,0.18998866230682226,-3.571240658015506
5.443521427304193,2.122621685289224,0.1542762557266672,-3.70406793319458
5.464747644157086,2.2927872883923883,0.1172355763947214,-3.8496984391540607
5.487675517041009,2.471367624617667,0.07873859200318079,-4.009426523694437
5.512389193287186,2.6591680758620613,0.03864432676623642,-4.184472234679948
5.538980874045807,2.8568247686165327,-0.0032003955805630577,-4.375810824238282
5.567549121731973,3.064589429802302,-0.04695850382294588,-4.583876260732605
5.598195016029996,3.281974138026436,-0.09279726643027193,-4.808069017627241
5.63101475741026,3.507194301715392,-0.14087795660654434,-5.045981039712345
5.666086700427414,3.7363582179695913,-0.19133776700366778,-5.292263921481462
5.703450282607109,3.9624293660835668,-0.24426040621848238,-5.5371738846795875
5.743074576267945,4.174213053524075,-0.29963214506527824,-5.765141229114582
5.784816706803186,4.356056951552719,-0.3572835573564241,-5.954324296819312
5.828377276318713,4.489444901489992,-0.4168268003246172,-6.078795792440549
5.8732717253336135,4.557479015194105,-0.4776147582490227,-6.11475778326267
5.918846515485555,4.551361870402182,-0.5387623360816494,-6.04955654849559
5.964360134189577,4.475068117871165,-0.5992579015666053,-5.888190441270777
6.009110815368288,4.344193644478526,-0.6581398059793131,-5.651726645618703
6.0525527518130735,4.179539247231899,-0.7146570724355001,-5.368414066797812
6.094348144285393,4.000255931600349,-0.7683412131034782,-5.064210980457252
6.134350703601396,3.8202726960679234,-0.8189833229080508,-4.757879715006531
6.1725534305620755,3.648034122146397,-0.8665621200581161,-4.460660306671159
6.209033771783539,3.487808241445064,-0.9111687231248277,-4.178098622268062
6.243911854197989,3.3411904378315946,-0.9529497093475083,-3.912128058702739
6.277323758576306,3.2082567066399124,-0.9920709899345357,-3.6626564471714183
6.309406325642705,3.0883071611717003,-1.0286975544062498,-3.4285832533536915
6.340289397254422,2.980300482471929,-1.0629833869397867,-3.208390064625189
6.370092402079141,2.883090616111445,-1.0950672875860386,-3.0004596724108534
6.3989233082402555,2.7955471330162944,-1.125071884310147,-2.8032365027672483
6.426878779570418,2.7166105986101527,-1.1531042493378196,-2.615299075113533
6.45404488555652,2.6453130873937227,-1.179257240088955,-2.4353857211663423
6.480498016430458,2.580780835499103,-1.2036110973006184,-2.262396644517154
6.506305824785449,2.522228358642147,-1.22623506374579,-2.0953848704903315
6.53152810837187,2.4689490353260783,-1.2471889124506932,-1.9335427224006787
6.556217598725131,2.4203047586352384,-1.2665243396747,-1.7761872059423554
6.580420646311484,2.3757159517823583,-1.2842862117341234,-1.6227459211463313
6.604177805829307,2.3346525389992423,-1.3005136709455867,-1.4727441844214817
6.627524331219299,2.2966260924953645,-1.3152411127898014,-1.3257935586786649
6.650490592144253,2.2611831868056624,-1.328499048376588,-1.1815817509841822
6.67310242401231,2.2278999002343047,-1.3403148658864297,-1.0398637309677596
6.695381423014653,2.196377363182711,-1.3507135031961073,-0.9004538870106589
6.71734519664648,2.166238239693715,-1.3597180420662138,-0.763219037024692
6.739007579043418,2.13712402789638,-1.3673502324364608,-0.6280721279028949
6.760378819322382,2.1086930699774733,-1.3736309537154898,-0.4949664824878247
6.781465750022156,2.080619169184152,-1.3785806185403682,-0.3638904798106162
6.802271941713998,2.052590718491586,-1.3822195233384744,-0.23486258055565884
6.822797848898913,2.0243102523241157,-1.384568149144031,-0.10792663369802155
6.843040951422155,1.9954943390204003,-1.3856474154810112,0.01685257874074572
6.862995894812359,1.9658737377524453,-1.3854788896936037,0.1393935842566315
6.882654632189883,1.9351937495922797,-1.3840849538510374,0.2596022611033897
6.902006569685806,1.9032146985922906,-1.3814889312400034,0.3773756790051404
6.921038716671729,1.8697124852522848,-1.377715174449952,0.4926057329506228
6.939735841524252,1.8344791616335043,-1.3727891171204458,0.605182559594025
6.958080633140587,1.79732348458821,-1.3667372915245055,0.7149977244237226
6.976053867986469,1.758071410952866,-1.3595873142802684,0.8219471687422443
6.993634582095997,1.7165665058852877,-1.351367842592846,0.9259339080859623
7.01080024715485,1.6726702425554216,-1.3421085035119864,1.026870477425744
7.0275269495804045,1.6262621778643858,-1.331839798737729,1.1246811227600233
7.043789571359048,1.5772399945314968,-1.3205929875101288,1.2193037430144014
7.059561971304364,1.525519404570897,-1.3083999500799848,1.3106915900528335
7.074817165350073,1.4710339127662273,-1.2952930341794564,1.3988147377499547
7.089527504477735,1.413734441213726,-1.2813048868019568,1.4836613332650153
7.1036648488898715,1.3535888173947177,-1.2664682734693067,1.5652386448223596
7.117200737063818,1.290581128687213,-1.250815887021083,1.6435739204974738
7.130106548350691,1.2247109459240666,-1.2343801478161083,1.7187150719005595
7.142353657809931,1.1559924177835166,-1.2171929970971027,1.7907311954991056
7.153913581987766,1.0844532367059605,-1.1992856851421116,1.859712942942898
7.164758114354825,1.0101334759101732,-1.1806885557126827,1.925772750490065
7.174859449113927,0.9330842961437893,-1.161430828207782,1.989044936813588
7.184190292075365,0.8533665202068346,-1.1415403788396463,2.049685678388548
7.192723957277433,0.7710490731271809,-1.1210435220557609,2.107872872552979
7.200434448008705,0.6862072861611775,-1.099964793330231,2.1638059003519055
7.207296520870317,0.5989210634809851,-1.078326734326712,2.2177053044798014
7.213285731505127,0.5092729113570981,-1.056149681281914,2.2698124020099946
7.218378460618697,0.4173458306498503,-1.0334515572618141,2.3203888570433238
7.222551918925196,0.32322107423637036,-1.0102476686913808,2.369716244768299
7.225784129667559,0.22697577133567962,-0.9865505062436979,2.4180956455143363
7.228053887380916,0.12868042025682097,-0.9623695497885545,2.465847315008184
7.229340691583484,0.028396249590242187,-0.9377110766384726,2.5133104850480454
7.2296246540793865,-0.07382755498075096,-0.9125779717879922,2.5608433570821796
7.228886378529579,-0.1779567654921057,-0.8869695382171704,2.608823359690143
7.227106810874658,-0.2839751815714802,-0.860881304620269,2.6576477497817574
7.224267059058944,-0.3918878769202382,-0.8343048271224515,2.707734646617456
7.220348180289742,-0.5017246540760572,-0.8072274806562769,2.7595245977684324
7.215330933748981,-0.6135437512784163,-0.7796322346785926,2.813482787184862
7.209195496236197,-0.7274358593575966,-0.7514974068067439,2.870102007920349
7.201921137642621,-0.8435285223623769,-0.7227963867275404,2.9299065359282954
7.1934858524189975,-0.9619910125801422,-0.6934973213682575,2.9934570565059317
7.183865942293196,-1.0830397875833404,-0.6635627508031982,3.0613568104924997
7.173035544417363,-1.20694465185233,-0.6329491826982732,3.134259140930564
7.16096609789884,-1.3340357544561918,-0.6016065912889675,3.2128766277607386
7.147625740354278,-1.4647115500470416,-0.5694778250113601,3.2979919889183362
7.132978624853807,-1.5994478200747113,-0.5364979051221768,3.390470883590565
7.11698414665306,-1.7388077714180112,-0.5025931962862711,3.491276645799529
7.0995960689388795,-1.883453059128239,-0.4676804298282758,3.6014867471093512
7.0807615383475975,-2.0341552451052403,-0.4316655623571823,3.7223103346704467
7.060419985896545,-2.1918065749547453,-0.3944424590104778,3.8551053346077153
7.038501920146998,-2.357427801066937,-0.35589140566440064,4.001392031553366
7.014927642136328,-2.532168698117761,-0.31587748534886695,4.162857171480498
6.989605955155151,-2.7172932106548577,-0.27424891363406195,4.3413375129101714
6.962433023048602,-2.914134665962479,-0.23083553850496025,4.538762723848245
6.933291676388977,-3.1239952958289936,-0.1854479112664778,4.757021939328882
6.902051723430687,-3.3479457314646273,-0.137877691873189,4.99769232893456
6.868572266116041,-3.586451268142768,-0.08790076858384338,5.261527521620549
6.832707753434613,-3.8387127947292847,-0.03528549336763789,5.547548848400238
6.79432062548732,-4.101575864994603,0.02018999511636449,5.851533037419105
6.753304866837373,-4.3678887579407615,0.07870532549055553,6.163725903662272
6.709625979257966,-4.62443106744697,0.14034258452717824,6.465944420889004
6.663381668583496,-4.850253406857314,0.20500202873606826,6.729231002852377
6.614879134514923,-5.017565643748156,0.272294338764592,6.915036246464342
6.564703478077441,-5.098104432328401,0.3414447012292354,6.984022285345166
6.5137224337541575,-5.075131523773067,0.4112849240826871,6.912709452327255
6.4629711185164265,-4.953846495730735,0.4804120186059596,6.7079189844208145
6.413432653559119,-4.759983105867653,0.5474912084501677,6.404790741500417
6.365832822500442,-4.526902840657341,0.611539115865172,6.048875477970711
6.320563794093869,-4.2827691828711,0.672027870644879,5.6784318483251495
6.277736102265158,-4.045586812723534,0.7288121891281305,5.317671944802466
6.2372802341379225,-3.824465357248119,0.7819889085761552,4.978597568094291
6.199035580565441,-3.622752371039181,0.8317748842570981,4.665367704797415
6.16280805685505,-3.440671831815602,0.8784285613050723,4.377943118909678
6.128401338536894,-3.276987603163349,0.9222079924941691,4.114366783826601
6.095631462505261,-3.1299118576198954,0.9633516603324351,3.871998418787857
6.0643323439290615,-2.997555654892785,1.0020716445203137,3.648119553122143
6.034356787380133,-2.8781314121239197,1.0385528400515351,3.4402001783071565
6.005575473258894,-2.7700296052230193,1.0729548418346067,3.245995552016573
5.977875177206664,-2.671835213593165,1.1054147973547723,3.063562768264074
5.951156825070732,-2.582317377186266,1.136050425037413,2.8912424811729274
5.925333651298869,-2.50040878188359,1.1649628498491422,2.72762791912237
5.9003295634800335,-2.4251826130643312,1.192239129040366,2.5715315099209275
5.87607773734939,-2.355830573639894,1.2179544441395753,2.421953572539478
5.852519431612991,-2.291643335587126,1.24217397986497,2.2780546915338373
5.829602998257119,-2.231993785207137,1.2649545267803084,2.139132067319058
5.807283060405048,-2.176322970972425,1.286345847453499,2.00459956228494
5.785519830695324,-2.124128484382115,1.3063918430763484,1.8739709531865136
5.764278545851503,-2.0749549552368287,1.3251315526082135,1.7468458611452746
5.743528996299134,-2.0283863514160183,1.3426000112196663,1.6228978663300069
5.7232451327849745,-1.984039804287166,1.3588289898829664,1.5018643784636254
5.703404734742103,-1.9415607174848162,1.3738476336676027,1.3835379048633847
5.683989127567254,-1.9006189514879388,1.3876830127162365,1.2677584251007779
5.664982938052375,-1.8609059063713709,1.4003605969672444,1.1544066417991459
5.646373878988661,-1.8221323497500008,1.411904663385236,1.0433979295349518
5.628152555491161,-1.7840268567549484,1.4223386426805855,0.9346768483936987
5.6103122869236115,-1.7463347447815516,1.4316854111645225,0.8282121259809101
5.592848939475796,-1.7088173987346846,1.4399675324243317,0.7239920422057288
5.575760765488449,-1.6712518935138376,1.447207452846389,0.6220201755006524
5.559048246553311,-1.6334308303335503,1.4534276546013956,0.5223114878192938
5.5427139382499755,-1.5951623127892054,1.4586507694795885,0.424888739239453
5.526762315122084,-1.5562699977850614,1.462899656871983,0.3297792317770084
5.511199615144233,-1.5165931657816631,1.4661974491897531,0.23701188661855294
5.4960336834864165,-1.475986764360904,1.4685675680559387,0.14661466000375206
5.481273815842807,-1.4343213887705684,1.470033714655976,0.05861230109534395
5.466930601955101,-1.3914831727071562,1.4706198376669295,-0.026975548919878925
5.4530157702280295,-1.3473735718665871,1.4703500821777307,-0.11013592281475551
5.439542034509364,-1.3019090314476756,1.4692487229495832,-0.19086377100652163
5.426522944194887,-1.2550205365519327,1.467340085239518,-0.26916290193259074
5.413972738829368,-1.206653051044194,1.464648456220192,-0.3450466439738368
5.401906208318926,-1.1567648557441317,1.4611979897804537,-0.4185382586787305
5.390338559761485,-1.1053268007083752,1.4570126071936664,-0.4896711386400721
5.379285291754401,-1.0523214888176127,1.4521158958072657,-0.558488825486234
5.368762076866226,-0.9977424089607707,1.4465310075524034,-0.6250448840140056
5.358784652776618,-0.9415930369336815,1.4402805587122633,-0.6894026675712949
5.349368722407281,-0.8838859209186106,1.4333865320365504,-0.751635007552204
5.340529863198094,-0.8246417662942708,1.4258701819610284,-0.8118238565226061
5.332283445535151,-0.7638885317718906,1.4177519433958023,-0.8700599103252217
5.324644560217433,-0.7016605456924888,1.40905134429255,-0.9264422298151429
5.317627954760508,-0.6379976479745023,1.3997869219943986,-0.9810778779470932
5.311247978280763,-0.5729443598702979,1.3899761432149276,-1.0340815830569456
5.30551853468206,-0.5065490805491853,1.379635327384358,-1.085575434607837
5.300453043876568,-0.43886330671686447,1.3687795730382797,-1.135688613626252
5.296064410809399,-0.3699408691172165,1.3574226869020172,-1.1845571567164292
5.292365002118227,-0.2998371779186048,1.3455771153348528,-1.2323237500505717
5.289366630339041,-0.228608467706233,1.333253877834347,-1.2791375481825658
5.287080545661978,-0.15631103209438824,1.3204625023525214,-1.325154011976177
5.285517435341035,-0.08300043781525997,1.3072109622327597,-1.3705347603852818
5.284687430962882,-0.008730708481402893,1.2935056146289068,-1.4154474322441595
5.284600123878068,0.06644653102520905,1.2793511403064652,-1.4600655565541847
5.28526458918832,0.1424829575217686,1.2647504847409234,-1.5045684328910154
5.286689418763538,0.2193345065971747,1.2497048004120133,-1.5491410273788813
5.288882763829509,0.2969623892728125,1.2342133901382244,-1.5939738940426318
5.291852387722237,0.37533417261478674,1.218273651197798,-1.6392631361020717
5.2956057294483845,0.45442492785410743,1.2018810198367773,-1.6852104267683634
5.3001499787269255,0.5342184492546951,1.1850289155690936,-1.7320231142072726
5.305492163219473,0.6147085473148451,1.1677086844270208,-1.7799144404484102
5.311639248692621,0.6959004210601434,1.1499095400225368,-1.8291039090890333
5.3185982529032225,0.7778121163377794,1.1316185009316464,-1.8798178416713445
5.326376374066601,0.8604760802950303,1.112820322514933,-1.9322901676825777
5.334981134869551,0.943940826750204,1.0934974208381072,-1.9867634984004212
5.344420543137053,1.0282727330703945,1.073629785854103,-2.0434905405377064
5.354703270467757,1.1135579965893472,1.0531948804487261,-2.102735912182666
5.365838850433651,1.1999047876780082,1.0321675213268995,-2.1647784313372638
5.377837898310431,1.2874456474938538,1.0105197370135268,-2.2299139569770903
5.39071235478537,1.3763401913922004,0.9882205974437559,-2.298458874633248
5.404475756699291,1.4667781942299856,0.9652360086974234,-2.3707543337424397
5.419143538641591,1.5589831515995558,0.941528465359999,-2.4471713631717624
5.434733370157587,1.6532164316437536,0.9170567517282814,-2.528117015100099
5.451265534474024,1.749782155643971,0.8917755815772804,-2.614041716330888
5.468763356030464,1.8490329718201426,0.8656351644139716,-2.705448040131587
5.487253685748665,1.95137691476645,0.8385806840126557,-2.8029011498029366
5.5067674548963295,2.057285570178699,0.8105516725146263,-2.9070412042386837
5.527340310598117,2.167303785567589,0.7814812604722395,-3.0185980485598645
5.5490133484537925,2.282061171462976,0.7512952799866409,-3.1384085246517435
5.571833960168422,2.4022856027027775,0.7199111947401234,-3.2674366978920313
5.595856816195449,2.5288188148217796,0.6872368277612031,-3.4067971515618414
5.621145004343667,2.662633919297181,0.6531688562455846,-3.557781143603494
5.647771343536639,2.8048540896329253,0.6175910448095497,-3.721884653216115
5.675819884432968,2.9567705305050382,0.5803721982773886,-3.900835797230063
5.705387589738018,3.119855639207194,0.541363840305088,-4.096616081014471
5.73658614613009,3.295763092074913,0.5003976794949433,-4.3114641988626765
5.769543777050839,3.4862987894526296,0.45728303750631655,-4.547840312957767
5.804406764945366,3.6933322736400096,0.41180463437673887,-4.80830886247147
5.841340087681766,3.9185926198094703,0.36372154575202414,-5.095262277892371
5.8805260138798605,4.163249114755163,0.31276892297310044,-5.4103469326339715
5.922158505027412,4.4271095048839255,0.25866545364676075,-5.7533579462502935
5.966429600076252,4.707186958229188,0.20113187418425782,-6.120254224341375
6.013501469658544,4.995363590559242,0.13992933194084406,-6.499909965321567
6.063455105564136,5.275159231608989,0.07493023228762838,-6.869606935495375
6.1162066978802265,5.518739720264494,0.006234162932674633,-7.1908402460062915
6.171394095082872,5.68772168850428,-0.06567423952738828,-7.410395661968979
6.228271311967914,5.743257975872057,-0.13977819614707807,-7.474355088392547
6.285703891726635,5.665756374738365,-0.21452174703100352,-7.355519820532379
6.342361455474018,5.469958143541349,-0.2880769452363273,-7.0743269824249015
6.397061036909432,5.197660491500505,-0.3588202150605763,-6.688615711953156
6.449037641824437,4.894411352319254,-0.4257063721801079,-6.261205795087433
6.497981755347629,4.5927626791682234,-0.4883184301309822,-5.836757196064362
6.5439093821393115,4.309865963042119,-0.5466860020916258,-5.438588983182954
6.5870080417697325,4.052156532581317,-0.6010718919234553,-5.075265926741614
6.627529607095545,3.820320560245165,-0.6518245511908715,-4.747503243756284
6.665732812697997,3.6124963805675154,-0.6992995836284343,-4.452587278358459
6.701857776503672,3.425953119293879,-0.7438254564120188,-4.186677311318951
6.736117307696611,3.257866113785524,-0.7856922295252083,-3.9458587480516796
6.768695968834467,3.105631697165705,-0.8251508170057251,-3.7265636228426846
6.799752285806124,2.9669662800183576,-0.862416453234152,-3.525697191206033
6.829421948606308,2.8399117370242073,-0.8976734251462123,-3.3406383388525307
6.85782106597655,2.72280451449424,-0.9310798085347376,-3.169192170323557
6.885049111121492,2.6142342705657433,-0.9627717302379731,-3.0095296547309776
6.91119145382715,2.513002959403793,-0.9928670267852829,-2.860128832221101
6.936321483421188,2.4180884394762963,-1.021468315107494,-2.7197228195614183
6.960502367815951,2.328613662941054,-1.048665543303108,-2.587255801902552
6.983788504445362,2.2438212481238295,-1.0745381013221336,-2.4618465510324103
7.0062267169266,2.163052786081871,-1.0991565668324577,-2.34275844799076
7.027857244787419,2.0857321337970194,-1.1225841513123653,-2.229374895008695
7.048714566125389,2.0113519914024818,-1.1448779002624523,-2.1211790957006103
7.068828086039414,1.9394631540799518,-1.1660896912194585,-2.0177373362732918
7.088222717580213,1.869665929604204,-1.1862670645821913,-1.918685059779902
7.106919376876255,1.8016033036400039,-1.2054539151799903,-1.823715169029209
7.124935409912655,1.7349555118172426,-1.2236910668702825,-1.7325681154376618
7.142284965030827,1.6694357402277213,-1.2410167480246592,-1.6450234309126013
7.158979322433104,1.604786726099285,-1.2574669823337852,-1.5608924401037987
7.175027189694097,1.5407780703350522,-1.2730759067348232,-1.4800119539359937
7.1904349703974475,1.4772041056137182,-1.287876026274183,-1.4022387949691524
7.205207011453584,1.4138821897848564,-1.3018984142238745,-1.3274450431894746
7.219345833351433,1.3506513159416789,-1.3151728646557692,-1.2555139192941525
7.23285234651085,1.2873709490239693,-1.3277280038487107,-1.1863362430595639
7.245726056001089,1.223920014970922,-1.3395913662793064,-1.1198074184015758
