th1 (rad),w1 (rad/s),th2 (rad),w2 (rad/s),a1 (rad/s^2),a2 (rad/s^2)
2.2987626635763045,1.9772533127116485,4.59236638507348,-1.31102128608906,-5.661989311894693,3.0521747638234724
2.318535196703421,1.9206334195927015,4.579256172212589,-1.2804995384508253,-5.476973790545753,3.38212528401293
2.337741530899348,1.865863681687244,4.566451176828081,-1.246678285610696,-5.3124615977127805,3.6926659979340526
2.3564001677162203,1.8127390657101161,4.553984393971974,-1.2097516256313554,-5.16676776570569,3.9853560668233103
2.3745275583733214,1.7610713880530593,4.54188687771566,-1.1698980649631223,-5.038188279208249,4.261753686240246
2.392138272253852,1.7106895052609767,4.530187897066029,-1.1272805281007199,-4.925039771786445,4.523356023407679
2.409245167306462,1.6614391075431123,4.518915091785022,-1.0820469678666431,-4.825685347081134,4.771560272141642
2.425859558381893,1.6131822540723009,4.508094622106356,-1.0343313651452266,-4.738550186572449,5.00764041012015
2.4419913809226164,1.5657967522065763,4.4977513084549035,-0.9842549610440251,-4.6621298344563655,5.232735419415118
2.457649348444682,1.5191754538620126,4.487908758844463,-0.931927606849874,-4.594993392541818,5.447845721128673
2.472841102983302,1.4732255199365945,4.4785894827759645,-0.8774491496385872,-4.535783317139703,5.653835378718306
2.4875733581826682,1.4278676867651974,4.469814991279579,-0.8209107958514041,-4.483213076455694,5.851438259354473
2.5018520350503204,1.3830355560006404,4.461605883321065,-0.7623964132578595,-4.436063586475392,6.041266832672397
2.5156823906103267,1.3386749201358865,4.453981919188486,-0.7019837449311355,-4.393179079901956,6.223822657082537
2.5290691398116856,1.294743129336867,4.446962081739175,-0.6397455183603101,-4.353462861390154,6.399507879191583
2.542016571105054,1.2512085007229654,4.440564626555571,-0.5757504395683943,-4.315873249992864,6.568637272608734
2.554528656112284,1.2080497682230367,4.434807122159887,-0.510064066842307,-4.279419895449416,6.731450485816905
2.566609153794514,1.1652555692685425,4.429706481491464,-0.44274956198413795,-4.243160569880886,6.88812426896523
2.5782617094871996,1.1228239635697337,4.425278985871622,-0.37386831929448566,-4.206198473693103,7.038784517603506
2.589489949122897,1.0807619788328027,4.421540302678677,-0.3034804741184506,-4.167680048702134,7.1835180163206065
2.600297568911225,1.0390851783457813,4.418505497937493,-0.23164529395524452,-4.126793258663495,7.3223837937728495
2.6106884206946828,0.9978172457591463,4.416189044997941,-0.15842145601751603,-4.082766274498607,7.455424017901355
2.6206665931522743,0.9569895830141603,4.414604830437765,-0.08386721583850248,-4.0348664863412935,7.582674370175811
2.630236488982416,0.9166409181507473,4.413766158279381,-0.008040472136744373,-3.98239975542593,7.704173843394005
2.6394028981639233,0.8768169205964881,4.413685753558013,0.06900126629719568,-3.924709814582235,7.81997391104384
2.648171067369888,0.8375698224506657,4.414375766220985,0.1472010054076341,-3.8611777257667437,7.9301470189991585
2.6565467655943946,0.7989580451929983,4.415847776275061,0.22650247559762568,-3.7912213059355473,8.034794353376741
2.6645363460463245,0.7610458321336429,4.418112801031038,0.3068504191313931,-3.714294438081866,8.134052842341683
2.672146804367661,0.7239028877528242,4.421181305222352,0.38819094755480993,-3.6298861919625423,8.228101354818012
2.679385833245189,0.6876040258331988,4.4250632146979,0.47047196110299006,-3.5375196885322775,8.317166065511262
2.686261873503521,0.652228828947876,4.42976793430893,0.5536436217581027,-3.436750653063654,8.401524963269717
2.692784161793,0.6178613224172395,4.435304370526511,0.6376588713907998,-3.3271656140756116,8.481511488358992
2.6989627750171725,0.5845896662764833,4.441680959240419,0.7224739862743897,-3.2083797182893985,8.557517293358819
2.7048086716799373,0.5525058690935893,4.448905699103164,0.8080491592079779,-3.0800341456911773,8.629994131699881
2.7103337303708734,0.5217055276366775,4.456986190695243,0.8943491005249767,-2.94179312326178,8.69945488687661
2.71555078564724,0.4922875964040597,4.465929681700493,0.9813436493937429,-2.7933405509403837,8.766473763593263
2.7204736616112806,0.4643541908946559,4.475743118194431,1.0690083870296756,-2.634376268873216,8.831685668984331
2.7251172035202273,0.43801042820592373,4.4864332020647275,1.157325243719519,-2.4646120109656766,8.895784817024001
2.7294973078022866,0.41336430809626695,4.4980064545019225,1.246283091889759,-2.283767106270143,8.959522591699857
2.7336309508832493,0.3905266370335655,4.51046928542082,1.3358783178067575,-2.0915640069321033,9.023704703841089
2.737536217253585,0.3696109969642445,4.523828068598887,1.4261153648451683,-1.8877237394934654,9.08918767199985
2.7412323272232273,0.35073375956930986,4.538089222247339,1.5170072415651668,-1.6719613956159378,9.156874648800459
2.7447396648189204,0.33401414561315046,4.553259294662991,1.6085759880531714,-1.4439817991522965,9.227710599986509
2.7480798062750518,0.3195743276216275,4.569345054543522,1.7008530940530364,-1.203475509499001,9.302676823285974
2.751275549551268,0.3075395725266375,4.586353585484052,1.7938798622858962,-0.9501153469927095,9.382784767442836
2.7543509452765345,0.2980384190567104,4.604292384106911,1.8877077099603246,-0.6835536556011153,9.469069077589461
2.7573313294671014,0.29120288250069926,4.623169461206514,1.9823984007362192,-0.4034205522938352,9.562579750820856
2.7602433582921084,0.2871686769777609,4.642993445213876,2.0780241982444276,-0.10932345239200097,9.664373234663241
2.763115045061886,0.28607544245384087,4.66377368719632,2.17466793059106,0.1991517928772287,9.775502240436237
2.7659757994864247,0.28806696038261315,4.685520366502231,2.2724229529954223,0.5224377551683562,9.897003972714856
2.7688564690902506,0.29329133793429674,4.708244596032185,2.371392992722571,0.860979827938354,10.029886394804283
2.7717893824695934,0.30190113621368025,4.731958525959411,2.471691856670614,1.2152276339826265,10.175112058251566
2.77480839383173,0.3140534125535065,4.756675444526117,2.5734429772531295,1.585622823616462,10.333578922346387
2.777948927957265,0.3299096407896711,4.782409874298648,2.6767787664765934,1.9725825481052828,10.506097478532077
2.7812480243651616,0.34963546627072395,4.809177661963414,2.7818397412619142,2.3764777859232833,10.69336337713356
2.784744379027869,0.37340024412995676,4.836996059376033,2.88877337503325,2.7976055860127738,10.895924634155005
2.7884783814691687,0.4013762999900845,4.865883793126366,2.9977326213747997,3.236154178310957,11.114142381156515
2.7924921444690693,0.4337378417731941,4.895861119340114,3.108874045186365,3.692159797064928,11.348144022251594
2.796829522886801,0.4706594397438434,4.926949859791978,3.222355485408881,4.165453981703194,11.597767595163461
2.8015361172842397,0.5123139795608753,4.959173414646067,3.3383331613605156,4.6556000850117005,11.862496121077392
2.8066592570798483,0.5588699804109923,4.992556746259671,3.4569581225712893,5.16181775974267,12.141380802712717
2.8122479568839585,0.610488158008419,5.027126327485385,3.5783719305984163,5.682894354370063,12.432952134673352
2.8183528384640426,0.6673171015521197,5.062910046791369,3.70270145194515,6.217082481558576,12.735118380817756
2.8250260094795636,0.7294879263677054,5.09993706131082,3.8300526357533276,6.761983598884627,13.045051520498426
2.8323208887432405,0.7971077623565517,5.138237587668353,3.9605031509583117,7.314418345168413,13.35906175333014
2.840291966366806,0.8702519458082358,5.1778426191779365,4.094093768491613,7.87028570437994,13.672463075410626
2.848994485824888,0.9489548028520353,5.218783556862853,4.230818399245719,8.424414924258464,13.97943439544835
2.8584840338534083,1.0331989520946199,5.26109174085531,4.370612743200203,8.970416590632391,14.27288322991314
2.8688160233743547,1.1229031180009437,5.304797868287312,4.513341575499335,9.500542408637202,14.544322244469596
2.880045054554364,1.2179085420873157,5.349931284042305,4.658784797944031,10.005567054091284,14.783772756565094
2.8922241399752373,1.3179642126282285,5.396519132021745,4.806622525509682,10.474709792916649,14.979713608281081
2.9054037821015197,1.422711310557395,5.444585357276842,4.956419661592493,10.895618093744707,15.119098185000105
2.9196308952070935,1.531667491494842,5.4941495538927665,5.107610643442494,11.25443958655634,15.187466148020329
2.9349475701220418,1.6442118873604055,5.545225660327191,5.2594853049226975,11.536011534020988,15.169178696171539
2.9513896889956457,1.7595720027006154,5.597820513376418,5.411177091884413,11.724197227587398,15.047805569871269
2.9689854090226517,1.8768139749764894,5.651932284295262,5.561655147583126,11.802394870333439,14.806687016131363
2.9877535487724165,1.9948379236798237,5.707548835771093,5.70972201774444,11.754234968360997,14.42968299341978
3.0077019280092148,2.1123802733634336,5.764646055948537,5.8540188476786374,11.564465743481021,13.90210387266682
3.028825730742849,2.228024930798244,5.823186244425323,5.993039886405306,11.220002205238107,13.211791655813649
3.051105980050832,2.3402249528506247,5.883116643289377,6.125157802963442,10.71108443638487,12.350289843441386
3.074508229579338,2.4473357972144734,5.944368221319011,6.248660701397856,10.032457651069201,11.314007328063322
3.098981587551483,2.5476603737251655,6.0068548283329894,6.36180077467849,9.184456326326663,10.105253186605417
3.1244581912887344,2.6395049369884322,6.070472836079774,6.462853306544544,8.173854667736967,8.73300274309081
3.1508532406586185,2.721243483665802,6.135101369145219,6.550183333975452,7.014343714639805,7.213258483896931
3.1780656754952763,2.7913869208122,6.200603202484974,6.622315918814421,5.726517477142985,5.568897561606673
3.205979544703398,2.84865209558363,6.266826361673118,6.678004894430488,4.337298122597317,3.828950916157265
3.2344660656592343,2.892025076809603,6.333606410617423,6.716294403592061,2.878798589108486,2.027331060342637
3.2633863164273302,2.9208130627006876,6.4007693546533435,6.736567714195487,1.3866989053067993,0.2011037080994655
3.292594447054337,2.9346800517537557,6.468135031795298,6.738578751276481,-0.10171544266903172,-1.611533362888781
3.3219412475718744,2.9336628973270655,6.535520819308063,6.722463417647593,-1.5496540324724535,-3.3733575030360643
3.351277876545145,2.918166357002341,6.602745453484539,6.688729842617232,-2.922843509849682,-5.050098663090844
3.3804595401151682,2.8889379219038442,6.6696327519107115,6.638228855986324,-4.191271006110599,-6.612097517582781
3.4093489193342066,2.8470252118427384,6.7360150404705745,6.5721078808104965,-5.330496725671127,-8.035508570667295
3.437819171452634,2.793720244586027,6.801736119278679,6.491752795103824,-6.3224501297288,-9.302981379612179
3.4657563738984942,2.730495743288739,6.866653647229717,6.398722981307702,-7.155695317183375,-10.403822277379032
3.4930613313313814,2.6589387901169053,6.930640877042794,6.294684758533911,-7.825213845765292,-11.333696688270395
3.5196507192325504,2.5806866516592524,6.993587724628133,6.181347791651207,-8.331798452069402,-12.093971094470254
3.545457585749143,2.4973686671385584,7.055401202544646,6.060408080706505,-8.6811752623926,-12.690811936472269
3.5704312724205285,2.4105569145146326,7.1160052833517105,5.9334999613417825,-8.882976200028727,-13.13415845753146
3.5945368415656747,2.3217271525143452,7.175340282965128,5.802158376766468,-8.949671671659845,-13.436672508426227
3.617754113090818,2.2322304357977467,7.233361866732793,5.667791651682206,-8.895551987073453,-13.612746228432083
3.6400764174487956,2.1432749159270124,7.290039783249615,5.531664189397885,-8.735820002414059,-13.677623480222426
3.6615091666080657,2.055916715902872,7.345356425143594,5.394887954595661,-8.485831796241323,-13.646666929069127
3.6820683337670945,1.9710583979404588,7.39930530468955,5.25842128530497,-8.160499916555796,-13.534782282798576
3.7017789177464993,1.8894533987749007,7.451889517542599,5.1230734624769845,-7.77385650520772,-13.35599568173032
3.7206734517342483,1.8117148337228235,7.50312025216737,4.989513505659681,-7.338761811393646,-13.123169735882271
3.738790600071477,1.7383272156088871,7.553015387223966,4.858281808300858,-6.866736793838714,-12.847837740951794
3.7561738722275657,1.6696598476705,7.601598205306975,4.72980343089134,-6.367895753422559,-12.540133282888888
3.772870470704271,1.6059808901362744,7.648896239615889,4.604402098062451,-5.850955140881705,-12.208792765236192
3.7889302796056334,1.5474713387274575,7.694940260596513,4.482314170410089,-5.323296802079584,-11.861210424236106
3.8044049929929082,1.4942383707066615,7.739763402300614,4.363702066167728,-4.79106707867963,-11.503528350128963
3.819347376699975,1.4463276999198653,7.783400422962291,4.248666782666438,-4.259296712277277,-11.140747317477626
3.8338106536991736,1.4037347327970926,7.825887090788956,4.137259309491662,-3.7320299541849624,-10.776847438873926
3.8478480010271445,1.366414433255243,7.867259683883872,4.029490835102923,-3.2124543907814016,-10.414910551295293
3.861512145359697,1.334289889347429,7.907554592234901,3.9253417295899697,-2.7030256239201154,-10.057238702394825
3.8748550442531715,1.307259633108228,7.946808009530801,3.8247693425660216,-2.205583062336428,-9.705465091540455
3.887927640584254,1.2852038024848638,7.985055702956461,3.727714691650617,-1.721454709050061,-9.36065535892688
3.9007796786091027,1.2679892553943632,8.022332849872967,3.634108138061348,-1.2515500302315186,-9.023398257461333
3.913459571163046,1.255473755092048,8.05867393125358,3.543874155486735,-0.7964408351983184,-8.693885551184348
3.9260143087139667,1.2475093467400649,8.094112672808446,3.4569352999748912,-0.35643065840259264,-8.371981527062268
3.9384894021813674,1.243945040156039,8.128682025808196,3.3732154847042684,0.06838652050952854,-8.057282845282284
3.950928852582928,1.2446289053611344,8.162414180655238,3.2926426562514455,0.47807719588826075,-7.749169639503778
3.9633751416365395,1.249409677320017,8.195340607217753,3.2151509598564076,0.8728277971495927,-7.446848856265711
3.97586923840974,1.2581379552915128,8.227492116816318,3.1406824712937507,1.2529115950184067,-7.149390826206999
3.988450617962655,1.270667071241697,8.258898941529255,3.069188563031681,1.6186620046645477,-6.855760015125005
4.001157288675072,1.2868536912883424,8.289590827159572,3.0006309628804306,1.97045131349158,-6.564840829588667
4.0140258255879555,1.3065582044232582,8.319597136788376,2.934982554584544,2.3086739508037737,-6.275459263790566
4.027091407632188,1.3296449439312958,8.348946962334221,2.872227961946638,2.633733509870469,-5.986401081274905
4.040387857071501,1.3559822790300005,8.377669241953686,2.812363951133889,2.9460328238655724,-5.696427133623916
4.053947679861801,1.385442607268656,8.405792881465025,2.75539967979765,3.2459664821188237,-5.404286332275308
4.067802105934487,1.4179022720898444,8.433346878263002,2.7013568164748967,3.5339152501675746,-5.108726711843221
4.081981128655386,1.4532414245915202,8.460360446427751,2.6502695493564645,3.810241925535756,-4.808504954907732
4.096513542901301,1.4913438438468778,8.486863141921315,2.6021844998073873,4.075288221063201,-4.502394689700631
4.111426981339769,1.5320967260575098,8.512884986919389,2.557160552910381,4.329372319518024,-4.189193823387177
4.126747948600344,1.57539044925269,8.538456592448492,2.5152686146765095,4.572786787970049,-3.8677311343145733
4.142501853092871,1.6211183171323904,8.563609278595257,2.4765913033333637,4.805796578933432,-3.536872316033674
4.158713036264195,1.6691762829217247,8.58837519162859,2.441222580173027,5.02863687858317,-3.1955256433249306
4.175404799093412,1.7194626517075564,8.61278741743032,2.409267323739778,5.241510591373364,-2.8426474150020966
4.192599425610488,1.77187775762129,8.636880090667718,2.380840849589757,5.444585276043789,-2.477247318990365
4.2103182031867,1.826323610381728,8.660688499163616,2.356068376399853,5.637989371146762,-2.098393861083437
4.228581439290518,1.8827035040931956,8.684249182927614,2.3350844377890185,5.821807569654206,-1.7052199988234606
4.24740847433145,1.9409215797897377,8.707600027305505,2.318032237800784,5.996075222672191,-1.2969291249981432
4.266817690129347,2.0008823320164595,8.730780349683513,2.3050629465508026,6.1607716725337855,-0.8728015501124087
4.286826513449512,2.062490048741797,8.753830979149022,2.2963349310496786,6.31581243630029,-0.4322016385745579
4.3074514139369295,2.1256481731048003,8.776794328459518,2.292012914663933,6.461040182744231,0.02541424216488323
4.328707895667978,2.1902585749322427,8.799714457606157,2.292267057085582,6.5962144700321295,0.5004887982002252
4.3506104814173,2.256220719632564,8.822637128177012,2.297271945067584,6.721000238458447,0.9933537521656298
4.373172688613626,2.3234307220171484,8.845609847627689,2.3072054825892403,6.834955083674372,1.5042185012329738
4.3964069958337975,2.391780272853892,8.86868190245358,2.32224766760157,6.937515371961997,2.03315735450444
4.420324798562336,2.4611554265735123,8.891904379129597,2.3425792411466144,7.027981301361144,2.5800952399946566
4.444936352828071,2.5314352395871236,8.915330171541063,2.368380193546561,7.105501062051171,3.1447918094494813
4.470250705223942,2.6024902502076355,8.939013973476529,2.399828111641056,7.169054307521804,3.7268239218767985
4.496275607726019,2.6741807932828534,8.96301225459294,2.437096350859824,7.217435215874633,4.3255665562108545
4.523017415658847,2.7463551454415995,8.987383218101538,2.480352016421932,7.24923549906091,4.940172292259503
4.5504809671132636,2.8188475004322084,9.012186738265758,2.5297537393445273,7.262827807672437,5.56954960904599
4.578669442117586,2.8914757785089327,9.037484275659203,2.585449235434987,7.256350080292132,6.212340382526615
4.607584199902675,2.964039279311854,9.063338768013553,2.6475726392602534,7.227691498940747,6.866897121519986
4.637224592695794,3.0363161943012615,9.089814494406156,2.7162416104754534,7.174480834468883,7.531260661744646
4.667587754638806,3.1080610026459503,9.11697691051091,2.7915542170928997,7.094078095270216,8.20313924219372
4.698668364665266,3.1790017835986526,9.14489245268184,2.873585609514837,6.983570525327276,8.879890113237837
4.7304583825012525,3.248837488851925,9.173628308776987,2.9623845106472153,6.839774127345529,9.558505067521814
4.762946757389772,3.3172352301253802,9.20325215388346,3.0579695613224334,6.659242005318508,10.235601536307616
4.796119109691025,3.3838276501785653,9.233831849496685,3.1603255766855094,6.4382809173879485,10.907421146130996
4.8299573861928105,3.448210459352445,9.26543510526354,3.2693997881468193,6.172977490418281,11.569837871111405
4.864439490786335,3.5099402342566277,9.298129103145008,3.3850981668579334,5.859235555117655,12.21837812916419
4.899538893128901,3.568532589807804,9.331980084813587,3.507281948149575,5.492825994183285,12.84825533614166
4.9352242190269795,3.623460849749637,9.367052904295083,3.635764501510992,5.069450331797326,13.454421527083808
4.971458827524476,3.67415535306761,9.403410549310193,3.77030871678183,4.584819003781576,14.031638650914804
5.008200381055152,3.7200035431054257,9.441113636478011,3.910625103290978,4.034744804612297,14.574572013225644
5.045400416486206,3.7603509911515487,9.480219887510922,4.056370823423235,3.4152513805606666,15.077908047909828
5.083003926397722,3.7945035049571554,9.520783595745154,4.207149903902333,2.722695799894417,15.536498108504418
5.120948961447294,3.8217304629560997,9.562855094784178,4.362514884987377,1.9539031600251098,15.945529253037156
5.159166266076855,3.841269494556351,9.606480243634051,4.5219701775177485,1.106309878334204,16.300722028821177
5.197578961022418,3.852332593339693,9.651699945409229,4.684977397805961,0.17811076816093463,16.59855403819015
5.236102286955815,3.8541137010213022,9.69854971938729,4.8509629381878625,-0.8315967376570416,16.83650660017785
5.274643423966029,3.8457977336447318,9.747059348769168,5.019328004189641,-1.9226797103225983,17.0133301716002
5.313101401302476,3.826570936541506,9.797252628811064,5.189461305905644,-3.0938585435179005,17.129322459345627
5.3513671106678915,3.795632351106327,9.84914724187012,5.3607545304991,-4.3426294919660435,17.18661151143708
5.389323434178955,3.7522060561866666,9.902754787175112,5.532620645613471,-5.665234237790187,17.189434753613494
