th1 (rad),w1 (rad/s),th2 (rad),w2 (rad/s)
6.029485158508729,1.4716221426678535,4.778995549939023,-2.014621748188097
6.044201379935408,1.4576344087988922,4.758849332457142,-1.8918796748977291
6.058777724023397,1.4465688559856724,4.739930535708165,-1.7704822887353302
6.0732434125832535,1.4382018546916997,4.722225712820812,-1.6501686694356592
6.087625431130171,1.432315042036733,4.705724026126456,-1.530703304165845
6.101948581550538,1.4286947347058518,4.690416993084797,-1.4118753374731665
6.1162355288975965,1.4271311471923296,4.676298239710066,-1.2934976598827341
6.13050684036952,1.4274175214607123,4.663363263111239,-1.1754059469047633
6.144781015584127,1.429349238534037,4.651609203642192,-1.0574577140383299
6.159074507969467,1.4327229587214956,4.641034626501808,-0.9395314226485224
6.173401737556682,1.4373358213892424,4.631639312275323,-0.8215256512792907
6.187775095770574,1.4429847247293779,4.62342405576253,-0.703358333634016
6.202204943017867,1.449465699121153,4.61639047242619,-0.5849660558222503
6.216699600009079,1.4565733831894603,4.610540811867967,-0.4663034000051359
6.231265333840974,1.4641006087185762,4.605877777867915,-0.3473423182554216
6.24590633992816,1.471838098605949,4.602404354685361,-0.22807151860526897
6.26062472091422,1.4795742806530798,4.600123639499309,-0.10849584444005904
6.27542046372075,1.4870952189229536,4.599038681054908,0.011364371684534677
6.29029141590998,1.494184663466074,4.599152324771753,0.13147399826497128
6.305233262544641,1.5006242183091558,4.600467064754403,0.25178385670135595
6.320239504727732,1.5061936266325668,4.602984903321416,0.37223155116705375
6.3353014409940585,1.5106711709842011,4.606707218833087,0.49274239141699916
6.3504081527039,1.5138341851581971,4.611634642747257,0.6132304217625428
6.365546494555482,1.5154596729901126,4.617766946964882,0.7335995675574547
6.380701091285383,1.5153250277783232,4.625102942640456,0.8537449084941451
6.395854341563166,1.5132088443329537,4.633640391725398,0.9735540858259826
6.410986430006496,1.5088918137809235,4.643375932583657,1.0929088483335225
6.4260753481443045,1.5021576892239048,4.6543050210669925,1.2116867394615047
6.441096925036543,1.4927943081632173,4.666421888461608,1.329762925592341
6.456024868118176,1.4805946552837923,4.6797195177175315,1.4470121629159975
6.470830814671014,1.4653579467456672,4.694189639346692,1.563310897836866
6.48548439413847,1.4468907145912488,4.7098227483250605,1.67853949336613
6.499953301284382,1.4250078672753854,4.726608143258722,1.7925845715379496
6.514203379957136,1.3995336997114833,4.744533988974101,1.9053414596331215
6.528198716954251,1.3703028236631434,4.763587403570432,2.016716725991868
6.5419017451908825,1.3371609868741328,4.783754570830351,2.126630789572579
6.555273355059624,1.2999657471095818,4.805020878726077,2.235020586319545
6.56827301253072,1.2585869653758348,4.827371084589272,2.3418422750228727
6.5808588821844785,1.212907081094243,4.850789507339501,2.4470739658961467
6.592987952995421,1.1628211310156,4.8752602469984625,2.5507184567886902
6.604616164305577,1.1082364732469574,4.900767431566349,2.652805965023917
6.615698529038046,1.0490721779586696,4.927295491216588,2.753396847541416
6.626189250817633,0.9852580471401213,4.954829459692003,2.852584308523221
6.636041831289035,0.9167332271189733,4.983355302777235,2.9504971021671382
6.645209163560224,0.8434443793384787,5.012860273798906,3.047302248831368
6.653643607353609,0.7653433769431655,5.04333329628722,3.1432077954259245
6.66129704112304,0.6823844968771964,5.07476537424148,3.238465665558487
6.668120886091812,0.5945210793011406,5.107150030897064,3.333374661280699
6.6740660968848236,0.5017016281385328,5.140483777509871,3.428283695811851
6.679083113166209,0.4038653286694017,5.174766614467989,3.523595354461894
6.683121766452903,0.3009369609392759,5.210002568012608,3.619769897671992
6.686131136062295,0.1928211927806512,5.2462002669893275,3.717329833207759
6.688059347990102,0.07939624621236444,5.283373565321405,3.8168651900143398
6.688853310452226,-0.039493049123381946,5.321542217221548,3.919039617232886
6.688458379960992,-0.16404276332208606,5.3607326133938775,4.024597396809582
6.686817952327772,-0.29449781025356825,5.400978587361974,4.1343713773586455
6.6838729742252365,-0.43116007361356334,5.44232230113556,4.24929167709977
6.679561373489101,-0.5743962288871924,5.484815217906558,4.370394708103484
6.673817411200229,-0.7246443716922669,5.528519164987593,4.4988315466506394
6.666570967483306,-0.8824178685984448,5.573507480454099,4.635873752917041
6.657746788797321,-1.048303663425958,5.61986621798327,4.782913155180784
6.647263752163061,-1.222950275577411,5.6676953495350775,4.941449408767498
6.635034249407287,-1.4070373971911632,5.717109843622753,5.113054590462725
6.6209638754353755,-1.6012135383586832,5.76824038952738,5.299296573214694
6.6049517400517885,-1.805979482241334,5.821233355259527,5.501590866908636
6.586891945229375,-2.0214821950028923,5.876249263928614,5.720932242818047
6.566677123279346,-2.2471660078492177,5.933458586356794,5.957432195503364
6.544205463200854,-2.4812091901624016,5.993032908311828,6.2095611236542
6.5193933712992305,-2.7196705541514916,6.0551285195483695,6.472986856177449
6.4921966657577155,-2.955327022614594,6.119858388110144,6.738975118994717
6.462643395531569,-3.1763910366105055,6.187248139300091,6.992600286280194
6.430879485165464,-3.365771368488443,6.257174142162893,7.211667774082262
6.39722177148058,-3.502220746179983,6.329290819903716,7.3681918038601655
6.3621995640187805,-3.564886446994163,6.402972737942317,7.434521929794371
6.3265506995488385,-3.5409896203407416,6.477317957240261,7.3937536612512105
6.2911408033454315,-3.4325145276344973,6.551255493852772,7.248770793493026
6.256815658069087,-3.2562268820513545,6.623743201787702,7.022153325936153
6.224253389248573,-3.036390190996431,6.6939647350470635,6.746178786695697
6.193889487338609,-2.795994305500788,6.761426522914021,6.450953394465987
6.1659295442836015,-2.5518853788976132,6.825936056858681,6.157988666359439
6.140410690494625,-2.3142559215906413,6.887515943522275,5.8797206042216335
6.117268131278719,-2.0882521716421207,6.946313149564491,5.621832724054699
6.096385609562297,-1.8758468081680535,7.002531476805038,5.38585699125707
6.077627141480617,-1.6772534023064656,7.056390046717609,5.171098611535798
6.060854607457553,-1.491818054103027,7.108101032832967,4.975826156568327
6.045936426916523,-1.318527457000209,7.1578592943986505,4.797933992608018
6.0327511523465205,-1.1562782886865337,7.2058386343247305,4.63528213917874
6.021188369459655,-1.004009956660295,7.252191455716518,4.485855037900296
6.011148269893052,-0.8607629968995577,7.297050006095521,4.347824246571699
6.002540639924057,-0.7256986379674962,7.340528248561238,4.2195627440401235
5.995283653544382,-0.5980990079719922,7.38272387600164,4.099636510739022
5.989302663464662,-0.4773583868807628,7.42372024110903,3.9867867594471984
5.984529079595855,-0.3629709211168289,7.463588108703502,3.879909539160729
5.980899370384686,-0.2545175281137556,7.502387204095109,3.7780359093782776
5.978354195103549,-0.15165328983447482,7.540167563188892,3.6803140498097093
5.976837662205204,-0.054095889088458776,7.57697070368699,3.5859937427683133
5.976296703314319,0.03838473524348007,7.612830641114673,3.494413215620911
5.976680550666754,0.12597552001366266,7.647774773270882,3.4049881299839075
5.97794030586689,0.20882828194176156,7.681824654570721,3.3172024310973063
5.980028588686308,0.28706670625982583,7.714996678881694,3.230600760579398
5.982899255748906,0.36079243340799566,7.7473026864874885,3.144782154849267
5.986507180082986,0.4300903474882084,7.778750508035981,3.059394782555404
5.9908080835578685,0.4950331566169463,7.809344455861535,2.9741315086952964
5.995758415124038,0.5556853417370244,7.839085770948487,2.888726106629047
6.001315268541408,0.6121065385436124,7.867973032014778,2.8029499700916922
6.007436333926844,0.6643544075521353,7.896002531715695,2.716609204963815
6.014079878002365,0.7124870400128797,7.923168623765333,2.6295420048789193
6.021204748402494,0.7565649420994598,7.949464043814122,2.5416162358654786
6.028770397823489,0.7966526361796826,7.974880206172776,2.4527271733532423
6.036736924185285,0.8328199155964034,7.999407477906309,2.362795350238963
6.045065123341249,0.8651427878382821,8.0230354314087,2.2717644875171326
6.053716551219632,0.8937041399084008,8.045753076283871,2.179599489436567
6.062653592618716,0.9185941588077556,8.067549071178236,2.0862844934398095
6.071839534206793,0.9399105391156308,8.088411916112634,1.9918209714796944
6.08123863959795,0.9577585085146467,8.10833012582743,1.8962258838956778
6.090816224683096,0.9722507006850465,8.127292384666388,1.7995298900924863
6.100538731689947,0.9835069032480181,8.145287683567313,1.7017756220246818
6.110373800722427,0.9916537063858463,8.16230543978756,1.6030160271860074
6.120290337786286,0.9968240754570044,8.17833560005942,1.5033127876615922
6.130258578540856,0.9991568684298718,8.193368727936036,1.4027348210429869
6.140250147225155,0.9987963163648298,8.207396076146466,1.301356867831174
6.150238110388803,0.9958914825688368,8.220409644824779,1.1992581685375248
6.160197025214491,0.9905957135116559,8.232402226510153,1.0965212321852236
6.170102982349608,0.983066092200001,8.243367438832006,0.9932306964313912
6.179933643271608,0.9734629025114435,8.25329974579632,0.8894722781596848
6.189668272296722,0.9619491110338593,8.262194468577917,0.7853318121919948
6.199287763407061,0.9486898712616867,8.270047786699838,0.6808943747672115
6.208774662119678,0.9338520535751396,8.27685673044751,0.57624348764391
6.218113182655429,0.9176038032673202,8.282619165323949,0.47146039809354207
6.227289220688102,0.9001141279710128,8.287333769304885,0.36662342963974326
6.2362903619678125,0.8815525151483953,8.291000003601283,0.26180739813768683
6.245105887119297,0.8620885798150049,8.29361807758266,0.157083087640772
6.253726772917447,0.8418917423441793,8.295188908459068,0.052516780435196184
6.262145690340889,0.821130936010425,8.295714076263419,-0.05183016439711122
6.270356999700993,0.799974343852507,8.295195774619447,-0.15590168952955802
6.2783567431395175,0.778589164445842,8.293636757724151,-0.25964738070834914
6.286142634783976,0.7571414062496875,8.291040283917068,-0.36302277652479326
6.293714048846473,0.735795710323092,8.28741005615182,-0.46598965240640594
6.301072005949704,0.7147152013748022,8.282750159627756,-0.5685162847140741
6.308219157963452,0.6940613673209539,8.277064996780616,-0.6705777010079682
6.315159771636662,0.6739939677690251,8.270359219770537,-0.7721559227736666
6.321899711314352,0.654670972129071,8.2626376605428,-0.873240207181515
6.328446421035642,0.6362485283781727,8.253905258470985,-0.9738272947853973
6.334808906319424,0.6188809638775734,8.244166985523131,-1.0739216704512435
6.340997715958199,0.6027208200715569,8.233427768818618,-1.1735358452417421
6.347024924158915,0.5879189233905755,8.2216924103662,-1.2726906674753962
6.352904113392821,0.574624495246184,8.208965503691447,-1.371415671731944
6.358650358345283,0.562985304649009,8.195251346974127,-1.4697494752025557
6.364280211391773,0.5531478677091038,8.1805538522221,-1.5677402314961055
6.369811690068865,0.5452576990946042,8.16487644990714,-1.6654461528296407
6.37526426705981,0.5394596214309905,8.148221988378845,-1.7629361124720397
6.38065886327412,0.5358981396170476,8.130592627254124,-1.8602903403961177
6.386017844670291,0.5347178881067184,8.111989723850163,-1.9576012263462794
6.391365023551358,0.5360641603418266,8.092413711586701,-2.0549742459613065
6.396725665154776,0.5400835306891933,8.071863969127088,-2.15252902720886
6.402126500461668,0.5469245803865191,8.050338678855,-2.2504005761728547
6.407595746265533,0.5567387400519417,8.027834673093272,-2.3487406831343534
6.413163133666052,0.5696812621297724,8.004347266261929,-2.44771953178959
6.41885994628735,0.5859123370190157,7.979870070944033,-2.547527536148784
6.424719069657541,0.6055983662303787,7.954394795582545,-2.6483774307994317
6.430775053319844,0.6289134042224387,7.927911021274551,-2.7505066402025253
6.437064187362068,0.6560407767684971,7.900405954872526,-2.854179950550511
6.443624595129753,0.687174876541803,7.871864155367021,-2.9596925018960736
6.450496343895171,0.7225231241189426,7.84226723034806,-3.067373106286905
6.457721575136361,0.7623080617458045,7.811593499285191,-3.1775878756004996
6.465344655753819,0.8067695132609702,7.779817620529186,-3.290744104498498
6.473412350886429,0.8561666891870683,7.746910179484201,-3.4072942897181075
6.4819740177783,0.9107800297856553,7.71283723658702,-3.5277400615787093
6.4910818180761565,0.9709124431563012,7.677559835971232,-3.6526356332983188
6.500790942507719,1.0368893829317154,7.641033479638249,-3.782590101365798
6.511159836337036,1.1090568788053758,7.603207578624591,-3.918267498288819
6.52225040512509,1.1877761192244003,7.564024903641703,-4.060382819405444
6.534128166317333,1.273412393933451,7.523421075447648,-4.209691185565606
6.5468622902566675,1.3663149974133655,7.481324163591992,-4.366965670346475
6.560525440230801,1.466782886397308,7.437654506888528,-4.532956848893763
6.5751932690947745,1.5750082526878288,7.39232493839959,-4.708323491391806
6.590943351621653,1.690986527821645,7.345241703485672,-4.893518736446879
6.607853216899869,1.8143767449505372,7.296306516121203,-5.088609576131599
6.625996984349374,1.9442915248135695,7.245420420359887,-5.293000692741178
6.64543989959751,2.078994140579518,7.192490413432475,-5.505030507429209
6.666229841003305,2.215488354357727,7.137440108358183,-5.7214175385309884
6.688384724546882,2.349019531230532,7.080225932972873,-5.9365787958664775
6.711874919859188,2.4725854247337113,7.020860145014208,-6.141950171497493
6.736600774106525,2.576700057197373,6.959440643299232,-6.325637187839833
6.7623677746784985,2.649832530520018,6.896184271420834,-6.472970352022352
6.788866099983698,2.679992078588193,6.831454567900611,-6.568609981583025
6.81566602076958,2.6575472017817674,6.76576846808478,-6.6003220611641975
6.842241492787398,2.5784157871905644,6.699765247473138,-6.563245305001132
6.868025650659304,2.445874503812493,6.6341327944231265,-6.46226113064758
6.892484395697428,2.269635272914195,6.569510183116651,-6.310646867607861
6.91518074842657,2.0626607665162746,6.506403714440572,-6.125702401994935
6.935807356091733,1.8376570036606812,6.445146690420623,-5.92402004934613
6.95418392612834,1.6048588727374082,6.385906489927162,-5.718577312092665
6.970232514855714,1.371401002558608,6.328720716806235,-5.517999926563179
6.9839465248813,1.1416945553851032,6.2735407175406035,-5.3271673953542
6.995363470435151,0.9181532997256513,6.220269043587061,-5.1482557738012025
7.0045450034324075,0.70188579116056,6.168786485849049,-4.98170306627006
7.011563861344013,0.4932203559507381,6.118969455186348,-4.826927748669426
7.01649606490352,0.2920589945088383,6.070700177699654,-4.682805102865092
7.019416654848609,0.09809912622439221,6.0238721266710025,-4.547960705789244
7.020397646110853,-0.08903488843519333,5.97839251961311,-4.420941590463138
7.019507297226501,-0.2697178481204792,5.934183103708479,-4.300311036235956
7.016810118745297,-0.44428516786454597,5.891179993346119,-4.184697854122149
7.012367267066651,-0.6130154560849057,5.849333014804897,-4.072819591615755
7.006237112505802,-0.7761254401216069,5.80860481888874,-3.9634914030124135
6.998475858104586,-0.9337719566307412,5.768969904858616,-3.855627482517228
6.989138138538278,-1.0860578685218123,5.730413630033444,-3.748238996762103
6.97827755985306,-1.2330400599629991,5.692931240065823,-3.6404306814275937
6.96594715925343,-1.37473842347477,5.656526933251547,-3.5313972204558493
6.952199775018682,-1.511145197045869,5.6212129610469885,-3.420419916032113
6.937088323048224,-1.6422342634354885,5.5870087618866675,-3.3068638070766707
6.920665980413869,-1.7679701667791718,5.5539401238159005,-3.1901751983117697
6.902986278746077,-1.8883166806475404,5.522038371832783,-3.06987945886594
6.884103111939602,-2.003244805305002,5.491339577244124,-2.9455789022187027
6.864070663886552,-2.11274009713714,5.461883788221937,-2.81695054646486
6.84294326291518,-2.2168092501578402,5.433714282757288,-2.683743562525917
6.820775170413602,-2.315485863986455,5.406876847132029,-2.545776240222054
6.797620311773737,-2.4088353478453466,5.381419084729808,-2.4029323330585153
6.773531958295283,-2.4969589274168236,5.357389761399223,-2.2551566787839588
6.748562369021115,-2.5799967411706524,5.334838194611383,-2.1024500317329022
6.722762401609408,-2.6581300346714305,5.313813694294055,-1.9448630826522093
6.696181101262694,-2.7315824845764154,5.2943650634675326,-1.7824896804236912
6.6688652764169305,-2.8006207074143035,5.276540166663295,-1.615459306370259
6.640859069342787,-2.865554030475227,5.260385573599593,-1.4439288844791494
6.612203529038035,-2.926733621794594,5.245946284754802,-1.268074039050782
6.582936192820089,-2.9845510917292812,5.233265544364294,-1.088079934628921
6.5530906819027965,-3.0394366883348787,5.222384745018005,-0.9041318519029152
6.522696315019448,-3.091857210788885,5.213343426498977,-0.7164056688369453
6.491777742911559,-3.142313757231815,5.206179369810608,-0.5250584310818114
6.460354605339241,-3.1913394027148847,5.20092878549979,-0.33021921401029564
6.428441211312092,-3.2394968653874074,5.197626593359687,-0.131980507160564
6.396046242658217,-3.2873761586249093,5.196306788288082,0.06960959941507977
6.3631724810719685,-3.335592134342529,5.197002884282233,0.274554063338628
6.329816559728544,-3.3847816841647598,5.199748424915619,0.48291186731624025
6.295968742886896,-3.4356001587530933,5.2045775435887816,0.6948005879395375
6.261612741299365,-3.4887162584155025,5.211525549468177,0.9103954460568154
6.22672557871521,-3.54480419075451,5.220629503928745,1.12992314628644
6.191277536807665,-3.604531211729176,5.231928735391609,1.353647918256186
6.155232224690374,-3.6685376653088047,5.245465214574171,1.5818458249150522
6.118546848037286,-3.737405186150225,5.261283672823322,1.814761426150316
6.0811727961757835,-3.811606692618824,5.279431287084825,2.0525380902325807
6.043056729249595,-3.8914290967754788,5.299956667987151,2.2951095279785476
6.00414243828184,-3.97685646083385,5.322907763266937,2.5420357261539714
5.964373873673502,-4.067398474324309,5.3483281205284765,2.79226256115175
5.923699888930258,-4.161848985278739,5.376250746139994,3.0437843161294516
5.882081399077471,-4.257967260314269,5.406688589301289,3.2931996351546955
5.839501726474328,-4.352100735814589,5.439620585652835,3.535188223409166
5.795980719116182,-4.438826657906563,5.474972467886927,3.762017974358241
5.751592452537116,-4.510790814392878,5.512592647630509,3.9633334748752165
5.706484544393187,-4.559040403136634,5.5522259823792615,4.126642724603347
5.660894140361821,-4.574179302839838,5.593492409625295,4.238960514723898
5.615152347333423,-4.548425856551487,5.635882014772534,4.289714841597509
5.569668088767908,-4.478028557485417,5.678779163188509,4.274142049665937
5.524887803193054,-4.364849132970079,5.721520583685169,4.19549010440697
5.481239311863353,-4.216038072047189,5.763475484729239,4.064519681138955
5.439078931142881,-4.041868950349633,5.8041206815406285,3.8964070942949474
5.398660241639385,-3.8529767334727434,5.843084752483578,3.7068141097918317
5.360130474304658,-3.658323149521353,5.880152893581496,3.5089943027627895
5.323547242809444,-3.4643727420765984,5.915242836609123,3.3126174154760193
5.288903515388678,-3.275195147495006,5.948369010763884,3.123908213489542
5.256151563913728,-3.0929900911934323,5.979608092898779,2.9463871725357023
5.225221663001794,-2.9186722175323614,6.009071964624136,2.7816989477666683
5.196034940826471,-2.7523524466695557,6.036888954101802,2.6302965500180733
5.168511416359776,-2.5936808641949867,6.063191919601983,2.4919306756152935
5.142574607717826,-2.4420707736428504,6.088111226358135,2.3659711686759715
5.118153899981397,-2.296836491184862,6.111770938044895,2.2516062211389074
5.0951855350695485,-2.1572737886983373,6.134287000256284,2.147959966032087
5.073612797182565,-2.0227041940050863,6.155766599916605,2.054158391312377
5.053385755242514,-1.8924973601075716,6.176308183829729,1.969363693738336
