th1 (rad),w1 (rad/s),th2 (rad),w2 (rad/s),a1 (rad/s^2),a2 (rad/s^2)
5.620396583239915,-2.963186742990384,5.397369409734004,-1.3206018039849565,2.26807937799983,7.319614052033289
5.590764715810011,-2.9405059492103858,5.3841633916941545,-1.2474056634646236,2.8308574891778044,6.673698547041074
5.561359656317907,-2.9121973743186076,5.371689335059508,-1.1806686779942128,3.390023784896898,6.0158436607755394
5.532237682574721,-2.8782971364696386,5.359882648279566,-1.1205102413864574,3.9419968741739644,5.353703134467019
5.503454711210024,-2.8388771677278988,5.348677545865701,-1.0669732100417872,4.482944893584189,4.695259470912808
5.475065939532745,-2.794047718792057,5.338007813765284,-1.0200206153326592,5.008913515705274,4.04857290409223
5.447125462344824,-2.743958583635004,5.327807607611957,-0.9795348862917369,5.515978671063847,3.42150246103554
5.419685876508474,-2.6887987969243654,5.3180122587490395,-0.9453198616813815,6.000411056486091,2.8214196003016525
5.3927978885392305,-2.6287946863595044,5.308559060132226,-0.9171056656783649,6.458837567386527,2.2549372815053896
5.366509941675635,-2.564206310685639,5.299388003475443,-0.8945562928633111,6.888384848354295,1.7276766962231775
5.340867878568779,-2.495322462202096,5.290442440546809,-0.8772795259010793,7.286792273094264,1.244090216843457
5.315914653946758,-2.422454539471153,5.281669645287798,-0.8648386237326448,7.652485484197049,0.8073529689926698
5.2916901085520465,-2.3459296846291826,5.273021259050472,-0.8567650940427181,7.984606446913221,0.4193278755528024
5.268230811705755,-2.2660836201600505,5.264453608110045,-0.8525718152871901,8.28300093750141,0.08060135682788257
5.2455699755041545,-2.1832536107850364,5.255927889957173,-0.8517658017189113,8.548168683685509,-0.20941968293818167
5.223737439396304,-2.0977719239481813,5.247410231939983,-0.8538599985482931,8.781184418045909,-0.45236353219797165
5.2027597201568225,-2.009960079767722,5.2388716319545,-0.8583836338702728,8.983599633130169,-0.6507181886617118
5.182660119359145,-1.9201240834364204,5.230287795615797,-0.86489081575689,9.157334897776225,-0.8076408705829059
5.163458878524781,-1.8285507344586582,5.221638887458228,-0.872967224462719,9.304571505470218,-0.9267668695179391
5.145173371180195,-1.735505019403956,5.212909215213601,-0.8822348931578984,9.427649398153495,-1.0120291443001543
5.127818320986155,-1.641228525422421,5.204086866282022,-0.8923551846008999,9.52897617270416,-1.0674966305683729
5.111406035731931,-1.5459387636953794,5.195163314436013,-0.9030301509065837,9.610949889427339,-1.0972358865489682
5.095946648094977,-1.449829264801106,5.186133012926947,-0.9140025097720733,9.675896605535335,-1.1051977914072648
5.081448355446966,-1.3530702987457526,5.176992987829227,-0.925054487686146,9.726022176934674,-1.0951287550395135
5.067917652459508,-1.2558100769764058,5.167742442952365,-0.936005775236541,9.763376935787482,-1.0705043351286196
5.055359551689744,-1.158176307618531,5.1583823851999995,-0.9467108185878272,9.789831319237061,-1.0344822320448552
5.043777788613559,-1.0602779944261604,5.1489152770141215,-0.9570556409082758,9.807060320166611,-0.9898712309126841
5.033175008669297,-0.9622073912244943,5.139344720605039,-0.9669543532174026,9.816534666491538,-0.9391126498985212
5.023552934757053,-0.8640420445595789,5.1296751770728655,-0.9763454797163879,9.8195168294262,-0.8842711082280531
5.014912514311457,-0.7658468762653169,5.119911722275702,-0.9851881907986684,9.817060246160226,-0.827031841325782
5.007254045548804,-0.6676762738037146,5.110059840367715,-0.9934585092119262,9.810010468842277,-0.7687022847350392
5.0005772828107675,-0.5695761691152919,5.100125255275596,-1.0011455320592766,9.79900728701524,-0.7102161696294732
4.9948815211196145,-0.4715860962451395,5.090113799955003,-1.0082476937555713,9.78448719604497,-0.6521388888731404
4.990165660157163,-0.37374122428468975,5.080031323017447,-1.0147690826443028,9.766685891406006,-0.594673388121999
4.986428247914316,-0.2760743653706297,5.069883632191004,-1.0207158165255228,9.745640756391206,-0.5376663065696737
4.98366750426061,-0.17861795780671763,5.059676474025749,-1.0260924795912196,9.721193580627382,-0.4806145374623727
4.981881324682543,-0.0814060220004438,5.0494155492298365,-1.0308986249658434,9.692994000657853,-0.4226728013211792
4.9810672644625384,0.01552391800613473,5.039106562980178,-1.0351253529790552,9.660504391272418,-0.3626632237201138
4.981222503642599,0.11212896191885892,5.028755309450387,-1.0387519852162563,9.623007151825757,-0.2990882765251356
4.982343793261788,0.20835903343711648,5.018367789598225,-1.0417428679815077,9.579615513144413,-0.2301487588035427
4.9844273835961594,0.3041551885685606,5.00795036091841,-1.0440443555695431,9.529289116975411,-0.15376873089904342
4.987468935481845,0.39944807973831475,4.997509917362715,-1.0455820428785336,9.470855661439122,-0.06762942875106683
4.9914634162792275,0.494156636352706,4.987054096933929,-1.0462583371660443,9.403039824781294,0.030785880430101453
4.996404982642755,0.5881870346005189,4.976591513562268,-1.0459504783617433,9.3245004334812,0.14413444883172977
5.00228685298876,0.6814320389353309,4.966132008778651,-1.044509133873426,9.23387638915053,0.2751429657614518
5.009101173378114,0.7737708028268362,4.955686917439916,-1.0417577042158115,9.129841183683475,0.4265227650688356
5.0168388814063825,0.8650692146636709,4.945269340397758,-1.0374924765651232,9.011164911679586,0.6008725642938598
5.025489573553019,0.9551808637804668,4.934894415632106,-1.0314837509221846,8.876781571949598,0.8005716048225413
5.0350413821908235,1.0439486794999628,4.924579578122884,-1.0234780348739592,8.725858228276161,1.0276678704945617
5.045480868985823,1.1312072617827245,4.914344797774144,-1.0132013561690136,8.557861425021906,1.2837678377584236
5.056792941603651,1.2167858760329435,4.904212784212454,-1.0003636777914293,8.37261532846081,1.5699356634123258
5.06896080036398,1.3005120293175516,4.89420914743454,-0.9846643211573061,8.170345618181685,1.8866105146676995
5.081965920657155,1.3822154854993685,4.884362504222967,-0.9657982160106291,7.951703394079344,2.233550580236655
5.095788075512149,1.4617325194401618,4.874704522062861,-0.9434627102082626,7.717764427238784,2.609810962007144
5.110405400706551,1.5389101637125497,4.865269894960778,-0.9173646005881911,7.470000970280326,3.0137601090615376
5.125794502343676,1.613610173415353,4.856096248954896,-0.8872269994975758,7.210225890836862,3.443135930074542
5.14193060407783,1.6857124323237216,4.84722397895992,-0.8527956401968304,6.940511773304783,3.8951386540182433
5.158787728401067,1.7551175500567695,4.838696022557952,-0.8138442536566479,6.663090407246911,4.36655352054934
5.176338903901635,1.8217484541292386,4.830557580021385,-0.7701787184511545,6.380240280428808,4.853893133669496
5.194556388442927,1.8855508569335266,4.822855792836874,-0.7216397871144595,6.094170939348772,5.353547361124961
5.2134118970122625,1.9464925663270143,4.8156393949657295,-0.6681043135032099,5.8069131667390765,5.861928321858179
5.232876822675532,2.004561697994405,4.8089583518306975,-0.6094850302846281,5.520222876084804,6.375599274543245
5.252922439655476,2.059763926755253,4.802863501527852,-0.5457290375391957,5.235504673445234,6.891378798818677
5.2735200789230285,2.1121189734897055,4.79740621115246,-0.4768152495510089,4.953758569043583,7.406415030550266
5.294641268657926,2.161656559180141,4.79263805865695,-0.4027510992455062,4.675550766261929,7.918228277360951
5.316257834249727,2.2084120668427603,4.7886105476644945,-0.3235688164718967,4.401007196658362,8.424723561415783
5.338341954918155,2.2524221388093437,4.785374859499775,-0.23932158085773889,4.129826771554307,8.924177129646615
5.360866176306248,2.2937204065248866,4.782981643691198,-0.15007980956127273,3.861310302597046,9.415202552958363
5.383803380371497,2.3323335095508573,4.781480845595585,-0.055927784031689104,3.594400688946675,9.89670270890051
5.4071267154670055,2.3682775164403242,4.780921567755268,0.04303924305731599,3.3277301624711977,10.367813848846147
5.430809490631408,2.401554818065036,4.781351960185841,0.14671738154577746,3.0596709584880077,10.827847307367632
5.454825038812059,2.4321515276499164,4.782819134001299,0.2549958546194538,2.788386564055755,11.276233449539184
5.479146554088558,2.460035393290474,4.785369092547493,0.36775818911484565,2.5118815372157175,11.712471374304021
5.503746908021463,2.4851542086626313,4.789046674438642,0.4848829028578859,2.2280486763415817,12.136086850275907
5.528598450108089,2.507434695426047,4.793895503467221,0.606243771360645,1.9347129786326183,12.54660004861477
5.553672797062349,2.5267818252123733,4.7999579411808275,0.7317097718467926,1.629672327898363,12.943503899064183
5.5789406153144725,2.5430785484913567,4.807275038899295,0.8611448108374344,1.3107351895684114,13.326253334130667
5.604371400799386,2.5561859003870406,4.81588648700767,0.9944073441787411,0.9757557792948739,13.69426528165919
5.6299332598032565,2.5659434581799894,4.825830560449457,1.1313499969953331,0.6226672347060197,14.046928983306614
5.6555926943850565,2.5721701305270495,4.83714406041941,1.2718192868283993,0.24951328594255803,14.383626016944293
5.681314395690327,2.574665263386475,4.849862253287694,1.4156555469978422,-0.145521182039779,14.70375924781682
5.707061048324192,2.573210051566077,4.864018808757672,1.5626931394760104,-0.5640804268342542,15.00678979423646
5.732793148839853,2.5675692472977345,4.879645740152432,1.712761037418375,-1.0076089179460523,15.29228094264047
5.758468841312831,2.557493158118274,4.896773350526615,1.8656838468447798,-1.477323243470306,15.559947763594108
5.784043772894013,2.542719925683571,4.915430188995063,2.021283324480721,-1.9741850395665013,15.809710948607842
5.809470972150849,2.522978075287906,4.93564302223987,2.1793804339667995,-2.4988751883787965,16.041753093127852
5.834700752903728,2.4979893234041177,4.9574368265795385,2.339797964898078,-3.051769498706151,16.256575278036074
5.859680646137769,2.4674716284170564,4.980834806228519,2.5023637176784383,-3.6329159225818857,16.455051329002433
5.88435536242194,2.4311424691912373,5.0058584434053035,2.666914230968463,-4.242013021925415,16.638476527054458
5.9086667871138525,2.3887223389719834,5.0325275857149885,2.8332989962390074,-4.878388820820617,16.808606752356862
5.932554010503573,2.339938450763777,5.060860575677379,3.001385063762576,-5.540978279928535,16.96768298404209
5.9559533950112105,2.2845286679644916,5.090874426315004,3.171061893602997,-6.228296302776453,17.118434625539052
5.978798681690855,2.2222457049367272,5.122585045251034,3.342246239858387,-6.938401285480344,17.264053088242154
6.001021138740223,2.152861692081924,5.156007507649618,3.5148867707408087,-7.668841559010273,17.408124172042644
6.022549755661042,2.0761732764918213,5.191156375357026,3.688968012461235,-8.416573389940936,17.554503642671403
6.04331148842596,1.992007542592412,5.228046055481638,3.8645130488879493,-9.177834169415387,17.707114499331173
6.063231563851884,1.9002292008982582,5.266691185970517,4.041584193881261,-9.947947623110496,17.869636080730537
6.082233855860867,1.8007497246671533,5.307107027909329,4.220280554688566,-10.721028872053507,18.045043591388755
6.100241353107538,1.6935394359466183,5.349309833456215,4.400730990602454,-11.489545609637075,18.234941102193208
6.1171767474670045,1.5786439798502476,5.39331714336224,4.583080401624386,-12.2436775906332,18.438611300069464
6.132963187265507,1.4562072039439156,5.439147947378484,4.767466514625081,-12.970401240350476,18.651682334837204
6.147525259304946,1.3265031915404109,5.486822612524735,4.953983337973453,-13.65221327438837,18.86429050142909
6.1607902912203505,1.1899810587965272,5.536362445904469,5.142626242987744,-14.265405950486434,19.05860882068091
6.172690101808316,1.0473269992916627,5.5877887083343465,5.333212331194552,-14.777836352853022,19.205641279645548
6.183163371801232,0.8995486357631325,5.641120831646292,5.525268743991008,-15.146229815174882,19.261300028218884
6.192158858158863,0.7480863376113837,5.696373519086202,5.717881744273197,-15.31328562248752,19.162073434478206
6.199639721534977,0.5949534813865085,5.753552336528934,5.909502478617979,-15.205300144447852,18.82118011021644
6.205589256348842,0.44290047994202997,5.812647361315113,6.097714279720143,-14.731773741641186,18.12711164065362
6.210018261148263,0.2955827425256181,5.873624504112314,6.2789853961266795,-13.78949741722405,16.947875085281748
6.212974088573519,0.1576877683533776,5.936414358073581,6.4484641469794965,-12.274543272950213,15.145560936341903
6.214550966257053,0.034942335623875484,6.0008989995433755,6.599919756342915,-10.105328991714565,12.60563556722859
6.214900389613292,-0.06611095429327017,6.066898197106805,6.725976112015201,-7.256648172611654,9.281086814272896
6.214239280070359,-0.1386774360193867,6.1341579582269565,6.81878698015793,-3.7968405104269034,5.241278905348712
6.212852505710165,-0.17664584112365572,6.202345828028536,6.871199769211417,0.08968160893767187,0.7020154903796086
6.211086047298928,-0.175749025034279,6.27105782572065,6.878219924115213,4.11591004043906,-3.9915154646113917
6.209328557048585,-0.1345899246298884,6.339840024961802,6.838304769469099,7.94988869033956,-8.439555247609372
6.207982657802287,-0.05509103772649279,6.408223072656493,6.753909216993005,11.29709154643274,-12.294145229161764
6.207431747425022,0.05787987773783462,6.475762164826423,6.630967764701388,13.968218406592502,-15.344862010063121
6.2080105462024004,0.19756206180375965,6.542071842473437,6.477519144600756,15.902072427256638,-17.54462232670084
6.209986166820438,0.35658278607632604,6.606847033919444,6.302072921333748,17.143338876374678,-18.976881497913975
6.213551994681201,0.5280161748400728,6.669867763132782,6.112304106354608,17.798326855359115,-19.79584542431174
6.218832156429602,0.7059994433936639,6.730990804196328,5.91434565211149,17.993054566749667,-20.17189188968375
6.2258921508635385,0.8859299890611606,6.790134260717442,5.712626733214653,17.845793698558968,-20.25734101434795
6.23475145075415,1.0643879260467504,6.847260528049589,5.5100533230711735,17.454500743163045,-20.172173591299458
6.245395330014617,1.2389329334783807,6.902361061280301,5.308331587158179,16.894345252756107,-20.002761027304025
6.257784659349401,1.4078763860059418,6.955444377151883,5.108303976885138,16.220312412666846,-19.806762627108395
6.27186342320946,1.5700795101326102,7.0065274169207346,4.9102363506140545,15.471495659756258,-19.619757141824472
6.287564218310786,1.7247944667301727,7.055629780426875,4.71403877919581,14.675331949482752,-19.461431529174806
6.304812162978088,1.8715477862250003,7.102770168218833,4.519424463904062,13.851101190316257,-19.340565992633543
6.323527640840338,2.010058798128163,7.147964412857874,4.3260188039777265,13.012562798485048,-19.2587520110131
6.343628228821619,2.1401844261130134,7.191224600897652,4.133431283867596,12.169830341740864,-19.21304539614638
6.36503007308275,2.2618827295304222,7.2325589137363275,3.9413008299061323,11.33064865873215,-19.197810719272255
6.387648900378053,2.375189216117744,7.271971922035389,3.74932272271341,10.501231330797646,-19.2059840434637
6.411400792539231,2.4802015294257203,7.3094651492625236,3.557262882278773,9.686787252739318,-19.229929083828925
6.436202807833489,2.5770694019531133,7.345037778085311,3.3649635914404836,8.891833617962181,-19.262012589684286
6.46197350185302,2.6659877381327353,7.3786874139997165,3.1723434655436407,8.120365980416201,-19.29498554586193
6.488633379234347,2.747191397936897,7.410410848655153,2.9793936100850216,7.375935545101129,-19.32222825657561
6.516105293213716,2.8209507533879083,7.440204784756003,2.7861713275192654,6.661668751688898,-19.337897668174378
6.544314800747595,2.8875674409047973,7.468066498031195,2.5927923508375215,5.980253323721169,-19.337002167252848
6.573190475156643,2.947369974142009,7.49399442153957,2.399422329164993,5.33390711429747,-19.315420605528928
6.602664174898063,3.000709045284984,7.51798864483122,2.206268123109704,4.724340394989761,-19.2698769461911
6.632671265350913,3.0479524492348813,7.540051326062318,2.0135693536477928,4.152718068569804,-19.197878605255813
6.663150789843262,3.089479629920579,7.5601870195987955,1.8215905675952346,3.6196252037558274,-19.09762451438893
6.694045586142468,3.1256758819581374,7.578402925274748,1.6306143224513454,3.1250370077679994,-18.967887648279433
6.725302344962049,3.1569262520358174,7.594709068499261,1.440935445968551,2.6682926919152274,-18.807875917755663
6.756871607482408,3.1836091789549696,7.609118422958947,1.2528566867909945,2.248071543068689,-18.617074750789687
6.788707699271957,3.2060898943856566,7.621646989826856,1.0666859392830976,1.8623688421694329,-18.39507430381996
6.820768598215814,3.2247135828073508,7.632313849219687,0.882735196244898,1.50846907102589,-18.14138410124919
6.853015734043887,3.23979827351761,7.641141201182136,0.7013213552324061,1.1829141717128642,-17.85523812094426
6.885413716779063,3.2516274152347386,7.64815441473446,0.5227689740229635,0.8814655771860855,-17.53539415224135
6.917929990931411,3.2604420710065996,7.65338210447469,0.34741503250055006,0.5990604917276754,-17.179932972465597
6.950534411641477,3.2664326759238764,7.6568562547996954,0.17561570277589408,0.3297657096569327,-16.786065934293966
6.9831987384007155,3.269730333020446,7.658612411827455,0.0077550434329544116,0.06673641927394976,-16.349964410372547
7.01589604173092,3.2703976972131854,7.658689962261784,-0.15574460067077106,-0.19780675540269874,-15.866631665299717
7.048600018703052,3.2684196296591583,7.657132516255076,-0.31441091732376825,-0.4725616017877788,-15.32984737480041
7.081284214999643,3.2636940136412806,7.6539884070818385,-0.46770939107177234,-0.7670589565146295,-14.732226887854695
7.1139211551360555,3.2560234240761345,7.649311313171121,-0.6150316599503193,-1.0914682070989263,-14.065450000256325
7.146481389376817,3.2451087420051454,7.643160996571618,-0.7556861599528826,-1.4562456635815004,-13.32072412148665
7.178932476796868,3.2305462853693303,7.635604134972089,-0.8888934011677491,-1.871575851199394,-12.489548136028718
7.2112379396505615,3.2118305268573364,7.626715200960412,-1.0137888825280363,-2.346566577668614,-11.56482667341953
7.243356244919135,3.1883648610806503,7.6165773121351315,-1.1294371492622317,-2.888190407863522,-10.542338484627683
7.275239893529942,3.159482957002015,7.6052829406425095,-1.2348605341085086,-3.5000249571482995,-9.422477592340453
7.3068347230999615,3.124482707430532,7.5929343353014245,-1.329085310031913,-4.1809324134803925,-8.212062014086804
7.338079550174267,3.082673383295728,7.579643482201106,-1.411205930172781,-4.923920627943059,-6.925862885910347
7.368906284007224,3.0334341770162974,7.565531422899378,-1.4804645590318846,-5.715509310664135,-5.5873961028658385
7.399240625777387,2.976279083909656,7.550726777309059,-1.536338520060543,-6.535933850777206,-4.22851177436085
7.429003416616483,2.910919745401884,7.5353633921084535,-1.5786236378041516,-7.360408038258229,-2.887480764459819
7.458112614070502,2.8373156650193017,7.519577155730412,-1.6074984454487498,-8.161425956624713,-1.6056240023291728
7.486485770720694,2.7557014054530544,7.503502171275924,-1.6235546854720415,-8.911771510589807,-0.4229734792049275
7.514042784775225,2.6665836903471565,7.487266624421204,-1.6277844202640908,-9.587643233963433,0.6261799799973548
7.5407086216786965,2.570707258007522,7.470988780218563,-1.621522620464117,-10.17122026502759,1.5168891456304496
7.5664156942587715,2.4689950553572464,7.454773554013921,-1.6063537290078127,-10.652147412334529,2.2355657445322685
7.591105644812344,2.362473581233901,7.438710016723843,-1.58399807156249,-11.02774170507013,2.780140879716741
7.614730380624683,2.2521961641831996,7.422870036008218,-1.5561966627653225,-11.302075947207323,3.158609166597897
7.637252342266515,2.139175404711126,7.407308069380565,-1.5246105710993436,-11.484336854058764,3.386539654120133
7.658644096313626,2.0243320361705384,7.392061963669572,-1.4907451745581424,-11.586923433481227,3.4842302438715236
7.678887416675331,1.9084628018357261,7.37715451192399,-1.4559028721194271,-11.623671501401994,3.4740639127962845
