th1 (rad),w1 (rad/s),th2 (rad),w2 (rad/s),a1 (rad/s^2),a2 (rad/s^2)
1.0588802007600615,1.8493187666927162,2.331062853070607,1.800215347912809,-5.717005407854811,-8.688305438167292
1.0773733884269887,1.7921487126141682,2.349065006549735,1.713332293531136,-6.008900010485296,-8.277458914959846
1.0952948755531304,1.7320597125093151,2.366198329485046,1.6305577043815376,-6.2802010621053155,-7.870828119550131
1.1126154726782236,1.669257701888262,2.3825039065288616,1.5518494231860362,-6.532174871405447,-7.470121085350816
1.1293080496971062,1.6039359531742075,2.398022400760722,1.4771482123325281,-6.766029378363682,-7.076986208537995
1.1453474092288483,1.5362756593905706,2.4127938828840474,1.4063783502471483,-6.982906316796292,-6.693001794765446
1.1607101658227539,1.4664465962226076,2.426857666386519,1.339448332299494,-7.183875889604594,-6.319668701227896
1.17537463178498,1.3946078373265618,2.4402521497095138,1.276251645287215,-7.369933764192465,-5.958405548999533
1.1893207101582457,1.3209084996846372,2.4530146661623857,1.2166675897972197,-7.5420001610714476,-5.610546021685431
1.2025297951550922,1.2454884980739227,2.465181342060358,1.1605621295803654,-7.700920786932071,-5.277337815750615
1.2149846801358315,1.168479290204602,2.4767869633561617,1.1077887514228593,-7.847469352221651,-4.959942861952526
1.2266694730378775,1.0900045966823855,2.48786485087039,1.0581893228033339,-7.982351410443744,-4.6594384931098
1.2375695190047014,1.010181082577948,2.4984467440984237,1.011594937872236,-8.106209260105135,-4.37681928853681
1.247671329830481,0.9291189899768967,2.508562693477146,0.9678267449868678,-8.219627658849882,-4.112999377931445
1.2569625197302499,0.8469227133883979,2.5182409609270144,0.9266967512075533,-8.32314011146071,-3.8688150358944218
1.2654317468641338,0.7636913122737907,2.52750792843909,0.8880086008486091,-8.417235507947602,-3.6450274416001025
1.2730686599868717,0.6795189571943147,2.536388014447576,0.8515583264326081,-8.502364903982826,-3.4423255158322004
1.2798638495588148,0.5944953081544864,2.5449035977119023,0.8171350712742861,-8.57894825278608,-3.2613287793550896
1.2858088026403598,0.5087058256266256,2.553074948424645,0.7845217834807352,-8.647380914694978,-3.1025902023643805
1.2908958608966261,0.4222320164796758,2.5609201662594523,0.7534958814570913,-8.708039787707408,-2.9665990346720577
1.295118181061423,0.3351516186026017,2.5684551250740233,0.7238298911103708,-8.76128891901007,-2.8537836205673512
1.298469697247449,0.247538729412501,2.575693423985127,0.6952920549046973,-8.807484473767992,-2.7645142112537453
1.300945084541574,0.15946388467482106,2.5826463445341736,0.6676469127921598,-8.846978953174563,-2.699105791723522
1.3025397233883222,0.07099409514307542,2.589322813662095,0.6406558548749246,-8.880124568933434,-2.657820938231718
1.303249664339753,-0.01780715054625892,2.5957293722108443,0.6140776454926075,-8.907275695973661,-2.640872717510715
1.3030715928342904,-0.10687990750599553,2.6018701486657703,0.5876689183175003,-8.92879033930453,-2.648427629872847
1.3020027937592304,-0.19616781089904084,2.6077468378489455,0.5611846420187718,-8.945030564499298,-2.6806085857506363
1.30004111565024,-0.2856181165440338,2.613358684269133,0.5343785561612655,-8.956361854330206,-2.737497889433735
1.2971849344847997,-0.3751817350873359,2.6187024698307457,0.5070035772669281,-8.963151366493756,-2.819140185250356
1.2934331171339264,-0.4648132487522734,2.623772505603415,0.47881217541442456,-8.965765079055943,-2.925545300759468
1.2887849846464037,-0.5544708995428329,2.628560627357559,0.44955672240682987,-8.964563821069252,-3.0566908993071307
1.2832402756509753,-0.6441165377535254,2.6330561945816275,0.41898981341375857,-8.959898195607115,-3.212524831285145
1.27679911027344,-0.7337155197095966,2.637246092715765,0.3868645651009071,-8.952102411077247,-3.392967050426271
1.269461955076344,-0.823236543820369,2.641114738366774,0.3529348945966444,-8.941487044009072,-3.5979109393604527
1.2612295896381402,-0.9126514142604598,2.64464408731274,0.31695578520303985,-8.928330762542778,-3.8272238683765507
1.2521030754955356,-1.0019347218858876,2.6478136451647707,0.27868354651927435,-8.912871044685806,-4.080746793853311
1.2420837282766768,-1.0910634323327457,2.6506004806299632,0.23787607858074125,-8.895293929320358,-4.358292689130611
1.2311730939533494,-1.1800163716259493,2.6529792414157707,0.19429315168943515,-8.875722841415387,-4.659643591689942
1.21937293023709,-1.268773600040103,2.654922172932665,0.14769671577253574,-8.854206536613113,-4.984546047420914
1.206685194236689,-1.3573156654062342,2.6563991400903904,0.09785125529832658,-8.83070621525092,-5.332704736520638
1.1931120375826265,-1.4456227275587434,2.6573776526433734,0.0445242079331202,-8.805081863099014,-5.703774077314194
1.178655810307039,-1.5336735461897335,2.6578228947227047,-0.01251353284002174,-8.777077887001452,-6.097347625193484
1.1633190748451416,-1.6214443250597481,2.6576977593943045,-0.07348700909195657,-8.746308129727037,-6.512945115260576
1.1471046315945441,-1.7089074063570184,2.6569628893033848,-0.13861646024456234,-8.712240371294001,-6.949997040575921
1.130015557530974,-1.7960298100699585,2.655576724700939,-0.20811643065032154,-8.674180455478167,-7.407826714727735
1.1120552594302744,-1.8827716146247402,2.653495560394436,-0.28219469779759887,-8.63125622171827,-7.885629839428005
1.093227543284027,-1.969084176841923,2.65067361341646,-0.3610509961918789,-8.582401475556331,-8.382451686689516
1.0735367015156079,-2.054908191597486,2.6470631034545415,-0.44487551305877404,-8.526340296099368,-8.897162112416778
1.052987619599633,-2.14017159455848,2.6426143483239537,-0.5338471341829418,-8.46157205722955,-9.428428745209072
1.0315859036540482,-2.2247873151307753,2.637275876982124,-0.6281314216350325,-8.386357630156725,-9.974688841515245
1.0093380305027404,-2.3086508914323427,2.630994562765774,-0.727878310050185,-8.298707337179362,-10.53412046580206
0.986251521588417,-2.3916379648041364,2.623715779665272,-0.8332195147082055,-8.196371337796926,-11.104613840659825
0.9623351419403756,-2.4736016781821055,2.61538358451819,-0.9442656531148038,-8.07683324479599,-11.683743913700816
0.9375991251585546,-2.5543700106300653,2.605940927987042,-1.061103092251812,-7.9373078842178035,-12.268745400638918
0.9120554250522539,-2.6337430894722433,2.5953298970645235,-1.1837905462582012,-7.774744222077405,-12.856491779694402
0.8857179941575315,-2.7114905316930176,2.5834919916019414,-1.3123554640551451,-7.585834573428323,-13.44347992156138
0.8586030888406013,-2.7873488774273008,2.57036843696139,-1.446790263270759,-7.367031275211309,-14.025822229191663
0.8307296000663283,-2.8610191901794138,2.5559005343286825,-1.5870484855626756,-7.114572031123339,-14.59924831783811
0.8021194081645342,-2.932164910490647,2.5400300494730557,-1.7330409687410568,-6.824515111151274,-15.159118371534172
0.7727977590596278,-3.00041006160216,2.522699639785645,-1.8846321524563985,-6.492785496410111,-15.700450349667383
0.7427936584436061,-3.065337916566261,2.5038533182610814,-2.0416366559530723,-6.115232887421576,-16.217963168501292
0.7121402792779435,-3.126490245440477,2.4834369517015507,-2.203816287638085,-5.687702227510035,-16.706137830218683
0.6808753768235388,-3.1833672677155773,2.4613987888251696,-2.370877665940272,-5.206117020486769,-17.159298201035092
0.6490417041463831,-3.235428437920445,2.437690012165767,-2.5424706479506227,-4.666575233250776,-17.571712737830804
0.6166874197671787,-3.282094190252953,2.412265305686261,-2.7181877753289307,-4.0654569622441095,-17.937717920977448
0.5838664778646492,-3.322748759875394,2.3850834279329716,-2.897564954538705,-3.399542304548029,-18.25186346539448
0.5506389902658952,-3.3567441829208744,2.3561077783875843,-3.08008358919265,-2.666137011543052,-18.509078553229674
0.5170715484366865,-3.383405553036305,2.325306942495658,-3.2651743747249466,-1.863202524204023,-18.704857366908758
0.4832374929063234,-3.402037578278345,2.2926551987484083,-3.4522229483940343,-0.9894859128129294,-18.835461115736376
0.44921711712353996,-3.4119324374064743,2.258132969264468,-3.640577559551398,-0.0446441025224725,-18.89813256941796
0.4150977927494752,-3.412378878431699,2.221727193668954,-3.8295588852455777,0.970644389031239,-18.891317881388005
0.38097400396515824,-3.4026724345413863,2.1834316048164983,-4.018472064059458,2.054588069750045,-18.81488927124428
0.34694727961974436,-3.382126553843886,2.1432468841759036,-4.206620956771901,3.20422024358491,-18.6703610382727
0.3131260140813055,-3.3500843514080367,2.1011806746081847,-4.393324567154628,4.41537536279136,-18.46109053459535
0.27962517056722513,-3.305930597780123,2.0572474289366385,-4.577935472500582,5.682713571734161,-18.192455314499266
0.2465658645894239,-3.2491034620627817,2.0114680742116327,-4.759860025645574,6.999802617340626,-17.871997906968804
0.21407482996879607,-3.1791054358893756,1.963869473955177,-4.938580004715262,8.359265104762546,-17.50953075697095
0.1822837756099023,-3.09551278484175,1.9144836739080244,-5.113675312284972,9.75299702330125,-17.117196055369558
0.1513286477614848,-2.9979828146087377,1.8633469207851747,-5.284847272838667,11.17246055274744,-16.709478572225382
0.12134881961539742,-2.886258209081263,1.810498448056788,-5.451942058560921,12.609050504846643,-16.30317425296568
0.09248623752458479,-2.7601677040327965,1.7559790274711788,-5.614973801090578,14.054529621272199,-15.9173230939038
0.06488456048425682,-2.6196224078200747,1.6998292894602731,-5.7741470320296155,15.50152372505515,-15.573121336780492
0.038688336406056074,-2.4646071705695234,1.642087819139977,-5.92987824539742,16.944063849316617,-15.293834728073495
0.014042264700360841,-2.2951665320763572,1.582789036686003,-6.082816592678155,18.378159307695586,-15.104740629758032
-0.00890940062040273,-2.1113849389994015,1.5219608707592214,-6.233863998975735,19.802383284559042,-15.033130965594243
-0.030023250010396747,-1.9133611061538112,1.459622230769464,-6.384195308631678,21.218450321473718,-15.108408641349927
-0.04915686107193486,-1.701176602939074,1.3957802776831472,-6.535279395045177,22.631761275590208,-15.362304484564811
-0.0661686271013256,-1.474858990183172,1.3304274837326955,-6.688902439890825,24.05188201454248,-15.829225111635925
-0.08091721700315732,-1.2343401700377472,1.2635384593337873,-6.847194691007184,25.492899546622432,-16.546705269670614
-0.09326061870353479,-0.9794111745715228,1.1950665124237154,-7.01266174370389,26.973548605255793,-17.555862942414013
-0.10305473044925002,-0.7096756885189649,1.1249398949866765,-7.18822037312803,28.51689451378566,-18.901605532324293
-0.11015148733443968,-0.4245067433811083,1.0530576912553962,-7.377236428451273,30.149139993041924,-20.63203842880998
-0.11439655476825075,-0.12301534345068904,0.9792853269708834,-7.583556812739372,31.896690228556484,-22.79594108771502
-0.11562670820275764,0.1959515588348758,0.9034497588434898,-7.811516223616523,33.77976609093052,-25.436027839354594
-0.11366719261440889,0.5337492197441811,0.8253345966073246,-8.065876502010068,35.79924974499252,-28.573505371337383
-0.10832970041696707,0.8917417171941063,0.7446758315872238,-8.351611555723442,37.91052966429515,-32.17537932228492
-0.099412283245026,1.2708470138370578,0.6611597160299894,-8.673365348946291,39.97332097641008,-36.08917880086104
-0.08670381310665543,1.6705802236011587,0.5744260625405264,-9.034257136954901,41.66048541187897,-39.92103864157414
-0.06999801087064383,2.0871850777199485,0.4840834911709774,-9.433467523370643,42.30884132389679,-42.83180239137633
-0.04912616009344435,2.5102734909589164,0.38974881593727095,-9.861785547284406,40.72877806901349,-43.270123152922395
-0.024023425183855186,2.9175612716490513,0.2911309604644269,-10.29448677881363,35.1275804112539,-38.8489042920389
0.005152187532635327,3.2688370757615903,0.18818609267629058,-10.682975821734018,23.604619679044713,-26.988555534569034
0.03784055829025123,3.5048832725520374,0.0813563344589504,-10.952861377079708,5.7958051993103,-7.121119472375397
0.0728893910157716,3.5628413245451402,-0.028172279311846696,-11.024072571803462,-15.083766580383076,16.563533080101585
0.10851780426122301,3.4120036587413094,-0.1384130050298813,-10.858437241002447,-33.03879910301667,36.234346007562635
0.14263784084863612,3.0816156677111426,-0.24699737743990577,-10.49609378092682,-43.85870017928897,46.574626004354535
0.17345399752574756,2.643028665918253,-0.351958315249174,-10.030347520883275,-47.778656394352865,48.21632389515048
0.1998842841849301,2.1652421019747243,-0.45226179045800674,-9.54818428193177,-47.42019168705148,44.81666395758063
0.22153670520467733,1.6910401851042096,-0.5477436332773244,-9.100017642355963,-45.15614848757376,39.533367423269254
0.23844710705571942,1.239478700228472,-0.6387438097008841,-8.704683968123271,-42.345923322812446,34.0963026900952
0.25084189405800417,0.8160194670003476,-0.7257906493821168,-8.36372094122232,-39.59347772361714,29.221355011164864
0.2590020887280076,0.4200846897641761,-0.80942785879434,-8.071507391110671,-37.10640326960109,25.115580608195494
0.2632029356256494,0.04902065706816522,-0.8901429327054466,-7.820351585028717,-34.916788262823054,21.774735750385258
0.26369314219633105,-0.30014722556006534,-0.9683464485557338,-7.602604227524864,-32.98905899546453,19.122427502733736
0.2606916699407304,-0.6300378155147106,-1.0443724908309824,-7.411379952497527,-31.267328113635017,17.067481858334233
0.2543912917855833,-0.9427110966510608,-1.1184862903559576,-7.240705133914185,-29.694692913240136,15.524707761448058
0.24496418081907267,-1.2396580257834622,-1.1908933416950995,-7.0854580562997045,-28.22037691899415,14.420526360581096
0.23256760056123804,-1.5218617949734037,-1.2617479222580965,-6.941252792693893,-26.801854367436157,13.692832165866509
0.217348982611504,-1.7898803386477653,-1.3311604501850354,-6.804324471035228,-25.40502867816953,13.288988071398633
0.19945017922502636,-2.0439306254294607,-1.3992036948953877,-6.671434590321241,-24.003735730802916,13.163510672414642
0.17901087297073176,-2.2839679827374897,-1.4659180407986,-6.539799483597095,-22.579064600736764,13.276022584671908
0.15617119314335687,-2.5097586287448572,-1.531316035634571,-6.407039257750376,-21.118660003707475,13.589648631508524
0.1310736068559083,-2.720945228781932,-1.5953864282120747,-6.271142771435291,-19.61603931241698,14.069874165088343
0.10386415456808898,-2.917105621906102,-1.6580978559264277,-6.130444029784408,-18.069911997016337,14.68382316465791
0.07469309834902796,-3.0978047418762653,-1.7194022962242717,-5.983605798137829,-16.483481826576092,15.399891642315811
0.0437150509302653,-3.262639560142026,-1.77923835420565,-5.82960688171467,-14.863719963680083,16.187664576324334
0.011088655328845037,-3.411276759778827,-1.8375344230227968,-5.667730235951427,-13.220609624911983,17.018043450588824
-0.023024112268943235,-3.5434828560279468,-1.894211725382311,-5.497549801445539,-11.56637495875436,17.863513927221444
-0.058458940829222705,-3.6591466056154904,-1.9491872233967664,-5.3189146621733245,-9.914715536736994,18.698488692379655
-0.09505040688537761,-3.7582937609828604,-2.0023763700184998,-5.131929775249528,-8.280072261034986,19.499668883232268
-0.13263334449520622,-3.8410944835932104,-2.053695667770995,-4.936933086417206,-6.676950545209106,20.246378179860503
-0.17104428933113833,-3.9078639890453015,-2.1030649986351673,-4.7344693046186,-5.119323068872816,20.920835661153685
-0.21012292922159134,-3.9590572197340297,-2.1504096916813533,-4.525260948007063,-3.620128435298991,21.50834567680234
-0.24971350141893164,-3.9952585040870194,-2.195662301161424,-4.31017749123904,-2.190875001962226,21.997394126055323
-0.28966608645980185,-4.017167254106642,-2.238764076073814,-4.090203549978487,-0.8413521979310049,22.379649799386907
-0.32983775900086826,-4.0255807760859526,-2.279666111573599,-3.8664070519846176,0.4205543451424906,22.64987639972842
-0.3700935667617278,-4.021375232634528,-2.318330182093445,-3.6399082879873337,1.5889520721520747,22.805765512532016
-0.41030731908807305,-4.005485711913007,-2.3547292649733187,-3.4118506328620137,2.659946431732075,22.847703461728823
-0.45036217620720315,-3.9788862475956863,-2.388847771301939,-3.1833735982447253,3.631574335308904,22.778486163859096
-0.49015103868316,-3.9425705042425974,-2.420681507284386,-2.9555887366061344,4.503679616283104,22.602996281019507
-0.5295767437255859,-3.8975337080797665,-2.4502373946504474,-2.7295587737959393,5.277743810533824,22.32785658073155
-0.5685520808063836,-3.8447562699744284,-2.4775329823884067,-2.506280207988624,5.956684973907456,21.961072691345784
-0.6069996435061279,-3.785189420235354,-2.502595784468293,-2.286669481075166,6.544636370105516,21.511677502768354
-0.6448515377084815,-3.719743056534299,-2.5254624792790445,-2.0715527060474828,7.046715797480124,20.989388310374753
-0.6820489682738244,-3.6492758985594977,-2.5461780063395194,-1.8616588229437352,7.468795109564769,20.40428640000217
-0.7185417272594194,-3.5745879474638502,-2.5647945945689568,-1.6576159589437134,7.817278130483601,19.76652710144671
-0.7542876067340579,-3.4964151661590144,-2.5813707541583937,-1.4599506879292463,8.098893685974392,19.08608642061602
-0.7892517583956481,-3.4154262292992703,-2.595970261037686,-1.269089823723086,8.320508898453534,18.372548275409457
-0.8234060206886408,-3.332221140314735,-2.608661159274917,-1.0853643409689915,8.488966289871206,17.63493423032812
-0.8567282320917882,-3.247331477416023,-2.619514802684607,-0.9090149986657103,8.610946675631121,16.881575592414762
-0.8892015468659484,-3.1612220106597118,-2.628604952671264,-0.7401992427415627,8.692858396929138,16.120025931885348
-0.9208137669725456,-3.0742934266904203,-2.6360069450986794,-0.5789989834227092,8.740752197872853,15.357010630624217
-0.9515567012394498,-2.986885904711692,-2.6417969349329065,-0.425428877116467,8.760260057677826,14.59840900338628
-0.9814255602865667,-2.8992833041349138,-2.646051223704071,-0.2794447870826042,8.756555561497937,13.84926389638172
-1.0104183933279158,-2.8117177485199343,-2.648845671574897,-0.14095214811878698,8.734332934863007,13.113813420712424
-1.0385355708131152,-2.7243744191713044,-2.650255193056085,-0.009814013911662756,8.697801653591673,12.395539567683471
-1.0657793150048283,-2.6373964026353875,-2.6503533331952016,0.11414138176517195,8.650693535653923,11.697228804821284
-1.092153279031182,-2.5508894672788482,-2.64921191937755,0.2311136698133848,8.59627937795967,11.021040284865816
-1.1176621737039705,-2.4649266734992517,-2.646900782679416,0.34132407266204295,8.537392471951746,10.368577938179715
-1.142311440438963,-2.379552748779734,-2.6434875419527954,0.44500985204384014,8.476456672928796,9.740963395523254
-1.1661069679267602,-2.2947881820504463,-2.639037443432357,0.5424194859990726,8.415517071388411,9.138907350631198
-1.1890548497472646,-2.2106330113365624,-2.6336132485723662,0.6338085595053846,8.356271690517037,8.562777583155297
-1.2111611798606303,-2.127070294431392,-2.6272751629773126,0.7194363353369376,8.300102990625165,8.012662398997806
-1.2324318828049443,-2.0440692645251404,-2.6200807996239432,0.7995629593269157,8.248108284722981,7.488428695469898
-1.2528725754501957,-1.9615881816779106,-2.612085170030674,0.8744472462816146,8.201128451747694,6.98977422097471
-1.2724884572669748,-1.8795768971604336,-2.603340697567858,0.9443449884913617,8.159774572258398,6.516273877602127
-1.291284226238579,-1.7979791514378496,-2.5938972476829445,1.009507727267383,8.124452306242846,6.067420118984516
-1.3092640177529575,-1.7167346283754212,-2.5838021704102707,1.070181928457228,8.095383986786493,5.642657636201943
-1.3264313640367118,-1.6357807885075564,-2.5731003511256985,1.1266085048192476,8.072628520697045,5.2414126135236625
-1.3427891719217873,-1.5550545033005858,-2.561834266077506,1.1790226309544842,8.056099272169277,4.863116885247797
-1.358339716954793,-1.474493510578893,-2.550044039767961,1.227653799806962,8.045580162564471,4.507227345925868
-1.373084652060582,-1.3940377089532483,-2.5377675017698915,1.2727260732662207,8.040740252354171,4.173240968647447
-1.3870250291501145,-1.3136303064297066,-2.5250402410372295,1.314458482952695,8.041147083737558,3.8607057781462415
