th1 (rad),w1 (rad/s),th2 (rad),w2 (rad/s)
1.036920928517446,-0.20355472377459974,5.514610392722855,0.9669933165793542
1.0348853812797,-0.28674623684354944,5.524280325888649,1.01617097538349
1.0320179189112646,-0.3705459376469363,5.534442035642483,1.0658769815575677
1.0283124595347952,-0.4549600930582886,5.545100805458059,1.1163362359089337
1.0237628586042122,-0.5400032006752551,5.556264167817148,1.1677795050178046
1.0183628265974596,-0.6256993808799307,5.567941962867327,1.220443880592165
1.0121058327886603,-0.7120838439328656,5.5801464016732485,1.2745734272764868
1.0049849943493316,-0.7992044485825008,5.5928921359460135,1.3304200530292352
0.9969929498635066,-0.8871233721058714,5.606196336476306,1.388244640176725
0.9881217161424479,-0.9759189157458963,5.620078782878073,1.4483184798610516
0.9783625269849889,-1.0656874742237685,5.634561967676683,1.5109250578785691
0.9677056522427513,-1.1565457033959787,5.649671218255469,1.5763622458715096
0.9561401952087915,-1.2486329261435445,5.665434840714185,1.6449449584331297
0.943653865947356,-1.342113823058137,5.681884290298516,1.7170083437133754
0.9302327277167747,-1.4371814610526181,5.69905437373565,1.792911582093542
0.9158609131062485,-1.534060718944599,5.716983489556585,1.8730423734813888
0.9005203059168025,-1.633012173009845,5.7357139132913995,1.9578221969802112
0.8841901841867041,-1.734336505124056,5.755292135261201,2.0477124239094544
0.8668468191354636,-1.8383794873281496,5.775769259500295,2.143221350807826
0.8484630242621821,-1.9455375724806911,5.797201473008374,2.244912183497402
0.8290076485373752,-2.0562640692320984,5.819650594843348,2.3534119300840244
0.8084450078450542,-2.1710757807802055,5.843184714144188,2.4694210220058452
0.7867342500372522,-2.2905598068407813,5.867878924364247,2.5937232307200526
0.7638286519688443,-2.415379889903802,5.8938161566714475,2.7271950037499084
0.7396748530698063,-2.5462811343543965,5.921088106708947,2.870812573879203
0.7142120417262623,-2.6840909806380635,5.9497962324477385,3.025653875976354
0.6873711319198816,-2.8297127128152586,5.980052771207502,3.1928900685270163
0.6590740047917291,-2.984105090888202,6.011981671892772,3.373757705082408
0.6292329538828471,-3.1482372677435086,6.0457192489435965,3.5694964065002224
0.597750581205412,-3.3230010222210935,6.081414213008599,3.7812269095549547
0.5645205709832011,-3.509051362677893,6.119226482104148,4.009728986243406
0.5294300573564221,-3.7065309939265383,6.159323771966582,4.255056887583368
0.49236474741715675,-3.9146157861005966,6.201874340842416,4.515904135852798
0.4532185895561508,-4.130807226109827,6.247033382200944,4.788613611946884
0.4119105172950525,-4.349924329081109,6.2949195183204125,5.06576560475585
0.36841127400424145,-4.5628807629775965,6.345577174367971,5.334462767123361
0.3227824663744655,-4.755680343027474,6.3989218020392045,5.5749175992706395
0.27522566294419076,-4.909660837622917,6.454670978031911,5.760785273458902
0.2261290545679616,-5.004469850861573,6.512278830766499,5.863322685888649
0.17608435605934586,-5.0243974379356695,6.570912057625386,5.860252450778918
0.12584038167998918,-4.965613610657304,6.629514582133175,5.74589968341648
0.07618424557341613,-4.838981454608472,6.68697357896734,5.535140163331435
0.02779443102733141,-4.66548254237583,6.742324980600654,5.257017847623157
-0.018860394396426894,-4.467814373619326,6.794895159076885,4.943018707515257
-0.06353853813262016,-4.264123291110955,6.844325346152038,4.618334254771713
-0.10617977104372969,-4.0661069950885524,6.8905086886997555,4.299222879739824
-0.14684084099461522,-3.879990463565747,6.933500917497153,3.994371525404916
-0.1856407456302727,-3.708319755991215,6.973444632751202,3.7073903637669625
-0.22272394319018485,-3.5515009509875,7.010518536388872,3.438949057958883
-0.25823895270005987,-3.4088333510893323,7.044908026968461,3.1882085315210347
-0.29232728621095316,-3.2791208841235573,7.076790112283671,2.953666778532142
-0.32511849505218876,-3.1610053215435903,7.106326780068993,2.7336190247144834
-0.3567285482676247,-3.0531350791499743,7.133662970316138,2.5263903596457986
-0.38725989905912445,-2.9542428012075854,7.158926873912596,2.330442320266003
-0.4168023270712003,-2.863174646762459,7.182231297115256,2.1444127789306076
-0.4454340735388249,-2.778895220008126,7.203675424904562,1.9671221572768065
-0.4732230257389062,-2.700481080747734,7.22334664647733,1.7975637514361795
-0.5002278365463835,-2.627109635995339,7.241322283991692,1.634887482395479
-0.5264989329063369,-2.5580468712607853,7.257671158815646,1.4783817838223843
-0.5520794016189448,-2.492635588643235,7.27245497665387,1.3274558841325557
-0.5770057575053771,-2.430284874505668,7.285729535495196,1.1816234540548516
-0.6013086062504338,-2.370461032884923,7.297545770035744,1.0404879366376905
-0.625013216579283,-2.3126799792707065,7.3079506494021205,0.9037295596045708
-0.64814001637199,-2.2565009776070175,7.316987944998166,0.7710938908216872
-0.6707050261480602,-2.201521559072139,7.324698883906383,0.6423817502693825
-0.6927202417387816,-2.1473734509998423,7.331122701409077,0.5174402899721918
-0.71419397624878,-2.093719350515771,7.336297104308799,0.3961550720745691
-0.7351311697539377,-2.0402503908703205,7.340258655029545,0.2784430015873247
-0.7555336736626409,-1.9866841644110547,7.343043085045418,0.1642459975543651
-0.7754005153067515,-1.932763182434693,7.344685545020961,0.05352531121975604
-0.7947281471310984,-1.878253667822094,7.345220798133158,-0.05374357920780344
-0.8135106838093193,-1.822944591033392,7.34468336234108,-0.15757555080499852
-0.8317401297196533,-1.766646873639776,7.34310760683303,-0.2579799361161299
-0.849406598456051,-1.7091926961043669,7.340527807471869,-0.35496417317189227
-0.8664985254170947,-1.6504348580205215,7.33697816574015,-0.4485370313575519
-0.8830028739972999,-1.5902461494757736,7.332492795426575,-0.5387114357579771
-0.8989053354920576,-1.5285187016142665,7.3271056810689945,-0.6255069111102393
-0.9141905225082003,-1.4651632927872944,7.320850611957892,-0.7089516663060471
-0.9288421554360733,-1.4001085938788675,7.313761095294832,-0.7890843409907105
-0.942843241374862,-1.3333003424550927,7.305870251884925,-0.8659554367718469
-0.9561762447994129,-1.264700440323217,7.297210697517206,-0.939628456545242
-0.9688232492026451,-1.1942859729418813,7.287814412951754,-1.0101807762334027
-0.9807661089320638,-1.122048151975694,7.27771260518942,-1.0777042736783367
-0.9919865904518208,-1.0479911842419967,7.266935562452637,-1.142305739486205
-1.0024665022942407,-0.9721310714855251,7.255512505057775,-1.2041070943140184
-1.012187813009096,-0.8944943459800907,7.2434714341146345,-1.263245436500034
-1.021132756468897,-0.8151167470396653,7.230838979749634,-1.3198729431896776
-1.0292839239392937,-0.7340418432595671,7.217640250317737,-1.3741566473355618
-1.0366243423718893,-0.6513196048186799,7.203898683844381,-1.4262781122926353
-1.043137538420076,-0.5670049295470446,7.189635902721454,-1.4764330253139826
-1.0488075877155465,-0.48115612576064054,7.174871572468314,-1.5248307311827767
-1.053619148973153,-0.39383335411526726,7.159623265156486,-1.5716937275661147
-1.0575574825143057,-0.30509702993077636,7.143906327880825,-1.617257144491383
-1.0606084528136135,-0.21500618655284043,7.127733756435911,-1.6617682316418496
-1.0627585146791418,-0.12361679929424173,7.111116074119493,-1.7054858789393847
-1.0639946826720843,-0.030980068253666684,7.094061215330099,-1.748680198108193
-1.064304483354621,0.06285934324484402,7.076574413349016,-1.7916321955691576
-1.0636758899221725,0.15786511981546653,7.058658091393324,-1.8346335700803715
-1.062097238724018,0.25401116248532646,7.040311755692521,-1.877986672011858
-1.0595571270991646,0.35128352529702767,7.021531888972403,-1.9220046650419846
-1.0560442918461943,0.4496824346923782,7.002311842321983,-1.9670119354413098
-1.0515474674992704,0.5492244109952469,6.9826417229675695,-2.013344799052509
-1.046055223389318,0.6499445168951631,6.962508274977044,-2.06135256170096
-1.0395557782203662,0.7518987644132531,6.941894749360035,-2.111398995221141
-1.0320367905762335,0.8551667194590356,6.9207807594078234,-2.163864298703154
-1.023485123381643,0.9598543517605093,6.899142116420792,-2.2191476230581433
-1.013886579864038,1.0660971875749958,6.87695064019021,-2.27767024657038
-1.003225607988288,1.1740638328902306,6.854173937724506,-2.33987949951671
-0.9914849696593857,1.283959945206066,6.8307751427293395,-2.4062535465206225
-0.978645370207325,1.396032741270211,6.806712607264133,-2.4773071445985724
-0.9646850427946229,1.5105761341316573,6.781939535818148,-2.5535984999648433
-0.9495792814533063,1.6279365916020831,6.756403550818499,-2.6357373422311703
-0.9332999155372854,1.7485197926300395,6.730046177396187,-2.724394311026772
-0.915814717610985,1.8727981158294849,6.70280223428592,-2.8203116902284995
-0.8970867364526901,2.0013189039266477,6.674599117383635,-2.9243153991090742
-0.8770735474134236,2.1347132718559214,6.645355963392544,-3.0373279059285014
-0.8557264146948643,2.2737049001029086,6.614982684333259,-3.160381277987573
-0.8329893656938352,2.419117667445432,6.583378871553383,-3.2946287678870427
-0.8087981890193808,2.5718799377607793,6.550432583874512,-3.4413518923793283
-0.783079389641773,2.7330214998615907,6.516019064950719,-3.6019574343657887
-0.7557491746431572,2.9036560254601613,6.479999490607061,-3.777954431100757
-0.7267126143885555,3.084936580639725,6.442219946296054,-3.9708937706593725
-0.6958632485821582,3.2779628646188943,6.40251100858946,-4.182240624612384
-0.6630836199359693,3.4836046799439306,6.360688602343337,-4.413130088907657
-0.62824757313653,3.7021850914804832,6.31655730145426,-4.663926844238315
-0.5912257222217252,3.932940089302556,6.269918033011877,-4.933472091398647
-0.5518963213286996,4.17315129905635,6.220583312097891,-5.217872094533147
-0.510164808338136,4.4168754551851865,6.16840459115256,-5.50871977279927
-0.46599605378628417,4.653369371764474,6.113317393424567,-5.790884620647899
-0.4194623600686394,4.865797854773172,6.055408547218088,-6.040689785079427
-0.37080438152090767,5.031676046230633,5.9950016493672935,-6.226506279961417
-0.32048762105860135,5.127109747604868,5.932736586567679,-6.314655669325024
-0.26921652358255266,5.13540147482349,5.869590029874429,-6.281423612738914
-0.21786250883431776,5.055884179383941,5.80677579374704,-6.1254031382383625
-0.16730366704047836,4.905515010885187,5.745521762364656,-5.869734062347351
-0.1182485169316265,4.710956449997171,5.686824421741182,-5.551078175780719
-0.07113895243165479,4.497878753773375,5.631313639983375,-5.204742292615633
-0.026160164893921034,4.284815451669006,5.579266217057219,-4.8561600059423355
0.01668798962276903,4.082522223931471,5.530704616997795,-4.520027106037611
0.05751321186208374,3.895979022145293,5.485504345937419,-4.203094307128861
0.09647300208353667,3.72665560821483,5.443473402866131,-3.9073105532728385
0.13373955816568497,3.5741637237877457,5.404400297333402,-3.6321072755430386
0.16948119540356243,3.437258557802131,5.368079224577972,-3.3757782692068514
0.20385378098158374,3.314384746110803,5.334321441885904,-3.136229183488816
0.2369976284426918,3.2039507158475082,5.302959150051016,-2.9113524398005945
0.2690371356011669,3.104453932232217,5.27384562565301,-2.6991973753868104
0.30008167492348903,3.01452868153319,5.2468536518991415,-2.49803446002703
0.33022696173882093,2.9329556282603373,5.221873307298871,-2.306367493731473
0.3595565180214243,2.858653830358864,5.198809632361557,-2.1229220466318792
0.38814305632501295,2.790665792149437,5.177580411895238,-1.9466244857063273
0.41604971424650733,2.7281407825653576,5.158114167038175,-1.776578591041566
0.4433311220721609,2.670318864215386,5.140348381127759,-1.6120429680780248
0.4700343107143148,2.616516659328611,5.124227951446978,-1.4524105406823213
0.4961994773076009,2.566115172671297,5.109703846040155,-1.2971904676882888
0.5218606290343138,2.5185496550904336,5.096731941363272,-1.1459923897382454
0.5470461255852181,2.473301343462783,5.08527201746589,-0.9985127356769163
0.571779139019846,2.4298908588456607,5.075286890109121,-0.8545227688007226
0.5960780476083026,2.387873035431925,5.066741662421114,-0.7138580656116827
0.6199567779626218,2.3468329634357805,5.0596030817649975,-0.5764091586585754
0.6434251075969797,2.3063830468659203,5.053838990178412,-0.44211312289925603
0.6664889380656389,2.2661608964959505,5.049417858949419,-0.3109459329722086
0.6891505470305984,2.2258278968561434,5.046308399619697,-0.18291546257400443
0.7114088259991599,2.1850683030827542,5.0444792449939575,-0.05805503489274151
0.7332595090299874,2.143588739084589,5.04389869464503,0.06358253596245547
0.7546953964208333,2.101117983112909,5.044534520004654,0.1819304484406461
0.7757065762519624,2.0574069408582205,5.046353824489061,0.29691298022558466
0.7962806456605446,2.012228719940643,5.049322954291317,0.4084501247826364
0.816402932859951,1.965378733239533,5.053407455539143,0.5164617981157591
0.8360567201923463,1.9166747718850095,5.058572073520301,0.6208716141656995
0.8552234679111964,1.8659570017301446,5.064780789661958,0.7216102288437932
0.8738830379284979,1.813087849461797,5.071996891950396,0.818618256731343
0.8920139164231158,1.75795175586915,5.080183074517709,0.911848769993511
0.9095934339818073,1.7004547838571042,5.089301562217645,1.0012693951389053
0.9265979818203783,1.6405240773035306,5.099314256169034,1.0868640291040679
0.9430032225934136,1.578107173637542,5.110182896460075,1.1686342011238116
0.9587842943297891,1.5131711779892485,5.121869238471313,1.2466001105245272
0.9739160061096815,1.4457018099712577,5.134335239576559,1.3208013727113526
0.9883730242093941,1.3757023357453693,5.147543253303672,1.3912975061691648
1.0021300475668478,1.303192398239065,5.161456228365363,1.4581681923906415
1.0151619715492384,1.22820675750248,5.17603791028927,1.5215133385473965
1.0274440391242632,1.1507939515675425,5.1912530436747435,1.581452969791958
1.0389519786399386,1.0710148861200013,5.2070675733726635,1.6381269747283353
1.0496621275011386,0.9889413591306717,5.223448843119947,1.6916947242331855
1.0595515410924454,0.9046545245753796,5.2403657903622785,1.7423345808332287
1.0685980863381992,0.8182432976999755,5.257789136170611,1.7902433135715818
1.076780519315199,0.7298027030784948,5.275691569306327,1.8356354319678432
1.0840785463459839,0.639432166011463,5.294047923626005,1.8787424524422855
1.0904728680060984,0.5472337475839577,5.312835348150428,1.9198121114861701
1.095945205481938,0.4533103238481895,5.33203346926529,1.9591075418821644
1.10047830872042,0.35776370995675133,5.351624544684111,1.996906431301051
1.1040559458199874,0.26069273045416075,5.371593608997122,2.0335001864589395
1.1066628731245292,0.1621912371164332,5.3919286108617115,2.0691931305181512
1.1082847854956934,0.06234607548455508,5.412620542166893,2.1043017663550363
1.108908246250539,-0.038764999651573914,5.4336635598304435,2.1391541435198875
1.1085205962540234,-0.14107546129792817,5.455055101265643,2.1740893720423236
1.107109841641044,-0.24453220406665294,5.476795994986066,2.2094573316181005
1.1046645196003775,-0.34909780291475556,5.498890568302247,2.2456186301568533
1.1011735415712298,-0.4547528501880458,5.521346754603816,2.2829448712691223
1.0966260130693493,-0.5614983909455692,5.544176203316508,2.3218192962102124
1.0910110291598936,-0.6693584846025817,5.56739439627861,2.362637872349253
1.0843174443138677,-0.7783829305258978,5.591020775002103,2.4058109077387417
1.0765336150086087,-0.8886502064009906,5.61507888407949,2.4517652802152132
1.0676471129445988,-1.0002706809979327,5.639596536881642,2.5009473800619677
1.0576444061346195,-1.1133901773651553,5.664606010682262,2.5538268779354008
1.046510504360968,-1.2281939783099607,5.690144279461617,2.61090144462216
1.0342285645778684,-1.3449113828274768,5.7162532939078385,2.6727025659529917
1.0207794507495935,-1.4638209388922,5.742980319567368,2.739802613724681
1.0061412413606716,-1.5852564926359023,5.770378345704615,2.812823349123608
0.9902886764343126,-1.709614202348138,5.798506579195851,2.892446043491318
0.9731925344108312,-1.8373606603543848,5.827431039630764,2.9794233919617623
0.9548189278072874,-1.9690422327168662,5.857225273550382,3.074593349339461
0.9351285054801187,-2.1052956406379244,5.887971207043777,3.1788948996715756
0.9140755490737394,-2.246859623126628,5.919760156040493,3.293385518442839
0.8916069528424732,-2.394587156979182,5.952694011224921,3.4192595866671196
0.8676610812726814,-2.549457023343398,5.986886607091592,3.5578660687077983
0.8421665110392474,-2.712582244702937,6.02246526777867,3.7107220141712167
0.8150406885922181,-2.8852106226517935,6.059572487920382,3.8795152607480436
0.7861885823657002,-3.0687085056309615,6.098367640527862,4.066084007987611
0.7555014973093906,-3.26451169053896,6.139028480607738,4.272350855462489
0.722856380404001,-3.4740149084216845,6.181751989162363,4.500171494015441
0.6881162313197842,-3.698350673579998,6.226753704102517,4.751029288441978
0.6511327245839842,-3.937976351525089,6.274263996986937,5.0254621690942365
0.6117529610687333,-4.191946203975286,6.324518618677879,5.32204892475066
0.5698334990289805,-4.4567116277154515,6.377739107925386,5.635734152247979
0.525266382751826,-4.724338095974084,6.434096449447866,5.955332944943468
0.4780230017920852,-4.980330543999388,6.493649778897301,6.2604788536185945
0.4282196963520913,-5.202110146861383,6.556254567433487,6.519469196500353
0.37619859488347746,-5.3605992172275325,6.62144925939849,6.691443583143079
0.32259260271120216,-5.427884279751635,6.6883636952299215,6.737057239868176
0.2683137599136858,-5.39011795023263,6.755734267628603,6.636486006929894
0.21441258041135947,-5.256854154169744,6.822099127697902,6.402460931906078
0.16184403886966203,-5.056999055345926,6.886123737016963,6.074633488429692
0.11127404831620277,-4.8244447932138135,6.94687007190126,5.699586102972616
0.06302960038406463,-4.586033519340175,7.003865932930986,5.314130482456441
0.017169265190662884,-4.35802549497857,7.057007237755551,4.940449922891186
-0.026410989759122816,-4.148138460449561,7.106411736984462,4.58896235472885
-0.06789237436361842,-3.958816342463203,7.152301360531751,4.262861724376933
-0.10748053778825045,-3.789752653261539,7.19492997777552,3.9616083972213194
-0.14537806432086584,-3.6394133854383357,7.234546061747733,3.683027129150802
-0.1817721981752492,-3.5058438133982452,7.271376333039241,3.4244135978953767
-0.21683063630923166,-3.387057025936325,7.305620469018194,3.18306442228859
-0.2507012065685949,-3.281201200218112,7.33745111324108,2.956503686479007
-0.28351321857077605,-3.1866170213582974,7.36701615010587,2.742559656006993
-0.315379388784359,-3.101843760734942,7.39444174666594,2.5393720093668906
-0.3463978263917084,-3.025603451865293,7.419835466759609,2.3453697422652335
-0.37665386091036135,-2.9567774641951035,7.443289164182261,2.1592390704409317
-0.4062216355523124,-2.8943821228453768,7.46488155488667,1.9798901733262457
-0.4351654567807662,-2.837546237024818,7.484680456619932,1.8064264638980798
-0.46354091915101436,-2.785491572259492,7.502744721258913,1.6381176011258276
-0.49139583487360927,-2.737516452026089,7.519125897270171,1.4743763314712475
-0.5187709993938702,-2.6929823062897813,7.533869660584883,1.3147387741389451
-0.545700822456768,-2.6513028479710754,7.547017048326272,1.1588476101178415
-0.5722138509364787,-2.611935528637993,7.558605524427451,1.00643762774888
-0.5983332062228586,-2.5743749401363223,7.56866990070494,0.8573231339598981
-0.6240769556242218,-2.5381478598271827,7.577243132044539,0.7113868198673761
-0.6494584342224936,-2.5028096701516303,7.584357000243212,0.5685697529777998
-0.6744865309240099,-2.4679419130401707,7.59004269777299,0.4288622469881269
-0.6991659500544116,-2.433150764862138,7.594331320242872,0.29229543040431955
-0.723497457703033,-2.398066238647904,7.5972542745469145,0.15893339535576476
-0.747478120089512,-2.3623419384363302,7.598843608500472,0.02886585757072782
-0.7711015394738753,-2.3256552071683396,7.599132267076179,-0.0977987025538273
-0.7943580915455587,-2.2877075257624946,7.5981542800506405,-0.2209394192711579
-0.8172351668031836,-2.2482250377334143,7.595944885857929,-0.34042892398144975
