th1 (rad),w1 (rad/s),th2 (rad),w2 (rad/s)
1.2056530006722936,-1.9068673561084408,5.517835150463858,0.681921712182225
1.1865843271112093,-1.9868702801502423,5.52465436758568,0.7521334086455057
1.166715624309707,-2.066649933606875,5.532175701672135,0.8271158103807926
1.1460491249736382,-2.146386100950299,5.540446859775943,0.9070433624501961
1.1245852639641352,-2.226288759533211,5.549517293400445,0.9920992587858445
1.102322376368803,-2.306600667947589,5.559438285988303,1.0824802417099961
1.0792563696893271,-2.387600323378379,5.570263088405404,1.1784023161918975
1.0553803664555435,-2.469605399228714,5.582047111567323,1.2801074957747207
1.0306843124632563,-2.552976799986319,5.59484818652507,1.387871719021439
1.0051545444633931,-2.6381234991849123,5.608726903715285,1.5020141031803094
0.9787733094715441,-2.7255083579701216,5.623747044747088,1.6229077354934551
0.9515182258918429,-2.8156551548868105,5.639976122102023,1.7509922406842053
0.9233616743429748,-2.9091570889045673,5.657486044508865,1.8867884014196274
0.8942701034539291,-3.0066870406263275,5.676353928523061,2.030915137473309
0.8642032330476658,-3.1090098774215082,5.696663079897794,2.1841091495960083
0.8331131342734507,-3.216997040218489,5.7185041713937546,2.3472474680712403
0.8009431638712659,-3.3316435018381476,5.741976646074467,2.5213729417331394
0.7676267288528844,-3.454086842502461,5.767190375491799,2.707722225326905
0.7330858604278598,-3.5856274661453194,5.794267597745068,2.907754817392834
0.6972295857664066,-3.727747542297191,5.823345145918997,3.123179692747216
0.6599521103434347,-3.8821234719146283,5.854576942846469,3.3559721806793803
0.6211308756242884,-4.050621379095272,5.888136664653263,3.6083663355519056
0.5806246618333356,-4.235255220368659,5.924220328008783,3.8827941856880703
0.538272109629649,-4.438068912937749,5.963048269865664,4.181717794270387
0.4938914205002715,-4.660871521665148,6.004865447808368,4.507254764983584
0.44728270528362,-4.904700282752688,6.049937995458204,4.860421830419605
0.39823570245609313,-5.16880615513311,6.0985422137624,5.239708942962012
0.34654764090476203,-5.44887422551538,6.15093930319202,5.638580839480351
0.2920588986496082,-5.734228318784278,6.207325111586823,6.041555120647466
0.23471661546176542,-6.004288983742291,6.267740662793298,6.419235846776384
0.17467372562434252,-6.226219494161488,6.3319330212610625,6.725020865363414
0.11241153068272763,-6.358559242332977,6.399183229914697,6.900224659193607
0.048825938259397864,-6.366045585515824,6.468185476506633,6.8949186129745605
-0.014834517595760377,-6.24101183012133,6.537134662636379,6.697999268457518
-0.07724463589697368,-6.011680484829804,6.604114655320954,6.34884585789619
-0.13736144074527173,-5.725612554409743,6.667603113899916,5.9141140063002196
-0.19461756628936916,-5.425485954236954,6.726744253962918,5.453775871822678
-0.2488724258317387,-5.137845926811077,6.781282012681145,5.005331801875187
-0.30025088509984943,-4.874816718605571,6.831335330699897,4.5861647124368154
-0.3489990522859051,-4.63972756817815,6.877196977824265,4.201376872279552
-0.3953963279676866,-4.431614051318705,6.91921074654706,3.850065863188548
-0.43971246848087364,-4.247809386959645,6.957711405178946,3.528941350472978
-0.4821905623504701,-4.085210618175511,6.993000818683676,3.2340967510512058
-0.5230426685322251,-3.9408249935113595,7.025341786194188,2.961778308218451
-0.5624509184673387,-3.8119680507851643,7.054959569276373,2.7086684049221477
-0.6005705989751904,-3.69630597982204,7.082046253325594,2.4719509324970215
-0.6375336587734108,-3.591834536811093,7.106765762650564,2.2492870196479267
-0.6734520041415217,-3.4968365548257854,7.129258632847043,2.038759590131794
-0.7084203696897796,-3.409836223830491,7.149646228748361,1.8388120322637553
-0.7425187319280845,-3.329557322821662,7.168034349070999,1.6481909849520857
-0.7758143051563011,-3.254887681459008,7.18451625892052,1.4658964292774144
-0.8083631819708912,-3.184850062561301,7.199175223213294,1.2911393846033055
-0.8402116825965043,-3.1185788525139184,7.212086617059327,1.1233064079375659
-0.8713974711216435,-3.0553017078741913,7.223319681138703,0.9619297891889951
-0.9019504882003854,-2.9943253033554202,7.2329389790305925,0.8066623629333036
-0.9318937412339395,-2.9350244097876153,7.241005602659926,0.6572560094325524
-0.9612439853318157,-2.876833635771488,7.247578162754252,0.5135431005781441
-0.9900123216895306,-2.819241267705034,7.252713593760033,0.37542032059989944
-1.018204734366581,-2.761784731410331,7.2564677969660325,0.2428344417321538
-1.0458225816806843,-2.704047273987232,7.258896141383354,0.11576975732912476
-1.0728630544205566,-2.6456555288312207,7.260053838956646,-0.005763030414092804
-1.0993196097088689,-2.586277682649523,7.259996208652504,-0.12173660164240331
-1.125182386535364,-2.5256220131270806,7.25877884263608,-0.23211557534774568
-1.1504386066666348,-2.463435611273337,7.256457686882603,-0.33686388939335565
-1.1750729627793681,-2.399503144319396,7.25308904798867,-0.43595104930615475
-1.1990679942225622,-2.333645553589335,7.248729537495609,-0.5293572898362566
-1.2224044497584554,-2.26571861683133,7.243435964597246,-0.6170777001816146
-1.2450616359267688,-2.195611335592617,7.237265187595431,-0.699125375495801
-1.2670177492826948,-2.1232441348154847,7.230273933840473,-0.7755336708653703
-1.2882501906308497,-2.048566883467685,7.2225185971318195,-0.846357646881529
-1.3087358594655265,-1.9715567614515266,7.214055020663004,-0.9116748063525763
-1.3284514270800418,-1.8922160092781115,7.204938272599478,-0.9715852283602947
-1.347373587172823,-1.8105696033386953,7.195222420315876,-1.0262112081319958
-1.36547928320621,-1.7266629015910475,7.1849603082345554,-1.0756965090171773
-1.3827459122221204,-1.6405593028266858,7.1742033431443835,-1.120205326615675
-1.3991515052503873,-1.5523379582267218,7.163001289878227,-1.1599210555221333
-1.4146748848326545,-1.4620915675142243,7.151402079323005,-1.1950449371432443
-1.4292958005077967,-1.3699242844976938,7.139451629951573,-1.2257946535945117
-1.4429950433527736,-1.275949748911184,7.127193683415628,-1.252402918745706
-1.4557545408418855,-1.1802892538027325,7.114669654228171,-1.2751161039043966
-1.4675574333799128,-1.083070050769749,7.101918493189127,-1.2941929230940454
-1.4783881338876104,-0.9844237894055681,7.0889765639581865,-1.309903191906533
-1.4882323717816661,-0.8844850825847225,7.075877532039121,-1.3225266648161453
-1.4970772226075133,-0.7833901857342482,7.06265226539096,-1.3323519487922288
-1.5049111244648559,-0.6812757759751304,7.049328745903037,-1.3396754860555697
-1.511723882224607,-0.5782778158586767,7.035931991042482,-1.3448005957883593
-1.517506660383194,-0.4745304862037726,7.022483985084598,-1.348036563343859
-1.5222519652452318,-0.3701651730702618,7.00900361945116,-1.3496977657686284
-1.5259536169759345,-0.26530949497782796,6.995506641793473,-1.3501028239773767
-1.5286067119257127,-0.16008635789906372,6.982005613553699,-1.349573774431134
-1.5302075755047033,-0.05461302713456939,6.968509875809388,-1.3484352563974407
-1.530753705776049,0.05099979324667353,6.955025523245413,-1.3470137145748244
-1.5302437078435822,0.1566488812845748,6.941555386099665,-1.345636620834917
-1.5286772190307365,0.26223942502423137,6.928099019891316,-1.3446317229055131
-1.5260548247804941,0.36768596328812625,6.91465270266226,-1.344326331860263
-1.5223779651476128,0.47291334473557656,6.901209439343657,-1.3450466642115777
-1.517648831700257,0.5778577106179714,6.887758972701541,-1.3471172581797648
-1.5118702545940772,0.6824675071097172,6.874287800119744,-1.3508604873288237
-1.50504557952298,0.7867045340660781,6.860779195246455,-1.356596198248436
-1.4971785341823192,0.890545038557218,6.847213233263971,-1.3646415023854939
-1.488273083796747,0.993980863587912,6.833566818240116,-1.3753107555802797
-1.478333275160868,1.0970206650849514,6.819813710684313,-1.388915762464667
-1.4673630685100185,1.1996912135912123,6.805924553059667,-1.4057662467852452
-1.4553661563741065,1.3020388012465087,6.791866890591814,-1.4261706331088295
-1.4423457683616414,1.4041307796939926,6.777605184260726,-1.450437190475076
-1.4283044605647015,1.5060572606989056,6.763100812355975,-1.4788755946487855
-1.4132438879577125,1.6079330187188043,6.748312056409487,-1.5117989730125736
-1.3971645577705245,1.7098996436816527,6.733194066679362,-1.5495265052065044
-1.380065561333708,1.8121280031166251,6.7176988016272965,-1.5923866638032762
-1.3619442813025417,1.9148210858871204,6.701774934989264,-1.6407211930973415
-1.3427960704436706,2.0182173154605403,6.685367723058291,-1.6948899410026383
-1.322613897289065,2.1225944392533957,6.668418823648264,-1.7552766795780115
-1.301387952896531,2.2282741223337723,6.650866056852484,-1.8222960741425696
-1.2791052116731934,2.3356273985675178,6.6326430961110585,-1.8964019891832988
-1.2557489376875182,2.4450811594377204,6.613679076219226,-1.978097350245495
-1.231298126093141,2.5571258882408525,6.593898102716771,-2.067945811840078
-1.2057268672107324,2.672324870684288,6.573218644598371,-2.166585505677284
-1.1790036185038895,2.7913251229357368,6.551552789541598,-2.274745148201793
-1.151090367274532,2.9148702570925353,6.5288053380595805,-2.393262746149452
-1.1219416647036067,3.0438154180054053,6.504872710598086,-2.523107005740796
-1.0915035105235527,3.1791442110181247,6.479641640540678,-2.6654012356358465
-1.0597120684133714,3.3219870796992015,6.45298762818432,-2.8214488698970985
-1.0264921976163794,3.473639668354563,6.424773139485349,-2.99275841859558
-0.9917558009328338,3.635577915545571,6.394845555299393,-3.181063117420744
-0.955400021777378,3.809463240530061,6.363034924125186,-3.3883257663560773
-0.9173053893720774,3.9971248867431597,6.329151666461625,-3.616710371298482
-0.8773341405046458,4.200494965680947,6.29298456274864,-3.8684859904675486
-0.8353291908478363,4.421451176021797,6.254299702843965,-4.145799273275015
-0.7911146790876183,4.661486977805468,6.212841710111214,-4.450202738647812
-0.7444998093095636,4.921073626945272,6.168339682724736,-4.781748095872954
-0.6952890730401109,5.198506853717996,6.120522201766006,-5.137353443936592
-0.6433040045029309,5.487988386547503,6.06914866732664,-5.508093772808732
-0.5884241206374559,5.776844945146983,6.014067729598553,-5.875279454415851
-0.530655671185986,6.042534824065844,5.955314935054394,-6.206240526760209
-0.4702303229453276,6.25192665723684,5.893252529786793,-6.453318115508167
-0.4077110563729592,6.36751169419829,5.828719348631711,-6.56263020597518
-0.34403593943097627,6.36320522278786,5.763093046571959,-6.496358186471442
-0.28040388720309767,6.241363223411897,5.698129464707245,-6.256779327584928
-0.2179902549689787,6.0337616935814475,5.635561671431396,-5.887768732734853
-0.1576526380331642,5.783552626509405,5.576683984104047,-5.449530509846186
-0.09981711176807015,5.5262667337841815,5.522188679005585,-4.991906259620057
-0.04455444443022833,5.283112721360413,5.472269616409385,-4.544879372354008
0.008276682783375802,5.063553881097416,5.426820822685845,-4.122088794280732
0.058912221594349966,4.870041495568985,5.385599934743038,-3.7273985032040473
0.1076126365500398,4.7015855397169055,5.348325949710997,-3.3598716397457853
0.15462849194720885,4.555800577398423,5.314727233313539,-3.0166311513156363
0.20018649772119307,4.4299196737152045,5.284560921800383,-2.6942868179555877
0.24448569445834512,4.321242407271572,5.257618053620827,-2.389574689693053
0.28769811853106086,4.22730313075843,5.233722306723896,-2.0996059849753896
0.3299711498386452,4.145910634156659,5.212726246874142,-1.8219352513325162
0.37143025618021175,4.075133539522665,5.194506894360817,-1.5545509190476634
0.4121815915754384,4.013266365463124,5.17896138517034,-1.2958366336423617
0.45231425523006963,3.9587919680260595,5.1660030188339165,-1.0445249957685963
0.4919021749103302,3.910346943128807,5.15555776887623,-0.7996526358532289
0.5310056443416183,3.866692358356663,5.147561242517698,-0.5605196892900933
0.569672567925185,3.8266902979369526,5.141956045624797,-0.3266541518245044
0.6079394709045545,3.7892859104814747,5.1386895041065515,-0.09778055885098441
0.6458323300093692,3.7534943502637654,5.137711698518042,0.12620788123203813
0.6833672735120069,3.7183919187540724,5.138973777330363,0.34527455662293
0.7205511926995476,3.683110714630512,5.142426522896592,0.5592628318008519
0.7573822998458527,3.6468361311654447,5.1480191512146005,0.767918048680184
0.7938506611575071,3.608806578171731,5.1556983317014025,0.9709084637812668
0.8299387269392244,3.568314846010548,5.165407416339215,1.1678452607455156
0.8656218753993299,3.524710572510927,5.17708586894667,1.3583016357517732
0.9008689811244391,3.477403322775586,5.190668885304188,1.5418308507559175
0.935643014352195,3.4258658487954268,5.206087193811747,1.7179830873924256
0.9699016728401493,3.3696371608328883,5.223267024685671,1.8863209107084629
1.0035980444484782,3.3083251139215544,5.242130233792756,2.0464331614481686
1.0366812955876938,3.2416082871624297,5.2625945654072375,2.1979471307660594
1.069097378459318,3.169237006406349,5.284574036714898,2.340538922964284
1.1007897485233815,3.0910334279073264,5.3079794259445405,2.4739419707418606
1.1317000828024548,3.0068906578120935,5.332718845651959,2.597953724979948
1.1617689893805758,2.9167709274199676,5.358698382901759,2.7124405905490008
1.1909366986547756,2.8207028761387165,5.385822788807249,2.817341216745295
1.2191437274161627,2.718778013746839,5.413996200974702,2.9126682741347873
1.2463315075536312,2.6111464430770304,5.4431228837160495,2.9985088596277683
1.2724429719844015,2.498011926558161,5.473107972312327,3.0750236712343972
1.2974230912499831,2.3796263784866802,5.5038582090246715,3.1424450869815685
1.3212193550348499,2.256283862468349,5.535282659894487,3.2010742730245343
1.3437821936595333,2.1283141724822037,5.567293402624732,3.251277437739103
1.3650653353843554,1.9960760777712276,5.599806177002123,3.293481344213145
1.3850260961620677,1.859950316467458,5.632740990444255,3.328168194445869
1.4036255993267424,1.7203324297305302,5.6660226723887135,3.3558700047292613
1.4208289236240477,1.5776255356931883,5.699581372436006,3.3771626019666092
1.4366051789809795,1.4322331487415465,5.733352998455672,3.3926593830814884
1.450927510468395,1.2845521526616785,5.767279592286487,3.4030049917930345
1.4637730319950117,1.134966034319034,5.8013096422044175,3.4088690765386884
1.4751226923382021,0.9838384767310105,5.835398332969804,3.410940298315711
1.4849610771055122,0.8315073962788275,5.869507735952961,3.409920756509495
1.4932761510683004,0.6782794887359196,5.9036069435180565,3.4065209940587797
1.5000589459556595,0.5244253237431916,5.937672153458644,3.4014557311053157
1.5053031991930914,0.3701749987581491,5.971686710769697,3.3954404598429306
1.509004949180673,0.21571433298994255,6.005641115368126,3.389189014385339
1.5111620925105724,0.06118155105122622,6.03953300551198,3.383412210137982
1.5117739080210848,-0.09333562353014252,6.07336712761336,3.3788176294086
1.5108405517857835,-0.24780257204002637,6.107155303907446,3.3761106156057696
1.5083625260653832,-0.4022402127427129,6.140916410063504,3.375996528688955
1.5043401239379561,-0.5567274131053315,6.174676375350393,3.379184310247571
1.4987728498069028,-0.7114035500667365,6.208468218452869,3.386391407556404
1.4916588143062355,-0.8664713980287856,6.242332132528433,3.398350110891769
1.4829941003259477,-1.0222005299655823,6.276315633637351,3.415815364347783
1.472772095026292,-1.1789314139512856,6.310473787280829,3.439574111829452
1.460982780886779,-1.337080369791967,6.344869528399124,3.4704562270334223
1.4476119771888594,-1.4971455074946425,6.379574090669458,3.5093470320691313
1.432640522113913,-1.6597136812893516,6.414667560990149,3.557201304540527
1.4160433853010195,-1.825468324682714,6.450239574035554,3.6150584565729944
1.3977887020541924,-1.995197721770946,6.486390158601284,3.6840581534603922
1.377836724836483,-2.1698027101289252,6.523230740135888,3.765454872202372
1.3561386977351937,-2.350301814950003,6.560885288857913,3.860628519083321
1.3326356795856937,-2.5378300644037224,6.599491574048746,3.971085782584885
1.3072573789416566,-2.7336246970402516,6.639202431874595,4.098442639694706
1.279921131971254,-2.9389857708321836,6.680186858271542,4.244371130526164
1.2505312742629322,-3.155190980788816,6.722630569576803,4.410481278083038
1.218979364455044,-3.3833299824602427,6.766735382357633,4.598089301480292
1.1851460646304415,-3.6240025353288763,6.812716275372436,4.807793670872855
1.1489060392771526,-3.876797845364408,6.8607942120811645,5.038742442039348
1.1101380608235085,-4.1394509604057435,6.911181636501558,5.287444526819398
1.0687435512194512,-4.4065957812781855,6.964056081769752,5.546009914807319
1.0246775934066694,-4.6682015162101385,7.019516180917825,5.799937505756881
0.9779955782445681,-4.908254207478732,7.077515555975394,6.026235147658075
0.9289130361697807,-5.105093136703153,7.137777907451975,6.193849162870726
0.8778621048027492,-5.235430910114468,7.199716399080682,6.269256943645749
0.8255077957016045,-5.282670376970084,7.262408968517139,6.228102130506864
0.7726810919319036,-5.245576620931611,7.3246899898222075,6.067371260593106
0.7202253257225875,-5.1400559479211205,7.385363702428139,5.807968306486174
0.6688247662433763,-4.9916935559750994,7.443443385493,5.484385346809101
0.6189078306836253,-4.825424647297165,7.498287238961091,5.130355463244447
0.5706535842106537,-4.659464036506825,7.549590793593536,4.7704178497247405
0.5240589438455855,-4.5045453293717665,7.597294972090784,4.4188547868854435
0.4790134905518678,-4.365776958230592,7.641483519959638,4.082254625968116
0.4353557209695619,-4.244808741760283,7.682306066219319,3.7625012290445334
0.392907633551959,-4.14143293498296,7.719931078509765,3.4589797545850436
0.35149330420212943,-4.054563764858705,7.754520876055615,3.1699247463901683
0.3109476665535424,-3.9827755831885017,7.7862201235195165,2.893161435450962
0.27111991072165736,-3.9245750096973095,7.815151737874026,2.6264830741804364
0.23187416062468427,-3.878525647118279,7.841416568615831,2.3678278636939085
0.1930889041535015,-3.843295351725611,7.865094847252769,2.1153516166677164
0.15465595063624538,-3.8176647279882605,7.886248363419447,1.8674489904173985
0.11647930335636278,-3.8005174338786007,7.904922853323621,1.6227511625367814
0.07847412901757678,-3.790822979480645,7.921150364948988,1.3801141513485893
0.040565899222770326,-3.787617435393976,7.9349515064624745,1.1386046941432173
0.0026897248688305675,-3.7899847261229143,7.9463375534039065,0.8974867705736411
-0.035210122392398575,-3.797039786930408,7.955312421109642,0.6562098766907233
-0.07318052026170266,-3.807914170286283,7.96187451987655,0.41439914638939446
-0.11125966196456549,-3.8217443567509575,7.966018511340444,0.1718469223131195
-0.14947710553207508,-3.837662871320388,7.967736980563575,-0.07149484116176266
-0.18785373424527896,-3.854792231787484,7.967022032151957,-0.3155220265281653
-0.2264016565631538,-3.872241708595923,7.963866811886675,-0.559986311759855
-0.26512407364911306,-3.8891068296950655,7.958266948769076,-0.8045042118947018
-0.3040151419460637,-3.9044715078054772,7.950221906650129,-1.0485676484119795
-0.3430598570241185,-3.9174125994319344,7.93973623016601,-1.2915563331649014
-0.38223398301843786,-3.9270066292071077,7.92682066683436,-1.5327520782311166
-0.42150404931050894,-3.9323383378192838,7.911493146052049,-1.7713549645110878
-0.4608274326887018,-3.932510646717025,7.8937795964069375,-2.006501135888842
-0.5001525391558721,-3.9266555875252585,7.873714585048049,-2.237281847848213
-0.5394190950311247,-3.9139457259117703,7.851341766569567,-2.4627633028297495
-0.5785585522902424,-3.893605621895905,7.8267141335412695,-2.6820067577912856
-0.6174946085092015,-3.8649229098678575,7.799894065963357,-2.8940883942810918
-0.6561438376078801,-3.8272586456304465,7.770953182020546,-3.098118492382141
-0.6944164240641846,-3.780056644458958,7.739971997096724,-3.2932595349523894
-0.7322169905087742,-3.722851611305516,7.7070394017472,-3.4787429707361666
-0.7694455066218293,-3.6552759298972832,7.672251972039838,-3.6538844654532943
-0.8059982659208021,-3.5770650222185876,7.635713127385305,-3.818097551803473
