th1 (rad),w1 (rad/s),th2 (rad),w2 (rad/s)
5.796486445381409,1.7429808752290865,0.821005077940928,-2.3331630928433755
5.8139162541337,1.8312227608709262,0.7976734470124943,-2.4571658802480707
5.832228481742409,1.9237696154814814,0.7731017882100136,-2.58699533123605
5.851466177897224,2.021115968401089,0.7472318348976531,-2.7233221994735186
5.871677337581235,2.123808998201958,0.7199986129029179,-2.86689493594278
5.8929154275632545,2.2324492726339393,0.6913296635434901,-3.018541931645044
5.915239920289594,2.3476871859809463,0.6611442442270397,-3.1791680702982257
5.938716792149403,2.4702116732636656,0.6293525635240574,-3.349740924045383
5.96341890888204,2.600725584118559,0.5958551542836036,-3.531258887093906
5.989426164723225,2.7398986320188063,0.5605425654126646,-3.7246887294853197
6.016825151043413,2.8882835222543246,0.5232956781178114,-3.930852653436412
6.045707986265956,3.046173141235594,0.4839871515834473,-4.150234139187788
6.0761697176783125,3.213366562803018,0.44248481019156943,-4.382657637840118
6.1083033833063425,3.388801238781823,0.39865823381316823,-4.6267824287184744
6.1421913956941605,3.5700061024153986,0.3523904095259835,-4.879346794072938
6.1778914567183145,3.752356423600312,0.30359694158525413,-5.134134297674902
6.2154150209543175,3.9282088210563306,0.2522555986085051,-5.380769030736197
6.254697109164881,4.086223010122059,0.19844790830114314,-5.60376411731645
6.295559339266101,4.211544222741611,0.14241026712797863,-5.782760246670766
6.337674781493518,4.287796115050334,0.08458266466127097,-5.895277156058395
6.380552742644021,4.301371094115233,0.025629893100687022,-5.922657066677139
6.423566453585173,4.246733247440254,-0.03359667756608437,-5.85740985441508
6.466033786059576,4.129444172646233,-0.09217077611023516,-5.707381113143504
6.507328227786038,3.9642767905034604,-0.14924458724167022,-5.493092591128069
6.546970995691073,3.7696046016444837,-0.2041755131529509,-5.239936513114222
6.584667041707518,3.5619592061290564,-0.25657487828409314,-4.970648310627259
6.620286633768808,3.353336284834655,-0.3062813613903657,-4.701621580988467
6.6538199966171545,3.1510762788013538,-0.3532975772002504,-4.442792189466598
6.685330759405168,2.95895516213045,-0.3977254990949164,-4.199181128874021
6.714920311026472,2.778431956153719,-0.4397173103836566,-3.9726354608626404
6.742704630588009,2.6096217637152566,-0.47944366499228297,-3.763176656493654
6.768800848225162,2.4519375999353827,-0.5170754315572195,-3.569884389651027
6.793320224224516,2.304475060329093,-0.5527742754537297,-3.39142246991127
6.816364974827807,2.1662278120565372,-0.5866885001528424,-3.2263307625875632
6.838027252948373,2.0362008679742702,-0.6189518077787179,-3.073176553527552
6.8583892616281155,1.913465227711152,-0.6496835733139935,-2.9306258351281964
6.877523913905227,1.7971801859309666,-0.6789898316652755,-2.7974708147956777
6.895495715764537,1.6865985173377447,-0.7069645398132323,-2.672634524280028
6.912361700937915,1.581063091404783,-0.7336908850560325,-2.5551641976561927
6.928172331851963,1.479999614195925,-0.7592425270325944,-2.4442197770418455
6.942972327993922,1.3829080079983365,-0.7836847248030129,-2.3390609104431164
6.956801408073905,1.2893537178650678,-0.807075333907444,-2.239034143320693
6.969694945252556,1.1989595614766,-0.829465675340651,-2.143561096670557
6.981684540867322,1.1113983751974377,-0.8509012863073565,-2.052127937996673
6.992798524619296,1.0263865184313736,-0.8714225656873232,-1.9642761996798854
7.00306238980361,0.9436782032940402,-0.891065327684122,-1.879594876265505
7.01249917183655,0.8630605738432372,-0.9098612764467771,-1.797713678948468
7.021129777574982,0.7843494443085326,-0.9278384132362617,-1.7182973090674356
7.028973272018067,0.707385605371824,-0.9450213863269361,-1.6410406144897107
7.036047128071785,0.6320316140701795,-0.9614317924718332,-1.5656645034066512
7.042367444212487,0.5581689922426539,-0.9770884375058997,-1.491912503924683
7.047949134134913,0.4856957684671649,-0.9920075625451465,-1.419547872172065
7.052806091819584,0.41452430804797946,-1.0062030412668672,-1.3483511651135103
7.056951334900064,0.3445793843267159,-1.0196865529180024,-1.2781182063143923
7.060397128743331,0.2757964522275607,-1.0324677349811462,-1.2086583833711897
7.063155093265606,0.2081200915049239,-1.044554318814858,-1.1397932246752136
7.0652362941806555,0.14150259271470778,-1.0559522510616102,-1.0713552107424955
7.066651320107803,0.07590266358899699,-1.066665803169035,-1.0031867816936821
7.067410346743693,0.01128423737795177,-1.076697670985972,-0.9351395077723536
7.067523189117472,-0.052384632051940355,-1.0860490660636954,-0.8670733942014985
7.066999342796953,-0.11513280090124733,-1.0947198000057103,-0.7988562953286382
7.065848014787941,-0.17698700222693695,-1.1027083629589967,-0.7303634160123458
7.064078144765671,-0.23797275732791517,-1.11001199711912,-0.6614768806502882
7.0616984171923916,-0.29811523869659806,-1.1166267659256228,-0.5920853522198136
7.058717264805425,-0.35744009024715334,-1.122547619447821,-0.52208368526309
7.055142863902954,-0.4159742094932585,-1.127768456300452,-0.4513725979576919
7.050983121808021,-0.47374649550406395,-1.1322821822800289,-0.37985834932193163
7.046245656852981,-0.5307885657998348,-1.1360807657732481,-0.30745240825933795
7.040937771194982,-0.5871354448518527,-1.1391552898558415,-0.23407110159230526
7.035066416746464,-0.6428262265268357,-1.1414960008717645,-0.1596352285117036
7.028638154481195,-0.6979047126740969,-1.1430923531568815,-0.0840696290141164
7.021659107354454,-0.752420030109565,-1.1439330494470228,-0.007302693943387131
7.014134907053358,-0.8064272285245743,-1.1440060763864566,0.07073419577631053
7.006070634768112,-0.8599878623614631,-1.1432987344286936,0.15010731321609638
6.997470756144497,-0.9131705604758841,-1.1417976612965326,0.23088132546702667
6.9883390505397385,-0.9660515884700293,-1.1394888480418623,0.31312014245523273
6.978678534655038,-1.0187154099525104,-1.13635764661731,0.3968878876753963
6.968491380555513,-1.0712552546773528,-1.132388767740556,0.48225000438368243
6.957778828008739,-1.1237737035510615,-1.127566267696719,0.5692745113916755
6.946541090973229,-1.176383302884101,-1.1218735225828023,0.658033423469145
6.934777257944388,-1.2292072230091946,-1.1152931883481108,0.7486043525915588
6.922485185714296,-1.282379979498128,-1.1078071448221951,0.8410723079682786
6.909661385919315,-1.3360482386820602,-1.0993964217425123,0.9355317150783462
6.896300903532494,-1.3903717330126761,-1.0900411045917289,1.0320886769420303
6.882397186202367,-1.4455243159768671,-1.0797202178223086,1.1308635046740048
6.867941943042599,-1.501695190758101,-1.0684115827755687,1.2319935490699594
6.852924991135017,-1.559090351543199,-1.0560916472848692,1.3356363705763274
6.837334087619586,-1.6179342811452022,-1.042735283579106,1.4419732913640577
6.821154744808133,-1.6784719531517018,-1.0283155506654653,1.5512133800427617
6.804370025276616,-1.7409711905671539,-1.0128034168650377,1.6635979261262892
6.786960313370944,-1.805725434928681,-0.9961674376037748,1.7794054664151344
6.768903059021657,-1.8730569784550088,-0.9783733829396235,1.8989574267242908
6.750172489237107,-1.943320704057925,-0.9593838086723806,2.022624435937769
6.730739282196527,-2.0169083591289696,-0.9391575643130029,2.15083334855099
6.710570198605238,-2.094253350712493,-0.9176492308274931,2.2840749654433963
6.689627665098113,-2.175835978267574,-0.8948084811730591,2.422912351778203
6.667869305315437,-2.2621888928043328,-0.870579357655277,2.5679894841634736
6.645247416387394,-2.353902349617731,-0.8448994628136424,2.7200396639603692
6.621708392891217,-2.451628442785972,-0.8176990661740386,2.8798926223450327
6.597192108463357,-2.5560828682768544,-0.7889001399505883,3.0484783702357
6.571631279780589,-2.6680416870077015,-0.7584153562482313,3.226824373622955
6.544950862910512,-2.7883287716640686,-0.7261471125120018,3.416040174991791
6.517067575193871,-2.9177866845729548,-0.6919867107620838,3.6172795236889765
6.487889708348142,-3.0572189963105125,-0.6558139155251941,3.831663507395382
6.457317518385037,-3.2072846416275937,-0.6174972804512403,4.060137860047834
6.425244671968761,-3.3683139340063626,-0.576895901850762,4.303222292195964
6.391561532628697,-3.540001306791767,-0.5338636789288024,4.560589269299645
6.3561615195607795,-3.7209151999101735,-0.4882577862358059,4.830388917242922
6.318952367561677,-3.907764144588036,-0.4399538970633767,5.1082342055385555
6.279874726115797,-4.094405559945832,-0.38887155500799114,5.385825762131733
6.238930670516339,-4.270751344110747,-0.3350132973866738,5.649428209431325
6.196223157075232,-4.4221001039664385,-0.27851901529236056,5.878933279990936
6.152002156035567,-4.529968277467428,-0.2197296824924512,6.049001998189944
6.106702473260893,-4.5756822382480005,-0.15923966251055177,6.134044071793289
6.060945650878413,-4.546719658972204,-0.09789922179261888,6.117015415361901
6.015478454288691,-4.442775869893791,-0.03672906763899987,5.997814619151977
5.971050695589753,-4.276790714432021,0.023249078552519897,5.794649483730994
5.928282788445433,-4.069538084274872,0.08119557338982983,5.536464674562507
5.887587407602684,-3.8419465608925667,0.1365602201354549,5.25227051045216
5.849167941993758,-3.6100994599540734,0.1890829252399765,4.964249066688131
5.813066947394217,-3.3841069529633687,0.2387254159068578,4.6862529640922155
5.779225877864584,-3.1692333081853197,0.28558794554777994,4.425416931168376
5.747533544782731,-2.967549359208252,0.3298421148594637,4.184472917205877
5.717858051190648,-2.7792883025556403,0.37168684403152247,3.963635535521341
5.690065168165091,-2.6037432956766455,0.4113231993867359,3.7618429198053405
5.664027735208325,-2.4397969793971535,0.4489416285847893,3.577484054423528
5.6396297654143535,-2.286210421168671,0.4847164691290246,3.40879236887025
5.616767661202667,-2.141769796962892,0.5188043928177271,3.254043050592228
5.595349963233038,-2.0053537995900848,0.5513448233236493,3.1116416487925918
5.575296425237137,-1.8759588076560358,0.5824612398115753,2.980155209287331
5.556536837160577,-1.752702587421164,0.6122627919044485,2.858314539176871
5.539009811286365,-1.6348178220674512,0.6408459372962173,2.7450030653830657
5.522661633065691,-1.521641444003947,0.668295967950048,2.6392404136013603
5.5074452186256515,-1.4126028271644981,0.6946883720860616,2.5401648277195603
5.493319190354007,-1.3072123212977282,0.7200900203632572,2.447016400138307
5.48024706714103,-1.2050507752595085,0.7445601843646402,2.35912195172379
5.468196559388435,-1.105760264579528,0.7681514038818781,2.2758818202552167
5.457138956742639,-1.0090360245725185,0.7909102220844303,2.196758532435542
5.447048596496914,-0.9146194924402363,0.8128778074087857,2.121267207412239
5.4379024015725115,-0.8222923248052788,0.834090479482908,2.048967493720089
5.429679478324458,-0.7318712509132892,0.8545801544201089,1.9794568358947389
5.422360765815325,-0.6432036301931641,0.8743747227790564,1.9123648800192754
5.415928729513394,-0.5561635974212726,0.8934983715792492,1.8473488478161233
5.410367093539181,-0.4706486949786716,0.9119718600574104,1.7840897308563044
5.405660606589394,-0.386576907444522,0.9298127573659735,1.72228917731737
5.401794837514949,-0.30388402805868187,0.9470356491391472,1.661666962364194
5.398755997234362,-0.2225212990648368,0.9636523187627891,1.601958949354108
5.396530784243714,-0.14245327858348228,0.9796719082563302,1.5429154627745711
5.395106251457879,-0.06365589558319602,0.995101062884076,1.484300005370052
5.394469692502047,0.013885338096857172,1.0099440629377765,1.4258882616160173
5.394608545883015,0.09017698366836542,1.0242029455539368,1.3674673378518964
5.395510315719699,0.16521921933695494,1.0378776189324557,1.3088351962539744
5.397162507913069,0.2390072883765669,1.0509659708949954,1.2498002456288702
5.3995525807968345,0.31153286425792165,1.063463973351284,1.1901810569075717
5.402667909439414,0.3827853431976516,1.0753657839203599,1.1298061753467346
5.4064957628713906,0.4527530724362431,1.0866638456738271,1.068514004892261
5.411023293595753,0.5214245208770657,1.0973489857227496,1.0061527429990749
5.416237538804523,0.5887893973282251,1.1074105131527403,0.9425803464828254
5.422125432777806,0.6548397204049158,1.1168363166175685,0.8776645107474508
5.428673829981855,0.7195708431126526,1.125612961725043,0.8112826460285543
5.435869538412981,0.7829824342011508,1.1337257881853284,0.7433218351612922
5.443699362754993,0.8450794175345705,1.1411590065369412,0.6736787578752143
5.4521501569303386,0.905872869965859,1.1478957941156933,0.6022595667990127
5.461208885629997,0.9653808775491772,1.1539183897836836,0.528979700296994
5.470862694405489,1.0236293494098678,1.1592081867866535,0.4537636170359762
5.481098987899587,1.0806527882651435,1.1637458229570132,0.37654443688063716
5.491905515782238,1.1364950165101166,1.1675112673258197,0.29726347242100837
5.503270465947339,1.1912098570184966,1.1704839020500297,0.21586963522482439
5.515182564517524,1.244861768421979,1.172642598402278,0.1323187008424741
5.527631182201744,1.2975264356898295,1.1739657854107026,0.04657241671387384
5.540606446558642,1.3492913183844506,1.1744315095778413,-0.04140256255443475
5.554099359742486,1.4002561610607123,1.174017483952297,-0.13163592758267806
5.568101921353094,1.4505334729312604,1.1727011246764703,-0.2241551687261035
5.582607256082406,1.5002489871436826,1.170459572989209,-0.3189872465512598
5.597609745953843,1.5495421137973275,1.1672697005236965,-0.41616049170166525
5.613105167091816,1.5985664051409207,1.16310809560668,-0.5157067474963768
5.629090831143225,1.6474900561977013,1.1579510281317162,-0.6176637691091078
5.645565731705202,1.6964964693155724,1.1517743904406252,-0.7220778945125202
5.662530696398357,1.745784916784945,1.1445536114955,-0.8290070048011948
5.679988545566206,1.7955713416539725,1.136263541447488,-0.9385237952751759
5.697944258982746,1.8460893431420335,1.1268783034947363,-1.0507193839835927
5.716405152414167,1.8975913995315532,1.1163711096549003,-1.1657072914289777
5.735381066409482,1.9503503879808974,1.1047140367406105,-1.2836278338204095
5.754884570289291,2.0046614671153646,1.0918777584024064,-1.4046529824205152
5.774931184960445,2.0608443940751973,1.0778312285782012,-1.5289917525760155
5.795539628901197,2.1192463520909643,1.062541311052441,-1.656896196765057
5.816732092422106,2.1802453660764667,1.0459723490847905,-1.7886680842310392
5.8385345460828715,2.2442543794118794,1.0280856682424802,-1.9246663515820346
5.86097708987699,2.311726050166885,1.0088390047266598,-2.0653153972980207
5.88409435037866,2.3831582910323004,0.9881858507536796,-2.211114256668393
5.907925933288983,2.4591005096471115,0.9660747081869957,-2.3626466121884606
5.9325169383854535,2.540160379952692,0.9424482420651111,-2.5205914335765285
5.957918542184981,2.6270107482905494,0.9172423277293459,-2.685733742871011
5.984188649667886,2.720395878163656,0.8903849903006358,-2.858974464050098
6.011392608449523,2.8211355429818767,0.8617952456601348,-3.041337374515302
6.039603963879341,2.9301242816265267,0.8313818719149817,-3.2339695430079405
6.068905206695606,3.0483210964715743,0.7990421764849023,-3.4381288408751813
6.099388417660323,3.176721443909551,0.7646608880761505,-3.6551473785250947
6.131155632099418,3.316297682132748,0.7281094142908996,-3.8863518407607183
6.164318608920746,3.467884972627271,0.6892458958832924,-4.132908948200563
6.1989974586470185,3.631975566215037,0.6479168064012868,-4.395544652640804
6.235317214309169,3.808364852870877,0.6039613598748788,-4.674058296979498
6.273400862837877,3.9955711145602515,0.5572207769050838,-4.96652274456364
6.31335657398348,4.189944214257086,0.5075555494594474,-5.26805145375029
6.3552560161260505,4.384434409651488,0.4548750349219445,-5.569090421964978
6.399100360222565,4.567213157317227,0.3991841307022947,-5.853499467937114
6.444772491795738,4.720856460775947,0.34064913602292357,-6.097410222042642
6.491981056403497,4.823559528164269,0.27967503380249714,-6.270906594584494
6.54021665168514,4.854049205683378,0.2169659678566522,-6.344849446140984
6.588757143741973,4.799835352952052,0.15351747339524235,-6.302337741028585
6.636755497271493,4.664140828278239,0.0904940959849565,-6.148298459285472
6.683396905554275,4.4653421077480635,0.029011111392101774,-5.908623544321734
6.728050326631756,4.228722621956802,-0.030075124051115565,-5.618635664496651
6.770337552851324,3.9772575024416237,-0.08626148069608208,-5.310283585856591
6.810110127875741,3.7269975673843154,-0.13936431655464798,-5.00579235891086
6.847380103549584,3.4870336254184653,-0.18942224014375658,-4.717684706003994
6.8822504398037685,3.261433170738262,-0.23659908720379652,-4.451515628167381
6.9148647715111515,3.0512482857288066,-0.2811142434854703,-4.208678045075373
6.94537725436844,2.8559495189810282,-0.3232010239362241,-3.988394642171536
6.97393674955825,2.674291626840027,-0.3630849703579394,-3.7889139288882636
7.000679665826651,2.5047865527535094,-0.40097410964682206,-3.608159403990036
7.025727531354185,2.345941935437421,-0.4370557036867224,-3.444053822038038
7.04918695070856,2.196370233232914,-0.4714962419071028,-3.2946650817474734
7.071150653040888,2.054830169354182,-0.5044428927245775,-3.158259379265779
7.09169895473443,1.9202345419804188,-0.5360254865172354,-3.033308672703466
7.110901300154234,1.7916424805948896,-0.56635857324427,-2.918477328662855
7.128817724960183,1.6682454586622932,-0.5955433465308986,-2.812600686806285
7.145500179546806,1.5493516840553911,-0.6236693533989615,-2.7146618205015987
7.16099369638736,1.4343710307387412,-0.6508159716039774,-2.6237694032998133
7.175337406694747,1.3228014120511182,-0.6770536656369756,-2.539137870740032
7.188565420815258,1.2142168648110359,-0.7024450443443758,-2.4600702145041637
7.200707589463368,1.108257313169599,-0.7270457464894174,-2.385943345049888
7.211790162595064,1.0046198515910163,-0.7509051799399163,-2.31619578923516
7.221836361110975,0.9030513429541083,-0.774067137832268,-2.25031743520099
7.230866874540515,0.8033421261123697,-0.7965703121842779,-2.187841037385646
7.238900295801639,0.7053206442481734,-0.8184487225581343,-2.1283352188249407
7.245953502244121,0.6088488292504837,-0.8397320747463837,-2.0713987401708507
7.252041990536626,0.5138181023498807,-0.8604460621480922,-2.0166558376000734
7.257180171560125,0.42014587469531056,-0.880612620524093,-1.9637524616842055
7.261381630307079,0.32777245238968306,-0.900250145140935,-1.9123532752068864
7.264659354830975,0.2366582684461166,-0.919373677893004,-1.86213928974563
7.267025937515436,0.14678137928383872,-0.9379950707904603,-1.812806038965235
7.268493751308275,0.05813517600641539,-0.9561231311801126,-1.764062201546697
7.269075103068339,-0.02927372890490061,-0.9737637531955796,-1.7156285990733355
7.268782365779289,-0.11542747039628774,-0.990920039186313,-1.6672375045369656
7.267628091075326,-0.2002987792662217,-1.0075924142316826,-1.6186322058529556
7.265625103282664,-0.2838527289513192,-1.0237787362902122,-1.569566776235647
7.262786575993151,-0.36604839522138577,-1.0394744040525687,-1.5198060097489254
7.259126092040937,-0.4468404401203852,-1.054672464150058,-1.469125485995421
7.254657687639733,-0.5261806290702254,-1.0693637190100123,-1.4173117328583735
7.24939588134903,-0.604019288249554,-1.083536836338596,-1.364162460523824
7.243355688466535,-0.6803067080061379,-1.0971784609438342,-1.3094868437072533
7.2365526213864735,-0.7549944970084522,-1.1102733293809068,-1.2531058320803277
7.229002676416389,-0.8280368909555592,-1.1228043877017102,-1.1948524713187871
7.220722307506834,-0.8993920188298177,-1.134752912414898,-1.1345722189500425
7.211728387318535,-0.9690231288040311,-1.1460986346043984,-1.0721232402586753
7.202038156030495,-1.0368997749412279,-1.1568198670069851,-1.0073766699214748
7.1916691582810826,-1.102998964721199,-1.1668936337062,-0.9402168248322117
7.180639168633871,-1.1673062661975773,-1.176295801954522,-0.8705413528159651
7.1689661059718945,-1.2298168722725311,-1.1850012154826817,-0.7982613007356182
7.1566679372491695,-1.2905366182475373,-1.1929838284900378,-0.7233010840053755
7.143762571066694,-1.349482947573942,-1.2002168393300916,-0.6455983379222856
