th1 (rad),w1 (rad/s),th2 (rad),w2 (rad/s),a1 (rad/s^2),a2 (rad/s^2)
2.64663126613,-2.414710430169378,4.240024981175669,0.656477914266202,-4.407940484408405,2.7979154580969645
2.6224841618283063,-2.458789835013462,4.246589760318331,0.6844570688471716,-4.561973277816017,2.4757970484100493
2.5978962634781717,-2.504409567791622,4.253434331006803,0.7092150393312721,-4.728579075656209,2.1360686830285114
2.5728521678002556,-2.551695358548184,4.260526481400116,0.7305757261615572,-4.909326110100901,1.7772132843864616
2.547335214214774,-2.600788619649193,4.267832238661732,0.7483478590054218,-5.105863851430288,1.3975037279999951
2.5213273280182817,-2.651847258163496,4.275315717251786,0.7623228962854217,-5.319925852459419,0.9949947914985307
2.4948088554366468,-2.7050465166880904,4.2829389462146406,0.772272844200407,-5.553330719609273,0.567518621426367
2.4677583902697657,-2.760579823884183,4.290661674656644,0.7779480304146706,-5.807980174864914,0.11268519033215296
2.4401525920309237,-2.818659625632832,4.298441154960791,0.7790748823179922,-6.085852869516463,-0.37211029203846535
2.4119659957745956,-2.8795181543279966,4.306231903783972,0.7753537793976075,-6.38899223948751,-0.889670433157698
2.3831708142313155,-2.943408076722872,4.313985441577947,0.7664570750660306,-6.719486245368462,-1.4429658392205702
2.353736733464087,-3.0106029391765565,4.3216500123286075,0.7520274166738249,-7.0794363144174675,-2.035088173955138
2.3236307040723214,-3.081397302320731,4.329170286495346,0.7316765349342735,-7.470912201453138,-2.6691807806844743
2.2928167310491143,-3.1561064243352623,4.3364870518446885,0.7049847271274288,-7.895888829577578,-3.3483403569331713
2.2612556668057615,-3.235065312631038,4.343536899115962,0.6715013235580971,-8.35616050134456,-4.075481896489786
2.228905013679451,-3.3186269176444836,4.350251912351544,0.6307465045931993,-8.853227261206227,-4.853157868955965
2.195718744503006,-3.4071591902565457,4.356559377397476,0.5822149259036395,-9.38814776307177,-5.683321575127594
2.1616471526004406,-3.5010406678872634,4.362381526656512,0.5253817101523636,-9.961352937593292,-6.567024086407828
2.126636745921568,-3.6006541972631965,4.367635343758036,0.45971146928828527,-10.572415324321584,-7.5040345696344
2.090630203948936,-3.7063783505064123,4.372232458450919,0.3846711235919413,-11.219770480436686,-8.492375691748213
2.0535664204438717,-3.8185760553107793,4.376079169686839,0.2997473666744591,-11.900389821917974,-9.527769922179292
2.0153806598907638,-3.937579953529959,4.379076643353583,0.2044696674526662,-12.609409051958353,-10.60299974373203
1.976004860355464,-4.0636740440495425,4.38112134002811,0.09843967001534591,-13.339723389707697,-11.707195871881982
1.9353681199149686,-4.19707127794662,4.382105736728263,-0.018632288703473915,-14.081570327546936,-12.825083152815706
1.8933974071355024,-4.3378869812220895,4.381919413841229,-0.14688312023163097,-14.822132379136743,-13.93623384500516
1.8500185373232816,-4.486108305013457,4.380450582638913,-0.2862454586816826,-15.545205276753295,-15.014401389595907
1.805157454273147,-4.64156035778099,4.377588128052096,-0.4363894725776417,-16.23098938836541,-16.02703185175309
1.7587418506953372,-4.803870251664644,4.37322423332632,-0.5966597910951726,-16.85607069202952,-16.935070337125964
1.7107031481786907,-4.972430958584939,4.367257635415368,-0.7660104944664323,-17.39365851470558,-17.69318940293204
1.6609788385928415,-5.146367543731994,4.359597530470704,-0.9429423884957527,-17.814136347020785,-18.250558475424523
1.6095151631555216,-5.324508907202202,4.3501681065857465,-1.125447973249998,-18.085956634040848,-18.552241409083948
1.5562700740834996,-5.50536847354261,4.338913626853246,-1.3109703873408374,-18.1768709715505,-18.54125156124318
1.5012163893480734,-5.687137183258115,4.325803922979838,-1.4963829029532691,-18.05543898407974,-18.161215269382296
1.4443450175154924,-5.867691573098913,4.310840093950305,-1.6779950556470922,-17.69271310859967,-17.35950933485044
1.3856681017845032,-6.044618704184909,4.294060143393835,-1.8515901489955966,-17.063966936746805,-16.090667073603846
1.325221914742654,-6.215258373552377,4.275544241903878,-2.012496819731635,-16.150335145788638,-14.319812920435606
1.2630693310071304,-6.3767617250102635,4.255419273706562,-2.155694948935991,-14.940269678399966,-12.025901638331712
1.1993017137570277,-6.526164421794263,4.233862324217203,-2.2759539653193084,-13.430783278425102,-9.204601730040565
1.134040069539085,-6.660472254578514,4.21110278456401,-2.3679999826197142,-11.628526656695428,-5.870748582686137
1.0674353469933,-6.776757521145469,4.187422784737812,-2.4267074684465757,-9.5507973955574,-2.060358033143169
0.9996677717818453,-6.872265495101043,4.1631557100533465,-2.4473110487780074,-7.226573298981813,2.167812767527679
0.9309451168308349,-6.944531228090861,4.138682599565566,-2.4256329211027308,-4.697576697345635,6.731276927914027
0.8614998045499263,-6.991506995064317,4.114426270354539,-2.3583201518235906,-2.01920831285095,11.523729848102723
0.791584734599283,-7.011699078192827,4.090843068836302,-2.2430828533425635,0.7390286825189393,16.416447350382757
0.7214677438173548,-7.004308791367637,4.068412240302877,-2.078918379838736,3.4941929249950734,21.261953775195746
0.6514246559036784,-6.9693668621176865,4.047623056504489,-1.8662988420867783,6.152315775500172,25.90073268917578
0.5817309872825015,-6.907843704362685,4.028960068083621,-1.6072915151950204,8.613070262520514,30.17138732400963
0.5126525502388747,-6.82171300173748,4.012887152931671,-1.305577641954924,10.776770386102934,33.92387941930047
0.44443542022149984,-6.713945297876451,3.999831376512122,-0.9663388477619195,12.553083462397224,37.03440393869336
0.37729596724273534,-6.588414463252479,3.9901679880345027,-0.5959948083749859,13.870089294117951,39.41943513942777
0.31141182261021055,-6.4497135703112995,3.9842080399507527,-0.20180045698070814,14.681822039631147,41.0459885660206
0.24691468690709756,-6.302895349914988,3.9821900353809454,0.20865942867949783,14.972480147132623,41.93557753639187
0.18388573340794767,-6.153170548443661,3.9842766296677405,0.6280152040434166,14.756185313897213,42.16073528336637
0.12235402792351105,-6.005608695304689,3.990556781708175,1.0496225568770803,14.072304159089645,41.83488140002487
0.062297940970464157,-5.864885653713793,4.001053007276946,1.467971370877329,12.977472747585308,41.097991257445614
0.003649084433326233,-5.735110926237939,4.015732720985719,1.8789512834517852,11.536141594693834,40.1013354790463
-0.05370202482905316,-5.619749510291001,4.034522233820237,2.279964638242248,9.811483042434526,38.99429055510523
-0.10989951993196317,-5.521634679866656,4.057321880202659,2.6699075437933004,7.857982901349368,37.91517176129818
-0.16511586673062972,-5.443054850853162,4.084020955640592,3.049059261406282,5.716279940765821,36.98675169077275
-0.21954641523916135,-5.385892051445504,4.114511548254655,3.4189267783140096,3.4101296650541637,36.31608460843451
-0.27340533575361636,-5.351790754794962,4.148700816037795,3.7820876243983546,0.9449324116557657,35.997687947713025
-0.32692324330156597,-5.342341430678404,4.1865216922817785,4.142064503875485,-1.692888933397062,36.11901019226333
-0.38034665760835,-5.359270320012375,4.227942337320533,4.503254605798118,-4.536303730680936,36.76725733820236
-0.4339393608084738,-5.4046333573191845,4.272974883378514,4.870927179180142,-7.6382743949893355,38.03681710476325
-0.4879856943816656,-5.481016101269078,4.321684155170315,5.251295350227775,-11.072472707807854,40.03642161843493
-0.5427958553943564,-5.591740828347157,4.374197108672593,5.651659566412124,-14.933117245042212,42.89436370776936
-0.598713263677828,-5.741072000797579,4.430713704336714,6.080603203489817,-19.33086847301133,46.75754447608524
-0.6561239836858037,-5.934380685527692,4.491519736371612,6.548178648250669,-24.3768217273713,51.7735562645618
-0.7154677905410807,-6.178148902801405,4.557001522854119,7.065914210896287,-30.135006091608606,58.02897171819547
-0.7772492795690947,-6.479498963717491,4.627660664963082,7.646203928078242,-36.49719594376047,65.38000071881595
-0.8420442692062696,-6.844470923155096,4.704122704243864,8.300003935266401,-42.87976565742736,73.03602118295801
-0.9104889784378206,-7.273268579729369,4.7871227435965285,9.030364147095982,-47.56945045030049,78.6536784072322
-0.9832216642351144,-7.748963084232374,4.877426385067488,9.816900931168304,-46.63859536947659,76.82722845703566
-1.060711295077438,-8.21534903792714,4.975595394379171,10.58517321573866,-33.44815124848815,58.390074318159726
-1.1428647854567093,-8.549830550412022,5.081447126536558,11.169073958920258,-2.9154145472972903,16.351641285728924
-1.2283630909608296,-8.578984695884994,5.193137866125761,11.332590371777547,36.911696852609246,-38.017480366603834
-1.3141529379196797,-8.209867727358901,5.306463769843536,10.952415568111508,64.94577677032974,-75.4768115272424
-1.3962516151932687,-7.560409959655604,5.415987925524652,10.197647452839083,71.92174544398577,-83.46579404103227
-1.4718557147898248,-6.841192505215746,5.517964400053042,9.362989512428761,66.38595212678354,-74.08894246701965
-1.5402676398419823,-6.1773329839479105,5.61159429517733,8.622100087758565,57.63210254247716,-60.25687290491396
-1.6020409696814615,-5.601011958523139,5.697815296054915,8.019531358709425,49.600821816406956,-47.362322931275
-1.6580510892666929,-5.105003740359069,5.778010609642009,7.545908129396675,43.212802010439965,-36.613670338733534
-1.7091011266702836,-4.67287572025467,5.853469690935976,7.17977142600934,38.39702482041062,-27.863972999947027
-1.7558298838728303,-4.288905472050564,5.9252674051960685,6.90113169600987,34.86976709459076,-20.685762037487766
-1.798718938593336,-3.940207801104656,5.994278722156167,6.694274075634992,32.3587883400001,-14.67645936654501
-1.8381210166043824,-3.616619917704655,6.061221462912517,6.547509481969541,30.648978761494522,-9.519270407660759
-1.874287215781429,-3.3101301300897097,6.126696557732212,6.452316777892934,29.579179009466735,-4.978889449617343
-1.9073885170823262,-3.0143383399950423,6.191219725511142,6.40252788339676,29.02886118647174,-0.8851078801941785
-1.9375319004822766,-2.724049728130325,6.2552450043451095,6.3936768045948185,28.904877970344906,2.881709809546002
-1.9647723977635798,-2.4350009484268758,6.319181772391058,6.422493902690278,29.130189618687993,6.400574612139896
-1.9891224072478486,-2.1436990522399957,6.383406711417961,6.4864996488116775,29.634305117641635,9.715472759133883
-2.0105593977702485,-1.8473560010635794,6.448271707906078,6.583654376403016,30.344816166051597,12.837450442436912
-2.0290329577808843,-1.5439078394030634,6.514108251670108,6.712028880827385,31.179600524975886,15.74411662726376
-2.044472036174915,-1.2321118341533046,6.581228540478382,6.869470047100023,32.03969944448269,18.37765500352485
-2.056793154516448,-0.9117148397084777,6.6499232409493825,7.053246597135272,32.80348446916545,20.64283826910926
-2.0659103029135326,-0.5836799950168232,6.720455706920736,7.2596749798263644,33.32351585589805,22.40721141289365
-2.071747102863701,-0.2504448364578427,6.793052456718999,7.483747093955301,33.42835671106882,23.506412631677097
-2.0742515512282793,0.08383873065284553,6.867889927658552,7.718811220272071,32.93221649297905,23.75811069437241
-2.073413163921751,0.4131608955826361,6.945078039861272,7.956392327215795,31.65500960228648,22.98747247542796
-2.0692815549659245,0.7297109916055009,7.02464196313343,8.186267051970075,29.453368990655154,21.064436604789684
-2.0619844450498697,1.0242446815120525,7.106504633653131,8.396911418017972,26.258806413368728,17.947809975218494
-2.0517419982347493,1.2868327456457398,7.190473747833311,8.576389517770156,22.113335717971854,13.724416517416218
-2.0388736707782917,1.5079661028254583,7.2762376430110125,8.713633682944318,17.18840782395381,8.626843336932307
-2.0237940097500373,1.6798501810649964,7.363373979840456,8.79990211631364,11.774269167114266,3.015778470228327
-2.0069955079393873,1.797592872736139,7.451373001003592,8.830059901015924,6.236275598789331,-2.675131982225656
-1.989019579212026,1.8599556287240322,7.539673600013751,8.803308581193667,0.9490199777282656,-8.017161273402742
-1.9704200229247857,1.869445828501315,7.627706685825688,8.72313696845964,-3.7701501498874026,-12.661038220757073
-1.9517255646397724,1.831744327002441,7.714938055510284,8.59652658625207,-7.70692313080271,-16.384274843209194
-1.933408121369748,1.754675095694414,7.800903321372805,8.432683837819978,-10.764655471892432,-19.101399695072747
-1.9158613704128038,1.6470285409754897,7.885230159751004,8.24166984086925,-12.951049556980143,-20.843121112752446
-1.8993910850030489,1.5175180454056882,7.967646858159697,8.033238629741724,-14.348628501152692,-21.71927574399954
-1.884215904548992,1.3740317603941614,8.047979244457114,7.816045872301729,-15.081695206287934,-21.880202647593208
-1.8704755869450502,1.2232148083312822,8.126139703180131,7.597243845825798,-15.288408870343345,-21.485698131734207
-1.8582434388617375,1.0703307196278486,8.20211214163839,7.382386864508455,-15.101505391806677,-20.684655587265954
-1.847540131665459,0.9193156657097818,8.275936010283473,7.175540308635796,-14.637474851114662,-19.60445630622967
-1.8383469750083612,0.7729409171986352,8.347691413369832,6.979495745573499,-13.992234261416892,-18.347476698095175
-1.8306175658363748,0.6330185745844663,8.417486370825566,6.796020978592547,-13.240991520041154,-16.991954111583198
-1.8242873800905302,0.5006086593840547,8.485446580611491,6.626101437476715,-12.440376859506898,-15.595043619179036
-1.8192812934966895,0.3762048907889858,8.551707594986258,6.470151001284925,-11.631505538160688,-14.196631549003238
-1.8155192445887998,0.25988983540737887,8.616409104999107,6.328184685794892,-10.843167053341366,-12.823085656222815
-1.8129203462347259,0.15145816487396518,8.679690951857056,6.199953829232664,-10.094724908803695,-11.490548453252263
-1.8114057645859862,0.05051091578592823,8.741690490149383,6.085048344700141,-9.398558975807436,-10.207640249478962
-1.810900655428127,-0.04347467397214613,8.802540973596384,5.982971942205351,-8.762023142458423,-8.977578554935164
-1.8113354021678485,-0.13109490539673035,8.862370693018438,5.893196156656,-8.188960441091417,-7.799784655944745
-1.8126463512218158,-0.21298450980764455,8.921302654584998,5.8151983100965525,-7.680844810560081,-6.671068968806766
-1.8147761963198923,-0.28979295791324533,8.979454637685963,5.7484876204084845,-7.237622576322897,-5.586485448634715
-1.8176741258990248,-0.3621691836764743,9.036939513890047,5.692622765922137,-6.858319606003454,-4.53993449051007
-1.8212958177357894,-0.4307523797365089,9.09386574154927,5.647223421017037,-6.541468677234358,-3.524580332136593
-1.8256033415331545,-0.49616706650885245,9.15033797575944,5.611977617695671,-6.285399308908168,-2.533136451055399
-1.830565012198243,-0.5590210595979341,9.206457751936396,5.586646253185117,-6.088420607020479,-1.5580624640277358
-1.8361552227942224,-0.619905265668139,9.262324214468247,5.57106562854484,-5.948916880245728,-0.5917092928554976
-1.8423542754509037,-0.6793944344705962,9.318034870753696,5.565148535616285,-5.865365559122699,0.37355374167528493
-1.8491482197956097,-0.7380480900618233,9.37368635610986,5.568884073033038,-5.836276573422242,1.3451952446095552
-1.8565287006962279,-0.7964108557960456,9.429375196840189,5.582336025479133,-5.860040761944785,2.330321002535471
-1.8644928092541884,-0.8550112634154935,9.48519855709498,5.605639235504488,-5.934660770176464,3.3353637945926287
-1.8730429218883433,-0.9143578711172582,9.541254949450025,5.638992873450414,-6.057319617901245,4.365591700162172
-1.882186500599516,-0.9749310672962707,9.597644878184528,5.682648790452036,-6.223717943323368,5.424333234148205
-1.8919358112724787,-1.0371682467295043,9.654471366089048,5.736892122793518,-6.427079520430367,6.511776272875059
-1.9023074937397737,-1.101439041933808,9.711840287316983,5.802009885522268,-6.656686601578289,7.623145081626306
-1.9133218841591118,-1.168005907949591,9.769860386172207,5.878241336338531,-6.895768108326336,8.746003461727796
-1.9250019432386076,-1.2369635890328543,9.828642799535592,5.965701370955809,-7.118544158205682,9.856397498282945
-1.937371579128936,-1.308149030614911,9.88829981324515,6.064265345938638,-7.2862776555221345,10.913602367550398
-1.9504530694350852,-1.3810118071701325,9.948942466704535,6.173401369614142,-7.34239839392932,11.853510538465358
-1.9642631875067866,-1.4544357911094257,10.010676480400676,6.291936474998796,-7.207329658244236,12.581443321875058
-1.9788075454178808,-1.526509087691868,10.073595845150663,6.417750908217546,-6.774823205505872,12.966747022327723
-1.9940726362947996,-1.5942573197469267,10.13777335423284,6.547418378440824,-5.913593836463662,12.844233620543676
-2.010015209492269,-1.6533932581115633,10.203247538017248,6.6758607146462605,-4.480474052383482,12.03086713850709
-2.0265491420733848,-1.698197998635398,10.27000614516371,6.796169386031331,-2.35223429065189,10.367438942214648
-2.043531122059739,-1.721720341541917,10.337967839024024,6.899843775453478,0.5217434888002778,7.788333124503973
-2.060748325475158,-1.7165029066539144,10.40696627677856,6.977727106698517,4.059181870224605,4.401563519360166
-2.0779133545416975,-1.6759110879516683,10.476743547845546,7.021742741892119,8.012048190584235,0.5317165379090034
-2.094672465421214,-1.595790606045826,10.546960975264467,7.027059907271209,12.002110996950124,-3.329329486960901
-2.1106303714816725,-1.4757694960763248,10.617231574337179,6.9937666124016,15.630553998691289,-6.670437757145316
-2.1253880664424356,-1.319463956089412,10.687169240461195,6.927062234830147,18.6066685507231,-9.132320837988253
-2.1385827060033296,-1.1333972705821809,10.756439862809497,6.835739026450264,20.818716005077967,-10.597961784183243
-2.1499166787091513,-0.9252101105314012,10.824797253074,6.729759408608432,22.31766729940706,-11.165181702584588
-2.159168779814465,-0.7020334375373306,10.892094847160084,6.618107591582586,23.24804319817717,-11.050267843680954
-2.1661891141898386,-0.4695530055555589,10.95827592307591,6.5076049131457765,23.777639817628607,-10.493334084916077
-2.1708846442453944,-0.23177660737927283,11.023351972207367,6.402671572296616,24.053926787741347,-9.701768637238022
-2.173202410319187,0.008762660498140645,11.087378687930332,6.305653885924236,24.18774492536229,-8.831027993553914
-2.1731147837142055,0.25064010975176354,11.150435226789575,6.217343605988696,24.25365289534376,-7.9874065582507665
-2.1706083826166878,0.4931766387052011,11.212608662849462,6.1374695404061885,24.29699399538189,-7.239076187705722
-2.1656766162296357,0.73614657865902,11.273983358253524,6.065078778529132,24.341976935257755,-6.627774658745202
-2.1583151504430456,0.9795663480115976,11.334634146038816,5.99880103194168,24.39846590540336,-6.17822495645736
-2.1485194869629294,1.2235510070656312,11.394622156358233,5.937018782377106,24.46699308610233,-5.9047997644705
-2.136283976892273,1.4682209379266546,11.453992344182003,5.877970784732401,24.542227992855995,-5.815862547335226
-2.1216017675130066,1.7136432178552146,11.512772052029327,5.819812159259049,24.615313801079164,-5.916403996824042
-2.1044653353344542,1.9597963558660063,11.570970173621918,5.760648119290809,24.675445296750308,-6.209512153375135
-2.084867371775794,2.2065508088335095,11.628576654814825,5.698552997757058,24.71097220521854,-6.697075218686306
-2.062801863687459,2.4536605308856947,11.685562184792396,5.631582245570194,24.710223992590773,-7.379993011974294
-2.038265258378602,2.700762770811602,11.741878007248097,5.557782315450451,24.662183491663136,-8.258083657137718
-2.011257630670486,2.9473846057282334,11.797455830402601,5.4752014788790735,24.557086819356634,-9.329813555814805
-1.9817837846132038,3.1929554739217996,11.852207845191392,5.381903343320926,24.386991787670283,-10.591943139267443
-1.9498542298739858,3.4368253917985023,11.906026878624601,5.275983911928251,24.146332133919046,-12.039160723430285
-1.9154859759560008,3.6782887131376927,11.958786717743884,5.155592304693949,23.832457333637603,-13.663766023511018
