th1 (rad),w1 (rad/s),th2 (rad),w2 (rad/s),a1 (rad/s^2),a2 (rad/s^2)
4.60671884167137,2.2093166403526827,1.751582101020262,-2.290605573727537,9.33813181187684,0.6964987792451555
4.628812008074896,2.3026979584714513,1.7286760452829866,-2.2836405859350855,9.571096564158264,0.8832294654351658
4.651838987659611,2.398408924113034,1.7058396394236357,-2.274808291280734,9.760730539546602,0.9818061707264303
4.675823076900741,2.4960162295085,1.6830915565108284,-2.2649902295734696,9.891653373669888,0.9679809363689471
4.700783239195826,2.594932763245199,1.6604416542150937,-2.25531042020978,9.949385161223297,0.8184082611471315
4.726732566828278,2.694426614857432,1.6378885500129958,-2.2471263375983086,9.92205743680866,0.5130794999934033
4.753676832976852,2.793647189225519,1.6154172866370127,-2.2419955425983744,9.802255301094057,0.037968349663931936
4.781613304869108,2.8916697422364592,1.5929973312110288,-2.241615859101735,9.588695071321597,-0.6125417060142702
4.810530002291473,2.987556692949675,1.5705811726200114,-2.247741276161878,9.287394746693556,-1.4339544802640836
4.8404055692209695,3.0804306404166106,1.5481037598583927,-2.2620808209645187,8.912033539669387,-2.4111421451908046
4.871209875625135,3.1695509758133045,1.5254829516487474,-2.2861922424164267,8.483331455516684,-3.5192804905816555
4.902905385383268,3.2543842903684714,1.5026210292245832,-2.3213850473222433,8.027483388708132,-4.726213151967618
4.935449228286953,3.3346591242555528,1.4794071787513607,-2.368647178841919,7.57389551160879,-5.9959026265933355
4.968795819529508,3.4103980793716406,1.4557207069629416,-2.4286062051078527,7.152626597980759,-7.2923891238993965
5.002899800323225,3.481924345351448,1.4314346449118631,-2.5015300963468468,6.7919852061004935,-8.583596789175767
5.03771904377674,3.5498441974124533,1.4064193439483947,-2.5873660642386045,6.516667328205489,-9.844417595343218
5.073217485750864,3.6150108706945083,1.3805456833060088,-2.6858102401920365,6.346670419052138,-11.058722440614513
5.109367594457809,3.67847757488503,1.3536875809040885,-2.7963974645981815,6.297043284367066,-12.22021695820576
5.146152370206659,3.7414480077287005,1.3257236062581066,-2.918599634180239,6.378380035024386,-13.332296439685138
5.183566850283946,3.8052318080789442,1.2965376099163042,-3.0519225985770904,6.597873383406879,-14.407208400718407
5.221619168364736,3.871210541913013,1.2660183839305332,-3.195994682584274,6.960715900853826,-15.464889082188044
5.260331273783866,3.9408177009215515,1.2340584371046905,-3.350643573406155,7.471665508172481,-16.531819186509473
5.299739450793081,4.015534356003276,1.200552001370629,-3.5159617652712494,8.136652065121186,-17.6401777826582
5.339894794353113,4.096900876654488,1.1653923837179165,-3.6923635430978314,8.964374441458629,-18.827495706949318
5.3808638031196585,4.186544621069075,1.1284687482869382,-3.8806385001673247,9.967907007972231,-20.136946358120785
5.42272924933035,4.286223691148797,1.089662363285265,-4.0820079637485325,11.16639363896801,-21.61837600780793
5.465591486241838,4.397887627538478,1.0488422836477795,-4.298191723826612,12.586953900399259,-23.330169738723566
5.5095703625172225,4.52375716654247,1.0058603664095134,-4.531493421213848,14.266958432715045,-25.342064186747297
5.554807934182647,4.666426750869621,0.9605454321973749,-4.784914063081321,16.256839134436586,-27.73903032452241
5.601472201691343,4.828995142213987,0.9126962915665616,-5.062304366326545,18.623550587805617,-30.62630083065848
5.649762153113483,5.015230648092043,0.8620732479032962,-5.36856737463313,21.454594628470055,-34.13536406236415
5.699914459594403,5.229776594376744,0.8083875741569649,-5.709921015256771,24.86190139142335,-38.42992712614352
5.7522122255381705,5.4783956082909775,0.7512883640043972,-6.0942202865182065,28.98315986519499,-43.70853467977855
5.806996181621081,5.768227206942927,0.6903461611392152,-6.531305633315992,33.973703459543394,-50.19434243771805
5.86467845369051,6.107964241538361,0.6250331048060553,-7.0332490576931725,39.97049969024205,-58.08650473449291
5.925758096105893,6.507669238440782,0.5547006142291236,-7.614114105038102,46.98097062462903,-67.40745548409832
5.990834788490301,6.977478944687072,0.47855947317874264,-8.288188659879085,54.58273488098879,-77.58712760944616
6.060609577937171,7.52330629349696,0.3956775865799518,-9.064059935973546,61.19793016188953,-86.4531159906188
6.135842640872141,8.135285595115855,0.3050369872202163,-9.928591095879733,62.66028604452312,-88.22947455112384
6.2171954968233,8.761888455561087,0.20575107626141897,-10.810885841390972,50.78275038392103,-71.52737804298786
6.304814381378911,9.269715959400298,0.09764221784750926,-11.52615962182085,17.02583443453059,-24.457385894024757
6.397511540972914,9.439974303745604,-0.017619378370699254,-11.770733480761098,-31.70841769172063,43.32945957024171
6.49191128401037,9.122890126828398,-0.13532671317831024,-11.337438885058681,-67.41950679301775,92.86349979944787
6.583140185278654,8.44869505889822,-0.24870110202889706,-10.408803887064202,-75.56471848946927,104.1138515318418
6.667627135867636,7.693047874003527,-0.35278914089953906,-9.367665371745785,-67.70621401843441,93.29639521893138
6.744557614607671,7.015985733819183,-0.4464657946169969,-8.434701419556472,-56.30424551784041,77.68113278008623
6.814717471945863,6.452943278640779,-0.5308128088125617,-7.657890091755609,-46.10414624136227,63.778687675825076
6.879246904732271,5.9919018162271565,-0.6073917097301178,-7.020103214997358,-37.96843584246755,52.73662147779589
6.939165922894542,5.612217457802481,-0.6775927418800913,-6.4927370002194,-31.658320728140307,44.19854160386161
6.995288097472567,5.295634250521077,-0.7425201118822853,-6.050751584180784,-26.764170904542322,37.58324669011083
7.048244439977778,5.027992541475654,-0.8030276277240931,-5.674919117279676,-22.933461093946796,32.39348510180922
7.098524365392534,4.798657930536186,-0.8597768188968898,-5.350984266261584,-19.901573060229723,28.255004755653065
7.146510944697896,4.599642199933889,-0.9132866615595057,-5.068434218705053,-17.47763574710416,24.895215590561612
7.192507366697235,4.4248658424628475,-0.9639710037465562,-4.819482062799437,-15.52526005784233,22.1157346806817
7.2367560251218634,4.269613241884424,-1.0121658243745506,-4.59832471599262,-13.94685002678617,19.770403870192478
7.279452157540708,4.130144741616562,-1.0581490715344768,-4.400620677290695,-12.672214847710979,17.74962325722451
7.320753604956873,4.003422593139453,-1.1021552783073838,-4.22312444471845,-11.650532487832827,15.969665329390336
7.360787830888268,3.8869172682611244,-1.1443865227545682,-4.063427791424546,-10.844626697526298,14.365581398826235
7.399657003570879,3.7784710012858613,-1.1850208006688137,-3.919771977436284,-10.226751608110465,12.886661187301627
7.437441713583738,3.6762034852047565,-1.2242185204431766,-3.7909053655632676,-9.775320183730782,11.493729891631634
7.4742037484357855,3.5784502833674487,-1.2621275740988092,-3.675968066646951,-9.472210862291147,10.157781431493111
7.50998825126946,3.483728174744537,-1.2988872547652788,-3.57439025233202,-9.300450242726129,8.859552517208936
7.544825533016906,3.390723672317276,-1.334631157288599,-3.4857947271599303,-9.242215610566028,7.589658905455373
7.578732769740078,3.2983015162116156,-1.3694891045601982,-3.4098981381053766,-9.277235958989943,6.348871410403169
7.611715784902194,3.2055291566217163,-1.403588085941252,-3.3464094240013447,-9.38178241945,5.148048717837267
7.643771076468411,3.1117113324272165,-1.4370521801812655,-3.294928936822972,-9.528497646364412,4.007229305897935
7.674888189792683,3.0164263559635724,-1.4700014695494952,-3.254856643763993,-9.687276863078264,2.9534867322790896
7.705052453352319,2.91955358733279,-1.502550035987135,-3.225321776441202,-9.827250809219091,2.0174199859852298
7.734247989225646,2.821281079240599,-1.534803253751547,-3.20514757658135,-9.919645927810066,1.2285663784191123
7.762460800018052,2.7220846199624984,-1.5668547295173605,-3.192861912797159,-9.94098869947185,0.6104756483500972
7.789681646217677,2.6226747329677798,-1.598783348645332,-3.186757156313658,-9.875910859142538,0.17648302068998747
7.815908393547354,2.5239156243763543,-1.6306509202084687,-3.1849923261067583,-9.718825766768228,-0.07280930039912743
7.841147549791118,2.426727366708672,-1.6625008434695363,-3.1857204191107495,-9.474022819746462,-0.14973708385648868
7.865414823458204,2.331987138511207,-1.694358047660644,-3.1872177899493144,-9.154176440871737,-0.07750426322265534
7.888734694843317,2.2404453741024897,-1.726230225560137,-3.187992832581541,-8.77770597986001,0.11350445828087995
7.911139148584342,2.1526683143038894,-1.7581101538859523,-3.1868577879987323,-8.365677705167887,0.3900260337925932
7.93266583172738,2.0690115372522104,-1.7899787317659397,-3.182957527660806,-7.938936808373354,0.7198585612992846
7.953355947099903,1.9896221691684768,-1.8218083070425477,-3.175758942047813,-7.5159481737875335,1.074772336516978
7.973252168791587,1.9144626874306014,-1.853565896463026,-3.1650112186826433,-7.111534721992222,1.4321450704889598
7.9923967956658934,1.8433473402106793,-1.8852160086498524,-3.1506897679777537,-6.736451262205087,1.7754278152593037
8.010830269068,1.7759828275886285,-1.9167229063296298,-3.1329354898251607,-6.397583945992278,2.0937507955409638
8.028590097343887,1.7120069881287057,-1.9480522612278814,-3.111997981869751,-6.098523792117788,2.381029380014275
8.045710167225174,1.6510217502075277,-1.9791722410465789,-3.0881876880696084,-5.840294342207753,2.6348794835307716
8.062220384727249,1.59261880678545,-2.010054117927275,-3.0618388932343006,-5.622077729767292,2.8555572974953884
8.078146572795104,1.5363980294877773,-2.0406725068596177,-3.0332833202593465,-5.441849692105841,3.045043454773358
8.093510553089981,1.4819795325667189,-2.0710053400622113,-3.002832885711613,-5.296886398808296,3.206318232285066
8.108330348415649,1.429010668578636,-2.101033668919327,-2.9707697033887626,-5.18414018496181,3.3428272919106736
8.122620455101435,1.3771692667290178,-2.130741365953215,-2.937341430469656,-5.100499672629314,3.4581128730005943
8.136392147768726,1.3261642700027247,-2.1601147802579113,-2.90276030173965,-5.042956956514853,3.555576415389218
8.149653790468752,1.2757347004375763,-2.189142383275308,-2.8672045375857578,-5.008705001715933,3.638338852566441
8.162411137473129,1.225647650420417,-2.2178144286511654,-2.8308211490600934,-4.9951855320065786,3.7091694975079474
8.174667613977332,1.1756957951003513,-2.2461226401417664,-2.793729454085014,-5.0001036393695335,3.7704605490601053
8.186424571928336,1.125694758706656,-2.2740599346826165,-2.756024848594413,-5.021421313721102,3.824230156641755
8.197681519515402,1.075480545569445,-2.3016201831685605,-2.7177825470279955,-5.057338621044501,3.8721419862359383
8.208436324971096,1.024907159359,-2.3287980086388407,-2.679061127165636,-5.106268512994643,3.9155331447581663
8.218685396564686,0.9738444742290536,-2.355588619910497,-2.6399057957180543,-5.16680920179606,3.955445216020294
8.228423841306975,0.922176382211093,-2.3819876778676776,-2.6003513435578514,-5.237716570741366,3.9926552146443623
8.237645605129087,0.8697992165036793,-2.4079911913032563,-2.5604247914114078,-5.317878083832092,4.027704667420235
8.246343597294123,0.8166204356653584,-2.4335954392173704,-2.5201477447372054,-5.406288989455619,4.060925957477138
8.254509801650777,0.7625575457708021,-2.4587969166647423,-2.479538485162434,-5.502031184902878,4.092465654713312
8.262135377108484,0.7075372339217734,-2.483592301516367,-2.438613828615301,-5.604254845912744,4.122304911902755
8.269210749447701,0.6514946854626459,-2.5079784398025198,-2.3973907794962734,-5.712162773005095,4.150277206444142
8.275725696302327,0.594373057732595,-2.5319523475974823,-2.3558880074318322,-5.8249973247698,4.176083806608591
8.281669426879652,0.536123084484897,-2.5555112276718006,-2.3141271693657464,-5.942029770217246,4.199307375080019
8.287030657724502,0.47670278678272454,-2.5786524993654583,-2.272134095614946,-6.0625518793033955,4.21942411602474
8.291797685592329,0.4160772679896906,-2.6013738403216076,-2.2299398544546984,-6.185869570653771,4.235814840852624
8.295958458272226,0.3542185722831529,-2.6236732388661546,-2.1875817060461724,-6.311298440582337,4.247775282516529
8.299500643995058,0.29110558787732954,-2.645549055926616,-2.145103953221007,-6.438161003064054,4.254525935205218
8.302411699873831,0.22672397784668902,-2.6670000954588264,-2.102558693868955,-6.5657854738280745,4.255221639868287
8.304678939652298,0.1610661231084083,-2.688025682397516,-2.060006477470272,-6.693505932112865,4.248961079032337
8.306289600883382,0.09413106378727963,-2.708625747172219,-2.017516866679949,-6.820663690786479,4.2347962889208395
8.307230911521254,0.025924426879414833,-2.7288009158390185,-1.9751689037907403,-6.946609700073001,4.211742244655897
8.307490155790047,-0.043541670121315185,-2.748552604876926,-1.9330514813441813,-7.0707078030441295,4.178786526762079
8.307054739088834,-0.11424874815175648,-2.7678831196903677,-1.8912636160765606,-7.192338653548904,4.1348990356257564
8.305912251607316,-0.18617213468724553,-2.7867957558511334,-1.849914625720303,-7.310904100626594,4.079041686136352
8.304050530260444,-0.2592811756935115,-2.8052949021083364,-1.8091242088589394,-7.425831838840518,4.010177988373266
8.301457718503508,-0.3335394940819167,-2.8233861441969257,-1.7690224289752068,-7.536580122331895,3.9272824025196083
8.298122323562689,-0.4089052953052356,-2.8410763684866778,-1.7297496049500107,-7.642642342367752,3.8293493474187263
8.294033270609637,-0.4853317187289131,-2.858373864536178,-1.6914561114758235,-7.7435512740362595,3.7154017421486554
8.289179953422348,-0.5627672314692758,-2.875288425650936,-1.654302094054337,-7.8388828074503385,3.5844989680525563
8.283552281107655,-0.6411560595437792,-2.8918314465914796,-1.6184571043738114,-7.928258991943582,3.4357441538175415
8.277140720512216,-0.720438649463215,-2.9080160176352177,-1.584099662835636,-8.011350237597645,3.2682907071307943
8.269936334017585,-0.8005521518391915,-2.923857014263574,-1.5514167557643281,-8.087876536171219,3.081348041679737
8.261930812499193,-0.8814309172009037,-2.939371181821217,-1.5206032753475307,-8.157607582190263,2.8741864762920266
8.253116503327183,-0.9630069930228063,-2.9545772145746922,-1.4918614105846104,-8.220361693745845,2.6461413124389854
8.243486433396955,-1.0452106099602647,-2.969495828680538,-1.4653999974602205,-8.276003450724977,2.3966161259946
8.233034327297352,-1.1279706444675144,-2.9841498286551404,-1.4414338362002745,-8.324439985297358,2.125085338208229
8.221754620852677,-1.2112150443204879,-2.9985641670171432,-1.4201829828181922,-8.3656158752939,1.831096158805547
8.209642470409472,-1.2948712030734268,-3.0127659968453253,-1.4018720212301368,-8.399506605709098,1.5142700207742101
8.196693758378737,-1.3788662691305178,-3.0267847170576268,-1.3867293210223948,-8.426110577242266,1.1743036517263865
8.182905095687433,-1.4631273749029405,-3.0406520102678507,-1.3749862845051308,-8.445439654042582,0.8109699508528168
8.168273821938403,-1.5475817714433664,-3.054401873112902,-1.3668765849966027,-8.45750825622374,0.4241188634196541
8.15279800422397,-1.6321568540056037,-3.068070638962868,-1.362635396362406,-8.46232101688347,0.013678466324716131
8.136476435683914,-1.7167800641744384,-3.081696992926492,-1.3624986116991589,-8.45985903889925,-0.4203435021070363
8.11930863504217,-1.801378654563431,-3.095321979043484,-1.3667020467202293,-8.450064804226276,-0.8778574181065214
8.101294848496536,-1.8858793026056937,-3.1089889995106863,-1.3754806209012946,-8.43282580830677,-1.3586885917354576
8.08243605547048,-1.9702075606887615,-3.1227438057196992,-1.3890675068186493,-8.407957015012727,-1.862572860664088
8.06273397986359,-2.0542871308388886,-3.136634480787886,-1.4076932354252902,-8.375182253838133,-2.3891506918796814
8.042191108555201,-2.13803895337727,-3.150711413142139,-1.431584742344087,-8.334114711495467,-2.9379595381417425
8.020810719021428,-2.2213801004922247,-3.16502726056558,-1.4609643377255044,-8.284236705492075,-3.508424223424447
7.9985969180165055,-2.304222467547145,-3.179636903942835,-1.496048579959749,-8.224878968707404,-4.099845176020624
7.975554693341034,-2.386471257234219,-3.1945973897424325,-1.5370470317199552,-8.155199722703658,-4.711384392368838
7.951689980768692,-2.4680232544612557,-3.209967860059632,-1.5841608756436436,-8.074163874857357,-5.342049101812985
7.927009748224079,-2.5487648932098295,-3.2258094688160686,-1.6375813666617736,-7.980522741781533,-5.990673214937666
7.901522099291981,-2.6285701206276446,-3.2421852824826862,-1.6974880988111503,-7.8727947801085145,-6.655896777954137
7.875236398085704,-2.7072980684287296,-3.259160163470798,-1.7640470665906915,-7.74924789624579,-7.336143824342585
7.848163417401417,-2.7847905473911876,-3.2768006341367046,-1.8374085048341173,-7.607884009116645,-8.029599213250549
7.820315511927505,-2.860869387482354,-3.295174719185046,-1.9177044969666228,-7.446426652856848,-8.734185271518513
7.791706818052681,-2.9353336540109223,-3.314351764154712,-2.005046349681808,-7.2623125269974915,-9.447539310617552
7.762353481512572,-3.007956779280897,-3.3344022276515304,-2.0995217427879838,-7.052688024724586,-10.166993367196753
7.732273913719763,-3.078483659528143,-3.35539744507941,-2.2011916764599513,-6.814411887655771,-10.889557809737983
7.7014890771244815,-3.1466277784047008,-3.3774093618440095,-2.310087254557331,-6.544065237456487,-11.611910754262508
7.670022799340434,-3.2120684307792655,-3.400510234389583,-2.426206362099956,-6.23797030639333,-12.330395525705722
7.637902115032642,-3.2744481338431988,-3.4247722980105824,-2.5495103173570133,-5.892219212890457,-13.041028670926327
7.605157633694209,-3.3333703259721035,-3.4502674011841523,-2.6799206040662766,-5.502714083128614,-13.739521252453168
7.571823930434488,-3.3883974668033896,-3.477066607224815,-2.817315816590808,-5.065219681444222,-14.421316302863584
7.537939955766454,-3.4390496636178316,-3.5052397653907232,-2.9615289796194437,-4.575429454295183,-15.08164536836024
7.503549459130276,-3.4848039581607835,-3.5348550551869176,-3.1123454333030462,-4.0290454876861785,-15.715606984490995
7.468701419548668,-3.525094413037645,-3.565978509519948,-3.269501503147956,-3.4218723004837863,-16.318269674496296
7.433450475418292,-3.559313136042483,-3.5986735245514274,-3.432684199892919,-2.749923624778116,-16.884801611540777
7.397857344057867,-3.586812372290264,-3.6330003665503567,-3.601532216008327,-2.009540346554432,-17.410628416824036
7.361989220334964,-3.6069077757558086,-3.66901568871044,-3.7756385001765675,-1.1975165958385026,-17.89161966481054
7.325920142577406,-3.6188829417141934,-3.7067720737122056,-3.954554696824673,-0.31122960438345143,-18.324303541089364
7.289731313160264,-3.621995237758028,-3.7463176206804523,-4.137797732235566,0.6512325651509449,-18.706107779055444
7.253511360782683,-3.6154829121065184,-3.787695598002808,-4.324858810026121,1.690952897218128,-19.0356235518876
7.217356531661618,-3.598573383134337,-3.830944186103069,-4.515215045544997,2.8080859288333593,-19.312887517033865
7.181370797830275,-3.5704925238460037,-3.8760963365585193,-4.708343920715335,4.001787256061215,-19.53967584297294
7.145665872591815,-3.5304746512853917,-3.923179775765673,-4.903740679145065,5.270183397120674,-19.71980297144834
7.110361126078961,-3.477772817314185,-3.9722171825571233,-5.100938708859548,6.610393764192856,-19.859417287037108
7.0755833979058185,-3.4116688796722565,-4.023226569645718,-5.299532881729919,8.018616070984022,-19.96728598265283
7.041466709109096,-3.331482718962416,-4.076221898463017,-5.499205741556448,9.490285006624276,-20.05506237772657
7.0081518819194715,-3.2365798688961736,-4.131213955878581,-5.699756365333714,11.020311173164185,-20.137530790780815
6.97578608323051,-3.1263767571645316,-4.188211519531919,-5.901131673241522,12.60340280291454,-20.232826563490256
6.9445223156588645,-3.000342729135386,-4.247222836264334,-6.103459938876425,14.234466195928928,-20.36263130386033
6.91451888836751,-2.857998067176097,-4.308257435653099,-6.3070862519150275,15.909071354933353,-20.552344413168882
