th1 (rad),w1 (rad/s),th2 (rad),w2 (rad/s),a1 (rad/s^2),a2 (rad/s^2)
4.9600152464171305,2.0275964662122075,4.154738322229376,2.7054589181853785,3.8877499419878,8.58566997137146
4.980291211079253,2.0664739656320856,4.18179291141123,2.791315617899093,3.4943386380878314,9.073128989229822
5.000955950735574,2.1014173520129638,4.209706067590221,2.8820469077913913,3.079564595225344,9.56364202402331
5.021970124255704,2.132212997965217,4.238526536668135,2.9776833280316244,2.6431783431048785,10.05595536865211
5.043292254235356,2.1586447813962657,4.268303369948451,3.0782428817181455,2.185084494855455,10.548813926435164
5.064878702049319,2.18049562634482,4.299085798765632,3.1837310209824974,1.7053888327892148,11.040959060241011
5.086683658312768,2.1975495146727124,4.330923108975457,3.2941406115849077,1.2044555604029183,11.531118761410937
5.108659153459495,2.209594070276742,4.363864515091307,3.409451799199017,0.6829770735412191,12.01798639366598
5.130755094162263,2.216423841012154,4.397959033083297,3.5296316631356768,0.14205933736386264,12.500183002866862
5.1529193325723845,2.2178444343857926,4.433255349714654,3.6546334931643454,-0.41667308441794204,12.976196573980067
5.1750977769162425,2.213677703541613,4.469801684646297,3.784395458904146,-0.9909470769458978,13.444289600811958
5.197234553951659,2.203768232772154,4.507645639235339,3.918838354912266,-1.5776793181807722,13.902363868770916
5.21927223627938,2.1879914395903466,4.546834022784461,4.057861993599975,-2.1727743741632555,14.347768444557248
5.241152150675283,2.166263695848714,4.5874126427204605,4.201339678045547,-2.7708721068101445,14.777033643505165
5.26281478763377,2.1385549747806127,4.629426039500916,4.3491100144805985,-3.3650322516614195,15.185510560259564
5.284200337381576,2.1049046522639987,4.672917139645722,4.500965120083194,-3.9463431668765794,15.566893383047315
5.305249383904216,2.065441220595233,4.717926790846554,4.656634053913667,-4.5034429805530864,15.912601689535746
5.325903796110168,2.020406790789702,4.764493131385691,4.8157600708090245,-5.021946826683499,16.211004981386278
5.346107864018065,1.970187322522867,4.812650732093781,4.977870120622887,-5.483787085765647,16.4464864403484
5.365809737243294,1.9153494516652105,4.86242943330001,5.142334985026371,-5.86649988007323,16.5983743895375
5.384963231759945,1.8566844528644781,4.913852783150274,5.308318728921746,-6.142537814941643,16.639828161422262
5.4035300762885905,1.7952590747150616,4.966935970439492,5.474717010535969,-6.2787644030453515,16.536861719908615
5.421482667035741,1.732471430684608,5.021683140544852,5.640085627735055,-6.236395516690745,16.24783249462387
5.4388073813425875,1.6701074755177006,5.078083996822202,5.802563952681294,-5.971792392122569,15.723909865110937
5.455508456097764,1.6103895515964748,5.136109636349015,5.959803051332403,-5.438647551583135,14.911228767883514
5.471612351613729,1.5560030760806434,5.195707666862338,6.108915339011238,-4.59216033406831,13.755527243272208
5.487172382374535,1.5100814727399603,5.25679682025245,6.246470611443961,-3.395631355085386,12.209877091018067
5.5022731971019345,1.4761251591891065,5.31926152636689,6.368569382354141,-1.8293367978744963,10.245406224122815
5.517034448693826,1.4578317912103615,5.382947220190431,6.471023444595369,0.09952905289579289,7.863537080673219
5.53161276660593,1.4588270817393194,5.447657454636385,6.549658815402101,2.34844256180458,5.1064677423407225
5.546201037423323,1.4823115073573652,5.513154042790406,6.600723492825509,4.836293101694287,2.061292028931819
5.561024152496897,1.530674438374308,5.579161277718661,6.621336413114827,7.448515434346099,-1.1463385958180579
5.5763308968806395,1.605159592717769,5.64537464184981,6.609873027156646,10.051378089228491,-4.369890468420955
5.592382492807817,1.705673373610054,5.711473372121376,6.566174122472437,12.512325895353014,-7.466846228406359
5.609439226543918,1.830796632563584,5.777135113346101,6.491505660188373,14.720194058303791,-10.322836186179995
5.6277471928695535,1.977998573146622,5.842050169947985,6.388277298326574,16.599007255233076,-12.867086579424587
5.6475271786010195,2.1439886456989528,5.90593294293125,6.259606432532328,18.11214553938389,-15.075431489107169
5.668967065058009,2.3251101010927915,5.968529007256573,6.1088521176412565,19.25781383532568,-16.962544939406534
5.692218166068937,2.5176882394460485,6.029617528432986,5.9392266682471915,20.059492661602253,-18.568437334064285
5.7173950484633975,2.718283166062071,6.089009795115458,5.7535422949065484,20.55539873283862,-19.94446804088979
5.744577880124019,2.9238371533904575,6.1465452180645235,5.554097614497651,20.78967658929046,-21.142239001943945
5.773816251657923,3.131733919283362,6.2020861942095,5.342675224478211,20.806366219145627,-22.206489589079034
5.805133590850756,3.3397975814748184,6.255512946454282,5.1206103285874205,20.645988236588778,-23.17158091064127
5.838531566665504,3.546257463840706,6.306719049740156,4.888894519481008,20.34404370591542,-24.06052331176301
5.873994141303911,3.7496979008998603,6.355607994934966,4.648289286363378,19.930654999970262,-24.885477545477972
5.91149112031291,3.949004450899563,6.4020908877986,4.3994345109085975,19.430726389149793,-25.648902158121423
5.950981164821905,4.143311714791061,6.446085232907686,4.142945489327383,18.864205024121866,-26.344801202113185
5.992414281969816,4.33195376503228,6.48751468780096,3.879497477306251,18.246194052616204,-26.95975082939009
6.035733819620138,4.5144157055584415,6.526309662574023,3.6098999690123503,17.58679012814956,-27.473534343561898
6.080877976675723,4.690283606839937,6.562408662264146,3.3351646255767315,16.89059675516933,-27.859312353587086
6.127780812744122,4.859189574391631,6.595760308519914,3.056571502040861,16.1559222863624,-28.08332832656985
6.176372708488039,5.020748797255255,6.626326023540322,2.7757382187751625,15.37372946096614,-28.10423275842713
6.226580196460591,5.1744860918649165,6.654083405728074,2.494695891190891,14.52648616519422,-27.872234723633067
6.278325057379241,5.319750953516858,6.679030364639983,2.2159735439545605,13.587199057139255,-27.328490325701026
6.331522566914409,5.455622944088251,6.701190100079529,1.94268864069755,12.519111412866351,-26.405436041889402
6.386078796355291,5.580814058216915,6.720616986486505,1.678634280278656,11.27680801043516,-25.029156192890042
6.44188693693746,5.693582138321267,6.737403329289291,1.4283427183497555,9.809724204100846,-23.1252303027892
6.498822758320673,5.791679380362275,6.751686756472789,1.1970904153218636,8.069117184927926,-20.629560602565814
6.556739552124295,5.872370552211555,6.7636576606260075,0.9907948092962054,6.019088383798891,-17.504942132866685
6.615463257646411,5.932561436049544,6.77356560871897,0.8157453879675386,3.6508540475296445,-13.762046215791733
6.674788872006906,5.96906997652484,6.781723062598646,0.6781249258096212,0.997058349004074,-9.479938971947117
6.734479571772154,5.97904056001488,6.788504311856742,0.58332553609015,-1.8596651343014379,-4.817483855534008
6.794269977372303,5.9604439086718655,6.794337567217643,0.5351506975348099,-4.7904129231444195,-0.005977346690930963
6.853874416459021,5.912539779440421,6.799689074192991,0.5350909240679006,-7.639210595025816,4.681628564858295
6.912999814253426,5.836147673490163,6.80503998343367,0.5819072097164836,-10.253663198991699,8.978815807289653
6.971361290988328,5.733611041500246,6.810859055530835,0.6716953677893801,-12.516098036365436,12.674459616179497
7.02869740140333,5.608450061136591,6.817576009208729,0.7984399639511751,-14.363178635687033,15.644501955871647
7.084781902014696,5.464818274779721,6.825560408848241,0.9548849835098916,-15.788149174738903,17.857226388471467
7.139430084762494,5.306936783032332,6.83510925868334,1.1334572473946063,-16.828577667452393,19.355999729185122
7.192499452592817,5.138651006357808,6.846443831157286,1.3270172446864574,-17.54761892813858,20.231265228455822
7.243885962656395,4.963174817076422,6.85971400360415,1.5293298969710156,-18.016439649543084,20.59333827513907
7.293517710827159,4.783010420580991,6.87500730257386,1.7352632797224063,-18.301900523758306,20.55248158919384
7.341347815032969,4.599991415343409,6.8923599353710845,1.9407880956143448,-18.46007677126552,20.207518898161986
7.387347729186403,4.415390647630754,6.911767816327228,2.1428632845959648,-18.534268859104493,19.64125803752823
7.431501635662711,4.230047959039709,6.933196449173188,2.3392758649712473,-18.555710807564886,18.920190356170508
7.473802115253108,4.04449085096406,6.9565892078229,2.5284777685329525,-18.545519004151476,18.09632550787848
7.514247023762748,3.859035660922545,6.98187398550823,2.7094410236117374,-18.516955925361604,17.20975428574292
7.552837380371974,3.673866101668929,7.008968395744347,2.8815385664691666,-18.477527811097655,16.29117462344305
7.589576041388663,3.4890908235579525,7.037783781409039,3.044450312703597,-18.430723873565036,15.364047147698086
7.624466949624243,3.304783584822302,7.068228284536075,3.198090784180578,-18.377361615347084,14.446290300066016
7.657514785472467,3.1210099686688313,7.100209192377881,3.3425536871812382,-18.316574044394343,13.55154184988632
7.6887248851591545,2.937844228224888,7.133634729249693,3.4780691056801016,-18.246498151896496,12.690057269654972
7.718103327441403,2.755379246705923,7.168415420306494,3.6049696783766514,-18.164724730896825,11.869322101765627
7.745657119908462,2.5737319993969545,7.204465117090261,3.7236628993943075,-18.06856137026498,11.094446195704394
7.771394439902432,2.393046385694305,7.241701746084204,3.8346073613513516,-17.955150239396858,10.368393640667675
7.795324903759375,2.2134948833003363,7.280047819697717,3.9382912977580284,-17.821473232086376,9.69208874300314
7.817459852592378,2.0352801509794727,7.319430732675298,4.03521218518806,-17.66427046145351,9.064427974578571
7.837812654102173,1.8586374463649376,7.359782854527179,4.125856464933846,-17.479894565366955,8.48222165928856
7.856399028565822,1.683838500711268,7.401041419176518,4.210678681526732,-17.26412321979237,7.94008810093297
7.873237413572935,1.5111972685133441,7.443148205991785,4.290079562536062,-17.01195617118843,7.43032771887246
7.888349386258068,1.3410777068014599,7.486049001617146,4.364382839724787,-16.71743152425315,6.942816375784032
7.901760163326083,1.1739033915589283,7.529692830014394,4.433811003482627,-16.37350917153576,6.464975841772602
7.913499197241672,1.0101682998435708,7.57403094004922,4.498460761900353,-15.972086261265371,5.9819041816382486
7.923600880240107,0.8504474372309171,7.619015547668224,4.558279803716736,-15.504227278005628,5.476775563588039
7.932105354612416,0.6954051644508608,7.664598345705391,4.613047559352616,-14.960702520113971,4.931637931762813
7.939059406256924,0.5457981392497211,7.710728821298917,4.662363938670244,-14.332921083693758,4.328731161756767
7.944517387649421,0.4024689284127835,7.7573524606856195,4.705651250287811,-13.614300793414742,3.6523939750204115
7.948542076933549,0.266325920478636,7.804408973188497,4.742175190038015,-12.802021182609847,2.8915013486270347
7.951205336138336,0.13830570865253755,7.8518307250888775,4.7710902035242855,-11.898952485896036,2.0421683047695143
7.952588393224861,0.01931618379357719,7.89954162712412,4.791511886571981,-10.915369812631859,1.110204727538452
7.9527815550627965,-0.0898375143327414,7.9474567459898395,4.802613933847366,-9.86991702159761,0.112603131086043
7.951883179919469,-0.1885366845487175,7.995482885328313,4.803739965158226,-8.789282418953173,-0.9226723230159347
7.949997813073982,-0.27642950873824923,8.043520284979895,4.794513241928067,-7.706274235557251,-1.9590327872704965
7.9472335179866,-0.35349225109382176,8.091465417399176,4.774922914055362,-6.656429125582042,-2.95559108301192
7.943698595475662,-0.4200565423496422,8.13921464653973,4.745367003225243,-5.673800482686078,-3.8726202001413284
7.939498030052166,-0.47679454717650294,8.186668316571982,4.70664080122383,-4.7869113371247485,-4.676838694654656
7.9347300845804005,-0.5246636605477504,8.23373472458422,4.659872414277283,-4.015828842994251,-5.345250120962301
7.929483447974923,-0.5648219489776929,8.280333448726994,4.6064199130676595,-3.370925940565535,-5.866784153591305
7.923835228485146,-0.5985312083833483,8.32639764785767,4.547752071531747,-2.853340956459793,-6.241725669458941
7.9178499164013125,-0.6270646179479462,8.371875168572988,4.485334814837158,-2.4566885570189547,-6.479524084817024
7.911579270221833,-0.6516315035181358,8.41672851672136,4.420539573988988,-2.1693756001349893,-6.5958355794166525
7.905062955186652,-0.6733252595194857,8.46093391246125,4.354581218194821,-1.97693111150101,-6.609570934446483
7.8983297025914565,-0.6930945706344959,8.504479724643199,4.288485508850356,-1.8639611903436974,-6.5404505721050645
7.891398756885112,-0.7117341825379329,8.547364579731703,4.223081003129305,-1.8155635206313452,-6.407271597829244
7.884281415059732,-0.7298898177442463,8.589595389762996,4.159008287151013,-1.8182051506047814,-6.22687089172687
7.87698251688229,-0.7480718692502941,8.631185472634506,4.096739578233745,-1.8601596283776987,-6.013650498657162
7.869501798189787,-0.7666734655340711,8.672152868416843,4.036603073247173,-1.9316288914626982,-5.7794972019640465
7.861835063534446,-0.7859897544486981,8.712518899149314,3.9788081012275325,-2.024666375354579,-5.533943309098306
7.85397516598996,-0.8062364182022439,8.75230698016159,3.9234686681365494,-2.1329924325177005,-5.284451211124663
7.845912801807938,-0.8275663425274209,8.791541666842955,3.8706241560253027,-2.2517652419504404,-5.036742002002505
7.8376371383826635,-0.8500839949469253,8.830247908403207,3.8202567360052777,-2.377346654725618,-4.795119843359524
7.829136298433195,-0.8738574614941815,8.86845047576326,3.7723055375716825,-2.507084878107229,-4.562766524829565
7.820397723818253,-0.8989283102752538,8.906173531138975,3.726677872323387,-2.6391241673357815,-4.341995569378113
7.811408440715501,-0.9253195519486116,8.94344030986221,3.6832579166296058,-2.7722445025252287,-4.1344641079743845
7.8021552451960146,-0.9530419969738639,8.980272889028505,3.6419132755498618,-2.9057302201007107,-3.9413454793194576
7.792624825226276,-0.982099299174871,9.016692021784005,3.6024998207566674,-3.0392646176053018,-3.763467618904037
7.782803832234527,-1.012491945350924,9.052717019991572,3.564865144567627,-3.1728468359870363,-3.6014228744925814
7.772678912781018,-1.0442204137107944,9.088365671437248,3.528850915822701,-3.306727293242343,-3.455654636674178
7.76223670864391,-1.077287686643218,9.123654180595475,3.494294369455959,-3.4413582504273204,-3.326525541552887
7.751463831777478,-1.1117012691474912,9.158597124290035,3.4610291140404303,-3.577356529250518,-3.2143712385244507
7.740346819086003,-1.1474748344399963,9.19320741543044,3.4288854016551857,-3.7154758542413875,-3.1195429503110845
7.728872070741604,-1.1846295929824102,9.227496269446991,3.397689972152075,-3.856586701679204,-3.0424413433816166
7.71702577481178,-1.2231954599992023,9.261473169168513,3.367265558718259,-4.001661873612407,-2.9835435909030323
7.704793820211788,-1.2632120787353265,9.295145824755695,3.3374301228092285,-4.151766266658787,-2.9434249403512904
7.692161699424434,-1.3047297414019143,9.328520125983786,3.3079958734057158,-4.308049467634044,-2.9227755740358305
7.679114402010415,-1.3478102360782547,9.361600084717843,3.2787681176653574,-4.471739879230802,-2.922413046242106
7.665636299649633,-1.3925276348705626,9.394387765894496,3.2495439872029364,-4.644139055659777,-2.943290064354163
7.651711023300928,-1.4389690254271603,9.426883205766526,3.220111086559395,-4.8266148042304255,-2.9864968188379613
7.637321333046656,-1.4872351734694647,9.45908431663212,3.1902461183710153,-5.020591374612606,-3.05325642114805
7.622448981311962,-1.5374410872155908,9.49098677781583,3.1597135541595347,-5.227534699968625,-3.1449112399465444
7.6070745704398055,-1.589716434215277,9.522583913357426,3.128264441760069,-5.4489301582336855,-3.262896994202573
7.5911774060976525,-1.6442057357976139,9.553866557775027,3.0956354718180434,-5.686249673454948,-3.408700329424547
7.574735348739677,-1.7010682325321633,9.584822912493207,3.061548468523798,-5.940904168702168,-3.58379424355345
7.557724666414355,-1.760477274219185,9.615438397178446,3.0257105260882637,-6.214176422231755,-3.7895441390043763
7.540119893672164,-1.8226190384415026,9.64569550243933,2.98781508469822,-6.507128307780944,-4.027075500872537
7.521893703287748,-1.8876903215193122,9.675573653286312,2.9475443296894945,-6.820475314662465,-4.29709236506177
7.5030168000725554,-1.9558950746659367,9.705049096583208,2.904573406038877,-7.154420331778865,-4.599634106841347
7.483457849325896,-2.027439277983725,9.734094830643597,2.858577064970463,-7.508438269460696,-4.9337571229283474
7.463183456546059,-2.102523660678332,9.762680601293303,2.8092394937411798,-7.88100371077445,-5.297128474502145
7.442158219939276,-2.181333697786077,9.790772996230714,2.756268208996158,-8.269256216789794,-5.685521683505969
7.420344882961415,-2.2640262599539747,9.818335678320675,2.6994129921610983,-8.668603246853907,-6.092212286307991
7.397704620361876,-2.350712292422514,9.845329808242287,2.6384908692980185,-9.072270259811257,-6.507284561333467
7.374197497437651,-2.4414349950206264,9.871714716935267,2.5734180236846838,-9.470822906877276,-6.916883403294239
7.349783147487445,-2.536143224089399,9.897448897172115,2.504249189651741,-9.851708468018916,-7.30247857893415
7.324421715246551,-2.6346603087695883,9.922491389068632,2.4312244038624,-10.198892869035818,-7.640252971683306
7.298075112158855,-2.7366492374599467,9.946803633107256,2.354821874145567,-10.492703460946359,-7.900778886771956
7.270708619784256,-2.8415762720694104,9.970351851848712,2.2758140852778475,-10.710020111426868,-8.049198224401918
7.242292857063561,-2.948676473183679,9.99310999270149,2.195322103033828,-10.824976782529776,-8.046156575564444
7.212806092331725,-3.056926241008977,10.015063213731828,2.114860537278184,-10.810326278747667,-7.849733056370111
7.182236829921635,-3.1650295037964535,10.03621181910461,2.036363206714483,-10.639563620444957,-7.41852764140404
7.15058653488367,-3.271425140000903,10.056575451171755,1.9621779303004425,-10.289784583109443,-6.715892438885648
7.117872283483662,-3.3743229858319976,10.07619723047476,1.8950190059115861,-9.745076691724533,-5.715021534271671
7.084129053625341,-3.471773752749243,10.095147420533875,1.8378687905688693,-9.000027706273004,-4.404284037606448
7.049411316097849,-3.561774029811973,10.113526108439563,1.7938259501928049,-8.062748410141525,-2.7918823944554
7.013793575799729,-3.6424015139133883,10.131464367941492,1.7659071262482509,-6.956718236945689,-0.9087615255506356
6.977369560660596,-3.7119686962828453,10.149123439203974,1.7568195109927445,-5.720841450082138,1.1912051278515758
6.940249873697767,-3.7691771107836667,10.166691634313901,1.7687315622712603,-4.407372448393872,3.4343214694792588
6.90255810258993,-3.8132508352676053,10.184378949936614,1.803074776966053,-3.0777880955725854,5.733383949250597
6.864425594237254,-3.844028716223331,10.202409697706274,1.860408616458559,-1.7971457464457494,7.996390607575211
6.825985307075021,-3.8620001736877887,10.22101378387086,1.9403725225343111,-0.6278315843446942,10.136234381272706
6.787365305338143,-3.8682784895312357,10.240417509096204,2.041734866347038,0.376239869866219,12.079709124556127
6.748682520442831,-3.8645160908325735,10.260834857759674,2.1625319575925994,1.1740176043568007,13.77431667499385
6.710037359534505,-3.8527759147890057,10.2824601773356,2.300275124342538,1.7396698955131111,15.191895319580542
6.6715096003866154,-3.8353792158338744,10.305462928579026,2.4521940775383437,2.062730674992717,16.328824718613397
6.633155808228277,-3.8147519090839475,10.329984869354409,2.6154823247244776,2.146307099562119,17.20327636147886
6.5950082891374375,-3.7932888380883263,10.356139692601653,2.787515088339266,2.0039351187143204,17.85047845104099
6.557075400756554,-3.7732494869011832,10.384014843485046,2.966019872849676,1.6557956504154059,18.31715144849054
6.519342905887543,-3.756691530397029,10.413675042213542,3.1491913873345814,1.1249453231905069,18.656162021290644
