th1 (rad),w1 (rad/s),th2 (rad),w2 (rad/s)
5.526417636181762,1.1719057295865327,0.07615212591605966,-0.7071009334447147
5.538136693477627,1.26891662947352,0.0690811165816125,-0.7899791317699585
5.550825859772362,1.3671092399911944,0.06118132526391292,-0.8758609216902874
5.5644969521722745,1.4666125787633066,0.05242271604701004,-0.9649601112767443
5.579163077959907,1.5675528117782864,0.0427731149342426,-1.0574738233073273
5.5948386060776905,1.6700476280155323,0.03219837670116933,-1.1535738059053617
5.6115390823578455,1.7741981227350372,0.020662638642115712,-1.253394249958357
5.6292810635851955,1.8800773558602224,0.008128696142532142,-1.3570149379521683
5.648081837143798,1.9877145369582387,-0.0054414532369895414,-1.4644382483974723
5.6679589825133805,2.097073571266525,-0.020085835720964264,-1.575558238610589
5.688929718226046,2.2080245380852075,-0.03584141810707016,-1.6901198061600013
5.711009963606898,2.320306675107169,-0.05274261616867017,-1.8076659440798206
5.73421303035797,2.4334818093087565,-0.07081927560946838,-1.92747163950727
5.758547848451057,2.5468782300763957,-0.09009399200454107,-2.048464476891365
5.784016630751821,2.659527207075145,-0.11057863677345472,-2.1691351505280303
5.810611902822572,2.770098260902347,-0.13226998827873504,-2.2874466385054992
5.838312885431596,2.8768452928538157,-0.15514445466379004,-2.40075929525231
5.867081338360134,2.9775834574130475,-0.17915204761631315,-2.505800134995123
5.896857172934265,3.069724260372069,-0.20421004896626438,-2.5987153323151877
5.927554415537986,3.1503991951595682,-0.23019720228941626,-2.675248963141239
5.959058407489581,3.2166931693351755,-0.25694969192082867,-2.7310781780117144
5.991225339182933,3.2659815326659687,-0.2842604737009458,-2.762296151377567
6.023885154509593,3.2963200491153435,-0.3118834352147215,-2.7659711648458574
6.056848355000746,3.306792318197857,-0.3395431468631801,-2.740646564861605
6.0899162781827245,3.297703553558532,-0.36694961251179614,-2.6866239216529544
6.1228933137183095,3.2705462103232428,-0.39381585172832567,-2.605923022759322
6.155598775821542,3.227742765529067,-0.4198750819559189,-2.501924923094298
6.187876203476832,3.1722509340497744,-0.44489433118686184,-2.37881750132477
6.21959871281733,3.107151453934936,-0.46868250620010954,-2.241012849478647
6.25067022735668,3.0353167944168935,-0.491092634694896,-2.0926758346839165
6.281023395300848,2.959205965436605,-0.5120193930417352,-1.9374286282906568
6.310615454955214,2.8807806837064067,-0.5313936793246418,-1.7782256489989454
6.3394232617922786,2.8015105742349173,-0.5491759358146312,-1.617354235990991
6.3674383675346276,2.722429684455415,-0.5653494781745411,-1.4565083903314118
6.394662664379181,2.644213902705509,-0.5799145620778552,-1.2968929094308475
6.421104803406236,2.567259784671431,-0.5928834911721637,-1.1393304004122016
6.446777401252951,2.4917547110335234,-0.6042767951762856,-0.9843568212268093
6.471694948363286,2.4177346604440957,-0.6141203633885537,-0.8323001274681868
6.495872294967727,2.3451294657431148,-0.6224433646632356,-0.6833416631211013
6.5193235896251585,2.2737970773120644,-0.6292767812944466,-0.537562297645998
6.542061560398279,2.203548881831838,-0.6346524042709066,-0.39497608686606156
6.564097049216597,2.1341680771716507,-0.6386021651395672,-0.255554202218794
6.585438729988314,2.0654228200304163,-0.6411577071617551,-0.11924150153399374
6.6060929581886185,1.997075519501189,-0.6423501221770951,0.014032346293493536
6.626063713383631,1.9288893285628714,-0.6422097987141602,0.14434570506561356
6.64535260666926,1.8606326164905385,-0.640766341663504,0.271780671500869
6.663958932834165,1.7920819929844736,-0.6380485349484953,0.3964208092210071
6.68187975276401,1.7230242934928826,-0.6340843268562852,0.5183503143819022
6.699109995698938,1.653257815496397,-0.6289008237124663,0.6376541751601762
6.715642573853902,1.5825930082189572,-0.6225242819608645,0.7544190079799654
6.7314685039360915,1.5108527554167117,-0.6149800918810648,0.868734341216692
6.746577031490259,1.437872346259582,-0.6062927484688979,0.9806941808069548
6.760955754952854,1.3634991980278153,-0.5964858066608284,1.0903987383400289
6.774590746933132,1.287592372799317,-0.5855818192774281,1.1979562357089246
6.787466670661125,1.210021915872612,-0.573602256920339,1.303484724804974
6.799566889819851,1.1306680344654478,-0.5605674096722892,1.4071138785556228
6.810873570164506,1.0494201299226678,-0.546496270886733,1.5089867225432445
6.821367771463732,0.9661756943628901,-0.5314064036613005,1.6092612856058839
6.831029528407361,0.8808390828395444,-0.5153137908052418,1.7081121538262924
6.839837919235757,0.7933201744293895,-0.49823266926697884,1.8057319153701588
6.847771120980051,0.7035329402090728,-0.4801753501132773,1.902332483562531
6.854806450382141,0.6113939431482016,-0.461152025277652,1.9981462818188
6.860920389813623,0.5168208051886418,-0.44117056245946396,2.093427265535291
6.8660885978655095,0.4197306912793264,-0.42023628980411104,2.1884517411712325
6.870285904778303,0.3200388805501724,-0.3983517723923987,2.283518919117675
6.873486293583805,0.21765752356729368,-0.37551658320122194,2.3789511010886475
6.875662868819478,0.11249472519736696,-0.35172707219033544,2.475093349767714
6.8767878160714515,0.004454149931460344,-0.3269761386926583,2.5723124113900915
6.876832357570766,-0.10656457261264154,-0.30125301457875736,2.6709945512527615
6.87576671184464,-0.22066425061936829,-0.2745430690662297,2.7715418047588445
6.873560069338446,-0.3379467913478402,-0.24682765101864126,2.874365925180498
6.870180601424968,-0.45850735151740846,-0.2180839917668363,2.97987900183113
6.865595527909794,-0.5824249100495504,-0.188285201748525,3.088479302819851
6.859771278809299,-0.7097478029057765,-0.15740040872032648,3.200530338904332
6.852673800780241,-0.8404722606039613,-0.12539510533128317,3.316330433120087
6.844269078174201,-0.9745113993581377,-0.0922318010000823,3.4360692320746216
6.83452396418062,-1.1116515108678737,-0.05787110867933608,3.559766706790575
6.823407449071941,-1.2514920699682603,-0.022273441611430328,3.6871895298734088
6.810892528372259,-1.393366057584452,0.01459845368730376,3.8177398635139954
6.796958867796414,-1.536238780527759,0.052775852322443716,3.950313659094801
6.781596479991137,-1.6785876914206534,0.09227898891339173,4.083131409232105
6.76481060307693,-1.818274619769243,0.13311030300571278,4.213556500303563
6.746627856879238,-1.9524370911936018,0.17524586800874842,4.3379374104467745
6.727103485967302,-2.077446846748144,0.21862524211321616,4.4515398263212305
6.7063290174998205,-2.1890053569113928,0.2631406403764285,4.5486652203112445
6.684438963930707,-2.2824519265426977,0.3086272925795409,4.623061236719737
6.66161444466528,-2.3533242130985363,0.3548579049467383,4.668680659544824
6.638081202534295,-2.3981145590800774,0.4015447115421865,4.680713050617072
6.614100056943494,-2.4150301593239405,0.44835184204835726,4.6566260865003155
6.589949755350254,-2.4044752345261995,0.4949181029133604,4.59682910371992
6.565905003004993,-2.369030531203168,0.5408863939505596,4.504649880489753
6.542214697692961,-2.3129176615291085,0.5859328927554571,4.3856081069517785
6.5190855210776695,-2.2411683436105867,0.6297889738249749,4.246288637014124
6.496673837641564,-2.1588080965256222,0.6722518601951162,4.0932390131064045
6.475085756676307,-2.0702768717164948,0.7131842503261803,3.932194064729554
6.454382987959143,-1.9791485177578556,0.7525061909734758,3.767709043285528
6.434591502781564,-1.888091044189678,0.7901832814063311,3.6031190234715806
6.415710592339667,-1.79896852200603,0.8262144716410469,3.440687566726752
6.397720907119607,-1.712999152552031,0.8606213473083144,3.2818278603624575
6.3805909155940865,-1.6309160305549866,0.893439625911939,3.12732413978701
6.364281755288537,-1.553105357189057,0.9247128673098092,2.9775200146041803
6.3487507017166465,-1.4797147905431551,0.954488067455851,2.832464685663926
6.333953553811215,-1.410733610227917,0.9828127143124903,2.6920200571286075
6.319846217708935,-1.3460497329482242,1.0097329148837764,2.555936080587738
6.3063857203794536,-1.2854890944361534,1.0352922756896537,2.423902123561535
6.293530829435092,-1.2288422022809335,1.059531296925269,2.2955810494634004
6.281242407412282,-1.175881633091473,1.082487107419903,2.1706312051262073
6.269483591081368,-1.126373272582903,1.1041934194711651,2.0487201340487555
6.258219858355539,-1.0800833032040074,1.1246806208116527,1.9295327257527617
6.247419025323499,-1.0367823434704937,1.1439759480691802,1.812775682015329
6.237051201888794,-0.99624770787175,1.1621037048893335,1.6981795844151557
6.227088724810076,-0.9582644486780926,1.179085500733485,1.585499429776077
6.217506080323295,-0.9226256272013108,1.1949404950312459,1.4745142120937131
6.2082798240512815,-0.8891321150164855,1.209685637152183,1.3650259332453012
6.199388502901117,-0.8575921252075777,1.223335896484636,1.2568582920809317
6.190812581649041,-0.827820605414661,1.2359044794054452,1.1498552123573758
6.182534375594894,-0.7996385782094123,1.247403031529019,1.0438793104580326
6.1745379898128006,-0.772872483100269,1.2578418246335994,0.9388103643578687
6.166809264981798,-0.7473535534610725,1.2672299282771782,0.8345438193046264
6.1593357294471875,-0.7229172476034778,1.2755753664702245,0.7309893487633798
6.152106556971153,-0.699402743837467,1.2828852599578584,0.6280694783123046
6.145112529532778,-0.6766525031644344,1.2891659547409815,0.5257182733593889
6.138346004501133,-0.654511899188549,1.2944231374745754,0.4238800874084143
6.131800885509247,-0.6328289122101249,1.2986619383486595,0.32250836521930404
6.125472596387146,-0.6114538827998139,1.3018870220008525,0.2215644939653407
6.119358057559148,-0.5902393191174874,1.3041026669405058,0.12101669497351267
6.113455664367973,-0.569039751611387,1.3053128338902409,0.02083894856719462
6.107765266851859,-0.547711628358893,1.3055212233759128,-0.07899005527225816
6.1022881505682705,-0.5261132440857375,1.3047313228231903,-0.17848794736934687
6.097027018127413,-0.5041046957543914,1.3029464433494968,-0.27766969748858183
6.091985971169869,-0.48154785749616164,1.300169746374611,-0.37654862627797714
6.0871704925949075,-0.4583063675425962,1.296404260111831,-0.47513741678495924
6.0825874289194815,-0.43424561966864095,1.2916528859439815,-0.5734491309869053
6.078244972722795,-0.4092327514792567,1.2859183946341124,-0.671498236531365
6.074152645208003,-0.3831366216456258,1.2792034122687987,-0.7693016487225254
6.070321278991547,-0.35582776792418125,1.2715103957815734,-0.8668797927339211
6.066763001312305,-0.32717833747312874,1.2628415978542342,-0.9642576910853004
6.063491217937574,-0.2970619806223783,1.2531990209433812,-1.06146608160599
6.06052059813135,-0.26535369886335747,1.2425843601273212,-1.1585425714290314
6.057867061142717,-0.23192963741924535,1.230998934413031,-1.2555328330282394
6.055547764768524,-0.19666681235403577,1.2184436060827486,-1.3524918489275233
6.053581096644984,-0.15944276180925743,1.2049186875934734,-1.4494852124724287
6.051986669026891,-0.12013511066123048,1.190423835468749,-1.546590492936664
6.050785317920279,-0.07862103772891446,1.1749579305393825,-1.6438986741954436
6.049999107542989,-0.03477663472007756,1.158518943797428,-1.741515677148497
6.049651341195789,0.011523853488591307,1.141103787025943,-1.8395639768754821
6.049766579730675,0.06040891668958384,1.1227081472571883,-1.9381843259230456
6.050370668897571,0.11201080296466989,1.1033263039979577,-2.037537594789096
6.051490776927218,0.16646668268638853,1.0829509280500669,-2.137806739016458
6.053155443754082,0.22391995249624283,1.0615728606599022,-2.239198898460106
6.055394643279044,0.2845216709094169,1.039180871675301,-2.3419476269145547
6.058239859988138,0.34843210479734854,1.0157613954061555,-2.4463152373512504
6.061724181036111,0.41582234686786773,0.991298243032643,-2.5525952264418774
6.06588240450479,0.4868759349605112,0.9657722907682242,-2.6611147071705163
6.070751163854395,0.5617903593254977,0.939161143696519,-2.7722367231136764
6.076369067447651,0.6407782762768344,0.9114387764653823,-2.8863622317438367
6.082776850210419,0.7240681440414035,0.882575154147944,-3.0039314108572492
6.090017531650833,0.8119038418847373,0.8525358400393714,-3.1254237379275818
6.098136570069681,0.9045426010060007,0.8212816026600956,-3.2513559811897927
6.10718199607974,1.0022502278995415,0.7887680428481977,-3.382276771386567
6.117204498358736,1.1052920848500254,0.754945275134332,-3.518755719817002
6.128257419207236,1.2139175358331245,0.719757717936162,-3.661364009374689
6.1403965945655665,1.328334478619291,0.683144077842415,-3.8106418804855644
6.153679939351759,1.4486690690329773,0.6450376590375594,-3.967046321691825
6.168166630042089,1.5749037441400084,0.6053671958206411,-4.1308694621400734
6.183915667483489,1.7067842671270106,0.5640585011992404,-4.302114765621638
6.200983510154759,1.8436842683976957,0.521037353543024,-4.480314830531245
6.219420352838736,1.9844151155742538,0.4762342052377116,-4.664273400127316
6.2392645039944785,2.1269732343210586,0.4295914712364384,-4.851719643325672
6.260534236337689,2.2682325459802857,0.3810742748031817,-5.038883621964776
6.2832165617974916,2.403626112526819,0.33068543858353394,-5.2200515233531215
6.307252822922759,2.52692737512773,0.27848492335000274,-5.387250407208063
6.332522096674037,2.630331226497564,0.2246124192779221,-5.53033660703076
6.358825408939013,2.70509776506311,0.16930905320761452,-5.637849704791601
6.3858763865896435,2.7429398658388315,0.11293055615969852,-5.698883302927499
6.413305785248032,2.7379871771889475,0.05594172313042353,-5.70574493552378
6.440685657019921,2.6886233276234948,-0.0011157262248142757,-5.656440498814388
6.467571890296156,2.5982165891659252,-0.057680131212958154,-5.555641456067587
6.493554056187816,2.474224063527224,-0.11323654577363403,-5.413432312253643
6.518296296823088,2.3261284222297913,-0.16737086889617045,-5.242483606267904
6.541557581045386,2.1632796602580613,-0.21979570495884948,-5.055127385144737
6.563190377647967,1.9934762651123488,-0.27034697881029685,-4.861468110470514
6.5831251402990905,1.8224606674888844,-0.31896165991500197,-4.668748904088314
6.6013497469739795,1.6540506634708017,-0.36564914895588513,-4.481576726875692
6.617890253608688,1.4905480916200213,-0.41046491622464204,-4.302510085906837
6.632795734524888,1.3331823803931786,-0.4534900170837104,-4.132679582451655
6.6461275583288195,1.1824802420102827,-0.49481681290822693,-3.9722972997112986
6.657952360748922,1.038536561819573,-0.5345397859053399,-3.8210253900510147
6.668337726367118,0.9011982779039257,-0.57275003980585,-3.678223179179943
6.677349709146157,0.7701829011777905,-0.6095322715976494,-3.543104301488298
6.685051538157936,0.6451518292753665,-0.6449633146125324,-3.4148324128793477
6.691503056450689,0.5257538862250511,-0.6791116387413259,-3.2925770064942483
6.69676059531294,0.4116498713123974,-0.7120374088062683,-3.175544189528581
6.700877094026064,0.3025252823646529,-0.7437928507015541,-3.062992177582029
6.70390234684971,0.1980958333082643,-0.7744227724773743,-2.954237715752421
6.705883305182793,0.09810868755932105,-0.8039651496348985,-2.8486572922029465
6.706864392058386,0.0023412295355060564,-0.832451722556928,-2.7456855072325435
6.706887804353741,-0.08940150202643414,-0.8599085776292534,-2.644812015188461
6.705993789333476,-0.17729003402615617,-0.886356697781138,-2.5455778691052062
6.7042208889932144,-0.26147392055895907,-0.9118124764721901,-2.447571736938762
6.701606149787625,-0.3420852033815871,-0.9362881938415777,-2.3504262388899297
6.698185297753809,-0.4192417323250986,-0.9597924562304769,-2.253814523938113
6.6939928804305575,-0.4930502698503565,-0.9823306014698581,-2.1574471267356876
6.689062377732054,-0.5636093419889344,-1.003905072737215,-2.0610691025054924
6.683426284312165,-0.6310118205313227,-1.02451576376227,-1.9644574145292604
6.677116166106852,-0.6953472345521149,-1.0441603379075626,-1.8674185381392874
6.6701626937613305,-0.7567038169496478,-1.0628345232889556,-1.7697862418230776
6.662595655591834,-0.8151702959433019,-1.0805323857071862,-1.6714195070192812
6.654443952632401,-0.8708374438347359,-1.097246580777379,-1.5722005515036923
6.645735578194054,-0.9237993966563389,-1.112968586292416,-1.4720329257521811
6.636497584227491,-0.9741547591064671,-1.1276889155499377,-1.3708396565963703
6.626756036636426,-1.022007509693923,-1.1413973121159013,-1.2685614174160937
6.616535961539487,-1.0674677214372266,-1.1540829262900623,-1.1651547087768628
6.6058612843251145,-1.1106521138604664,-1.165734473377831,-1.0605900376691177
6.5947547631865095,-1.151684452422507,-1.1763403737545222,-0.9548500872575495
6.5832379186622845,-1.1906958119089255,-1.1858888746270977,-0.8479278722661898
6.571330960543195,-1.2278247206908446,-1.1943681533497597,-0.7398248777994678
6.559052713336286,-1.2632172030892652,-1.2017664021277543,-0.6305491815406483
6.546420541305394,-1.297026737351669,-1.2080718939431607,-0.5201135608994479
6.533450273931877,-1.3294141469216854,-1.2132730295521552,-0.4085335878327049
6.5201561324626605,-1.3605474427325879,-1.2173583654304823,-0.2958257147779845
6.5065506580353345,-1.390601634147909,-1.220316622578262,-0.18200535547341826
6.492644641693856,-1.4197585258680108,-1.2221366761329961,-0.06708496445617328
6.478447056435176,-1.4482065175703016,-1.222807525777558,0.048927881174412255
6.4639649912594725,-1.4761404221868846,-1.2223182469658138,0.16603239445683754
6.449203587037604,-1.503761317455497,-1.2206579230212455,0.284236482720319
6.434165973863049,-1.5312764435782527,-1.2178155581940424,0.40355864017190846
6.418853209427266,-1.558899157301608,-1.2137799717923232,0.5240298253181928
6.40326421785425,-1.5868489492196676,-1.2085396735391414,0.6456953180457523
6.387395728362054,-1.6153515262076037,-1.202082720358684,0.7686165480185584
6.371242213099978,-1.6446389540385777,-1.1943965548784983,0.8928728804521538
6.354795823559592,-1.6749498455904164,-1.1854678260739768,1.0185633360937834
6.338046325103688,-1.7065295663925255,-1.175282192713039,1.14580820765809
6.320981029439763,-1.7396304098369801,-1.1638241106364582,1.2747505125768175
6.303584725341393,-1.7745116666314638,-1.15107660551069,1.4055571881795659
6.2858396086750785,-1.8114394733320376,-1.1370210336288944,1.5384198852483084
6.267725213941758,-1.8506862677924782,-1.1216368347764114,1.6735551419996795
6.249218351263833,-1.8925295976055707,-1.1049012833564147,1.8112036125737665
6.2302930552877775,-1.9372499105358636,-1.086789247230677,1.9516278674176994
6.210920556182419,-1.9851267889526587,-1.0672729685565001,2.0951080572494725
6.191069288292892,-2.036432853717548,-1.0463218879840055,2.2419344101475716
6.170704959755717,-2.091424231603218,-1.0239025438825298,2.392395077290648
6.149790717439685,-2.150326024234469,-0.9999785931096233,2.546757214691029
6.12828745719734,-2.213310606210749,-0.974511020962713,2.705238343443977
6.106154351135232,-2.2804658002686993,-0.9474586375282733,2.8679639458633512
6.083349693132545,-2.351749059688049,-0.9187789980696398,3.0349059691589364
6.059832202535665,-2.42692287887316,-0.8884299383780504,3.2057956188694563
6.035562973746933,-2.505466141294024,-0.8563719821893558,3.3800030629390907
6.010508312333993,-2.586456847818998,-0.822571951559965,3.5563776017510524
5.984643743855803,-2.6684252553946037,-0.7870081755424545,3.7330467132306393
5.957959491301857,-2.7491855167376724,-0.7496777084101481,3.907184793702477
5.93046763613448,-2.8256718174551785,-0.7106058604731234,4.074787082118656
5.902210917959929,-2.8938340044579123,-0.6698579896519368,4.230524336528219
5.873272577915349,-2.9486837950247073,-0.6275527462866546,4.36780383231211
5.843785739965102,-2.9846069815194043,-0.5838747079635335,4.479195994108476
5.813939670149908,-2.9960302077700187,-0.5390827480224487,4.557348718919758
5.783979368072208,-2.9784090546905184,-0.49350926083325114,4.5963423477395
5.7541952775253025,-2.9292947647606065,-0.4475458373558561,4.593148003042155
5.724902329877696,-2.849060485848709,-0.4016143573254346,4.548608796253546
5.696411725019209,-2.740913588089935,-0.35612826936289915,4.467430027328679
5.66900258913831,-2.610145170283333,-0.31145396908961237,4.357117732491374
