th1 (rad),w1 (rad/s),th2 (rad),w2 (rad/s),a1 (rad/s^2),a2 (rad/s^2)
2.3684473851947545,-2.2205995366091034,0.535803234813753,1.1163249226562213,-7.7363791343299555,-2.2429179519695372
2.3462413898286636,-2.2979633279524028,0.5469664840403152,1.093895743136526,-7.7752056354235055,-1.714616378787174
2.3232617565491394,-2.3757153843066376,0.5579054414716805,1.0767495793486541,-7.8354890567579965,-1.1655581987411334
2.299504602706073,-2.454070274874218,0.5686729372651671,1.0650939973612428,-7.918418275954787,-0.5937609546216301
2.2749638999573305,-2.533254457633766,0.5793238772387795,1.0591563878150265,-8.02542991713198,0.00301795382481838
2.249631355380993,-2.6135087568050857,0.5899154411169298,1.0591865673532748,-8.158254403337123,0.6273202998940794
2.223496267812942,-2.695091300838457,0.6005073067904626,1.0654597703522155,-8.318968047405045,1.282035669637457
2.1965453548045573,-2.7782809813125073,0.6111619044939848,1.07828012704859,-8.510052449220618,1.9704608438794404
2.168762544991432,-2.8633815058047136,0.6219447057644707,1.0979847354873844,-8.734462523492063,2.6963710381092563
2.140128729933385,-2.950726131039634,0.6329245531193446,1.1249484458684769,-8.995704435325765,3.4641039088152263
2.110621468622989,-3.040683175392892,0.6441740375780294,1.159589484956629,-9.297924465009558,4.278656673527088
2.08021463686906,-3.1336624200429872,0.6557699324275956,1.2023760516919,-9.646009170037647,5.145795491695244
2.04887801266863,-3.230122511743364,0.6677936929445146,1.2538340066088525,-10.045695830772376,6.072173923522957
2.0165767875511964,-3.3305794700510876,0.6803320330106032,1.314555745844082,-10.503689479153472,7.065452977890764
1.9832709928506855,-3.4356163648426223,0.693477590469044,1.3852102756229896,-11.0277778142326,8.134407521637854
1.9489148292022593,-3.5458941429849484,0.707329693225274,1.4665543508393681,-11.626926263832688,9.28899014307891
1.91345588777241,-3.6621634056232755,0.7219952367336676,1.5594442522701573,-12.311319348135127,10.540299632748336
1.876834253716177,-3.785276599104627,0.7375896792563692,1.6648472485976407,-13.092286156061851,11.900359684369096
1.8389814877251307,-3.9161994606652453,0.7542381517423457,1.7838508454413315,-13.98199831774131,13.38154170103504
1.7998194931184783,-4.056019443842659,0.772076660196759,1.917666262451682,-14.992743523633452,14.995342810243882
1.7592592986800517,-4.205946879078994,0.7912533228212758,2.0676196905541206,-16.135432361218108,16.750022605834605
1.7171998298892617,-4.367301202691174,0.811929519726817,2.235119916612467,-17.41675447352975,18.6462587838852
1.67352681786235,-4.541468747426472,0.8342807188929418,2.421582504451319,-18.834013704370033,20.66943639116921
1.6281121303880852,-4.729808884470172,0.8584965439374549,2.628276868363011,-20.36610100344339,22.77638489944717
1.5808140415433836,-4.933469894504606,0.884779312621085,2.8560407173574824,-21.958356291431272,24.873396605632895
1.5314793425983375,-5.153053457418919,0.9133397197946598,3.1047746834138112,-23.498603349617717,26.781745492845754
1.4799488080241483,-5.388039490915096,0.9443874666287979,3.372592138342269,-24.78271954315046,28.188544320857073
1.4260684131149974,-5.635866686346601,0.9781133880122206,3.6544775815508395,-25.4740767302554,28.589398939167832
1.3697097462515315,-5.890607453649155,1.014658163827729,3.940371570942518,-25.07831861052621,27.253811696684323
1.31080367171504,-6.141390639754417,1.0540618795371541,4.212909687909361,-22.988186494532687,23.291621455615434
1.249389765317496,-6.371272504699744,1.0961909764162479,4.445825902465516,-18.684640458294037,15.943487682717231
1.1856770402704986,-6.558118909282684,1.140649235440903,4.6052607792926885,-12.130185687310174,5.1465705123185606
1.1200958511776717,-6.679420766155786,1.1867018432338299,4.6567264844158744,-4.152472775799837,-7.912095510220195
1.053301643516114,-6.720945493913785,1.2332691080779887,4.577605529313672,3.652799854121272,-20.926372652171562
0.9860921885769761,-6.684417495372572,1.2790451633711255,4.3683418027919565,9.697354624884865,-31.57320411249885
0.9192480136232504,-6.587443949123723,1.322728581399045,4.052609761666968,13.230543952541659,-38.705734501709614
0.8533735741320131,-6.4551385095983065,1.3632546790157147,3.665552416649872,14.464135994668462,-42.551473452972516
0.7888221890360301,-6.310497149651622,1.3999102031822135,3.2400376821201466,14.098353717278645,-44.05259328815632
0.7257172175395139,-6.169513612478835,1.432310580003415,2.7995117492385835,12.84413541064902,-44.1873482281381
0.6640220814147255,-6.041072258372345,1.4603056974958009,2.3576382669572027,11.217711970556639,-43.67046526564584
0.603611358831002,-5.928895138666778,1.483882080165373,1.9209336143007443,9.532834815654777,-42.93379498411118
0.5443224074443342,-5.833566790510231,1.5030914163083804,1.4915956644596324,7.95933836016488,-42.20386301198943
0.48598673953923194,-5.753973406908582,1.5180073729529766,1.0695570343397383,6.5808315616514275,-41.58089589845814
0.42844700547014614,-5.688165091292068,1.528702943296374,0.6537480753551569,5.434336574887435,-41.094040905075474
0.37156535455722545,-5.633821725543194,1.5352404240499256,0.24280766630440215,4.53374626387694,-40.73468949775828
0.3152271373017935,-5.588484262904425,1.5376685007129696,-0.16453922867318066,3.8825542195002107,-40.47521400418841
0.2593422946727493,-5.549658720709423,1.5360231084262377,-0.5692913687150647,3.480260746718861,-40.27916252784322
0.20384570746565506,-5.514856113242234,1.530330194739087,-0.972082993993497,3.3252495753547215,-40.10679241149462
0.14869714633323272,-5.481603617488687,1.520609364799152,-1.3731509181084431,3.4157491406967737,-39.918191642004864
0.09388111015834585,-5.447446126081719,1.5068778556180678,-1.7723328345284917,3.7497756564438696,-39.675223099081805
0.039406648897528665,-5.40994836951728,1.4891545272727829,-2.16908506551931,4.324555782575215,-39.342939472432334
-0.014692834797644133,-5.366702811691527,1.4674636766175897,-2.562514460243633,5.1357147781681665,-38.89078524020451
-0.06835986291455941,-5.315345663909846,1.4418385320151534,-2.9514223126456782,6.1764074580515285,-38.293715339740444
-0.12151331955365788,-5.253581589329331,1.4123243088886968,-3.334359466043083,7.436514717291741,-37.53325462031516
-0.1740491354469512,-5.179216442156413,1.378980714228266,-3.7096920122462347,8.902000081900486,-36.59846369207182
-0.2258412998685153,-5.090196441337408,1.3418837941058037,-4.075676649166953,10.554503346354792,-35.48674752541518
-0.2767432642818894,-4.98465140787386,1.3011270276141342,-4.430544124421105,12.371233563956164,-34.2044337474101
-0.32658977836062797,-4.860939072234299,1.2568215863699232,-4.7725884618952055,14.325207173667692,-32.76705283189737
-0.37519916908297096,-4.717687000497622,1.2090957017509711,-5.100258990214179,16.385856929038653,-31.19926904384695
-0.4223760390879472,-4.5538284312072355,1.1580931118488293,-5.412251680652648,18.52001306045333,-29.534436698885994
-0.46791432340001954,-4.368628300602702,1.1039705950423029,-5.707596047641508,20.693230374283207,-27.81378893837991
-0.5116006064060465,-4.16169599685987,1.0468946345658878,-5.985733937025307,22.871405455605945,-26.085303508119978
-0.5532175663746453,-3.932981942303811,0.9870372951956348,-6.246586972106507,25.022599588325278,-24.402328995937633
-0.5925473857976834,-3.682755946420558,0.9245714254745697,-6.490610262065883,27.11895918437372,-22.822091580803008
-0.629374945261889,-3.411566354576821,0.8596653228539108,-6.718831177873913,29.13861047092747,-21.40423131448106
-0.6634906088076572,-3.120180249867546,0.7924770110751718,-6.932873491018723,31.06740195957803,-20.209532058214894
-0.6946924113063326,-2.809506230271766,0.7231482761649846,-7.1349688116008725,32.9003768921404,-19.29900353266394
-0.7227874736090503,-2.480502461350362,0.6517985880489758,-7.327958846927512,34.64287306500327,-18.733439554486264
-0.7475924982225539,-2.134073730700329,0.5785189995797007,-7.515293242472374,36.31115522544459,-18.573501817020652
-0.7689332355295572,-1.770962178445883,0.5033660671549769,-7.701028260642581,37.932458189525335,-18.88024102465095
-0.786642857314016,-1.3916375965506298,0.42635578454855105,-7.889830670889091,39.544206616013774,-19.715717395035398
-0.8005592332795223,-0.996195530390492,0.34745747783966013,-8.086987844839445,41.19188668823105,-21.14291166386924
-0.8105211885834271,-0.5842766635081815,0.2665875993912657,-8.298416961478138,42.924397955696435,-23.22319420521165
-0.8163639552185089,-0.15503268395121717,0.1836034297764843,-8.530648903530254,44.78436838802448,-26.007772453661293
-0.8179142820580211,0.29281099992902765,0.09829694074118175,-8.790726628066867,46.788239294734055,-29.515866847462878
-0.8149861720587308,0.7606933928763682,0.010389674460513074,-9.085885296541496,48.88589181506577,-33.68537764588277
-0.8073792381299671,1.249552311027026,-0.08046917850490189,-9.422739073000324,50.88117176071554,-38.26990098033006
-0.7948837150196969,1.7583640286341813,-0.17469656923490512,-9.805438082803624,52.28481080230256,-42.64140455871581
-0.777300074733355,2.281212136657207,-0.27275095006294137,-10.231852128390782,52.076922203932114,-45.46345330737847
-0.754487953366783,2.801981358696528,-0.3750694713468492,-10.686486661464567,48.44297652477682,-44.31550941323025
-0.7264681397798177,3.2864111239442964,-0.4819343379614949,-11.12964175559687,38.86031368757989,-35.77683322153922
-0.6936040285403747,3.6750142608200953,-0.5932307555174636,-11.487410087812263,21.43388102052222,-17.20072159621435
-0.6568538859321738,3.8893530710253175,-0.7081048563955863,-11.659417303774406,-2.1296302066571964,9.275646322987376
-0.6179603552219206,3.8680567689587453,-0.8246990294333304,-11.566660840544532,-25.098342232820762,34.8316622939576
-0.5792797875323331,3.6170733466305376,-0.9403656378387757,-11.218344217604956,-40.417674819634925,50.34964712250919
-0.5431090540660277,3.212896598434188,-1.0525490800148252,-10.714847746379865,-46.60405674764345,54.23358181443593
-0.5109800880816858,2.746856030957754,-1.159697557478624,-10.172511928235506,-46.68449865217979,50.74301995410637
-0.48351152777210826,2.280011044435956,-1.2614226767609789,-9.665081728694442,-44.01575985622535,44.33896762238254
-0.46071141732774873,1.8398534458737024,-1.3580734940479233,-9.221692052470617,-40.58568121742126,37.537394798183755
-0.4423128828690117,1.4339966336994898,-1.4502904145726294,-8.84631810448878,-37.26236025541833,31.350258038568953
-0.4279729165320168,1.0613730311453065,-1.5387535956175171,-8.532815524103091,-34.33490801301198,26.04777495255135
-0.4173591862205637,0.7180239510151867,-1.6240817508585481,-8.272337774577577,-31.847866132417348,21.608369175324075
-0.4101789467104119,0.3995452896910132,-1.706805128604324,-8.056254082824337,-29.757471435098502,17.91995249896425
-0.4061834938135018,0.10197057534002818,-1.7873676694325673,-7.877054557834694,-27.996119937685243,14.857936131096391
-0.4051637880601015,-0.17799062403682425,-1.8661382150109143,-7.72847519652373,-26.49655305385444,12.311232135281681
-0.4069436943004697,-0.4429561545753687,-1.9434229669761516,-7.605362875170913,-25.199640373039944,10.188170438208553
-0.4113732558462234,-0.6949525583057681,-2.019476595727861,-7.503481170788827,-24.055876418326037,8.415377757704102
-0.4183227814292811,-0.9355113224890285,-2.094511407435749,-7.419327393211787,-23.024700595307834,6.934668059745317
-0.4276778946541714,-1.1657583284421067,-2.168704681367867,-7.349980712614333,-22.073246918081622,5.6997773670036995
-0.43933547793859246,-1.386490797622923,-2.24220448849401,-7.292982938944296,-21.175109820474685,4.67352464246249
-0.4532003859148217,-1.5982418958276698,-2.3151343178834534,-7.246247692519671,-20.309304672970907,3.8255157394029884
-0.4691828048730984,-1.801334942557379,-2.3875967948086503,-7.2079925351256415,-19.4594448821353,3.1303509154598297
-0.4871961542986722,-1.995929391378732,-2.459676720159907,-7.176689025971044,-18.613102631516504,2.566256689817817
-0.5071554482124595,-2.182060417693897,-2.5314436104196174,-7.151026459072866,-17.761306197665064,2.1140639625485806
-0.5289760523893985,-2.3596734796705476,-2.6029538750103463,-7.12988581944738,-16.898128333935038,1.7564668459677895
-0.5525727871861039,-2.528654763009898,-2.67425273320482,-7.112321150987702,-16.020327399172544,1.4775097594059863
-0.5778593348162029,-2.6888580370016233,-2.7453759447146973,-7.097546053393642,-15.127011766592116,1.2622606313361628
-0.6047479151862192,-2.8401281546675445,-2.816351405248634,-7.08492344708028,-14.219307038920444,1.0966350718578413
-0.6331491967328946,-2.982321225056749,-2.8872006397194365,-7.073957096361702,-13.300014053913499,0.9673407415401652
-0.6629724089834621,-3.115321365595884,-2.9579402106830535,-7.0642836889463005,-12.373253193609807,0.8619137942958214
-0.6941256226394209,-3.2390538975319823,-3.0285830475725164,-7.055664551003343,-11.444096784525756,0.7688211554853015
-0.7265161616147408,-3.3534948653772396,-3.0991396930825497,-7.04797633944849,-10.51819611388691,0.677604293630201
-0.7600511102685131,-3.4586768265161085,-3.1696194564770344,-7.041200296512188,-9.601412598385897,0.5790425913912147
-0.7946378785336742,-3.5546909524999677,-3.2400314594421564,-7.035409870598276,-8.699463879962982,0.465317674441968
-0.8301847880586739,-3.6416855912995976,-3.3103855581481394,-7.030756693853856,-7.817595216805588,0.330164097412216
-0.8666016439716698,-3.7198615434676534,-3.380693125086678,-7.027455052879734,-6.96028478976218,0.16899636803892626
-0.9038002594063463,-3.789464391365275,-3.450967675615475,-7.025765089199345,-6.1309888937471095,-0.02099298554053524
-0.941694903319999,-3.8507742803027463,-3.5212253265074684,-7.02597501905475,-5.331929944868425,-0.24076519922604167
-0.9802026461230265,-3.9040935797514305,-3.591485076698016,-7.02838267104701,-4.563927327299224,-0.4893941762401596
-1.0192435819205408,-3.9497328530244227,-3.661768903408486,-7.033276612809411,-3.826268794182847,-0.76404729155908
-1.058740910450785,-3.987995540966251,-3.73210166953658,-7.040917085725002,-3.1166187914177987,-1.0599817978333155
-1.0986208658604475,-4.019161728880429,-3.80251084039383,-7.051516903703335,-2.4309599434501186,-1.3705510008122395
-1.1388124831492519,-4.04347132831493,-3.873026009430863,-7.065222413711457,-1.763565163760555,-1.687216442252955
-1.1792471964324012,-4.061106979952536,-3.9436782335679776,-7.082094578133987,-1.1070004657923713,-1.9995659861445585
-1.2198582662319266,-4.07217698461046,-4.014499179349317,-7.102090237995432,-0.45216249715147244,-2.295342886485805
-1.2605800360780313,-4.076698609581975,-4.085520081729272,-7.1250436668602894,0.21164005406192762,-2.560497501763757
-1.301347022173851,-4.074582209041355,-4.156770518397875,-7.150648641877927,0.8965460202381992,-2.7792810867442928
-1.3420928442642646,-4.065616748838973,-4.228277004816654,-7.17844145274537,1.6159207340698252,-2.9344096026158866
-1.3827490117526542,-4.049457541498275,-4.300061419344107,-7.207785548771529,2.384026957232308,-3.007333943770647
-1.423243587167637,-4.0256172719259515,-4.372139274831823,-7.237858888209235,3.2155561493226883,-2.9786600227275914
-1.4634997598868964,-3.9934617104327246,-4.444517863713915,-7.267645488436511,4.12498802366498,-2.8287656648663524
-1.5034343769912237,-3.9522118301960747,-4.51719431859828,-7.295933145085174,5.12575211277996,-2.5386582614632593
-1.5429564952931845,-3.900954309068275,-4.590153650049132,-7.321319727699806,6.2291800027859425,-2.0911039094857427
-1.5819660383838672,-3.8386625090404154,-4.66336684732613,-7.342230766794663,7.44326375812851,-1.4720314813323783
-1.6203526634742713,-3.7642298714591305,-4.736789154994077,-7.356951081607987,8.771276332578303,-0.6721709384254755
-1.6579949621888626,-3.6765171081333476,-4.810358665810157,-7.363672790992242,10.210362031455645,0.31117556508577027
-1.694760133270196,-3.574413487818791,-4.883995393720079,-7.360561035341384,11.75026318012032,1.4724031124661199
-1.730504268148384,-3.4569108560175876,-4.957601004073493,-7.3458370042167225,13.37240081103215,2.7961574552464983
-1.7650733767085598,-3.323186847907266,-5.03105937411566,-7.317875429664258,15.049554468568326,4.256464019401989
-1.7983052451876325,-3.1726913032215824,-5.104238128412303,-7.275310789470238,16.746368910952683,5.816725551571258
-1.8300321582198482,-3.0052276141120555,-5.176991236307005,-7.217143533954525,18.420837893951557,7.430814940971777
-1.8600844343609688,-2.82101923517254,-5.24916267164655,-7.142835384544807,20.026775260724737,9.045347525155023
-1.8882946267126943,-2.6207514825652924,-5.320591025491998,-7.052381909293257,21.51710017928697,10.603014954055391
-1.9145021415383472,-2.405580480772423,-5.391114844584931,-6.946351759752703,22.84757738105078,12.046642380085872
-1.9385579463460714,-2.177104706961915,-5.460578362182458,-6.8258853359518445,23.98051796531357,13.323451910325682
-1.9603289934156904,-1.9372995273087794,-5.5288372155419765,-6.692650816848587,24.887909116118113,14.38893536795269
-1.9797019886887783,-1.6884204361475983,-5.595763723710462,-6.54876146316906,25.55352316432356,15.209790505995636
-1.9965861930502544,-1.4328852045043627,-5.6612513383421526,-6.396663558109104,25.9737412756339,15.76554809086241
-2.010915045095298,-1.1731477917480237,-5.725217973923243,-6.23900807720048,26.15706448791026,16.048764523710265
-2.0226465230127784,-0.9115771468689211,-5.787608054695248,-6.078520431963377,26.12250994788785,16.063906783952035
-2.0317622944814677,-0.6503520473900426,-5.848393259014882,-5.917881364123857,25.897247675816715,15.825249726389979
-2.038265814955368,-0.39137957063187545,-5.907572072656121,-5.759628866859957,25.51389523991189,15.354202989007412
-2.042179610661687,-0.13624061823275657,-5.965168361324721,-5.606086836969883,25.00785855732368,14.67648280861151
-2.0435420168440146,0.11383796734048024,-6.02122922969442,-5.459322008883768,24.415014435588354,13.819466943557591
-2.04240363717061,0.3579881116963638,-6.075822449783257,-5.321127339448192,23.769911134255775,12.809955300599663
-2.038823756053646,0.5956872230389215,-6.12903372317774,-5.193027786442196,23.1045494613068,11.67243953545532
-2.032866883823257,0.8267327176519895,-6.180964001042161,-5.0763033910876425,22.44771915710374,10.42788581595808
-2.0245995566467374,1.051209909223027,-6.231727034953038,-4.972024532928062,21.824811043682313,9.09296693843765
-2.014087457554507,1.26945801965985,-6.281447280282318,-4.8810948635436855,21.25800229107004,7.679643195806874
-2.0013928773579086,1.4820380425705504,-6.330258228917755,-4.804298431585616,20.766712560402095,6.194979601232614
-1.9865724969322032,1.6897051681745714,-6.378301213233611,-4.74234863557329,20.36824376361114,4.641091879386684
-1.9696754452504575,1.8933876058106829,-6.425724699589344,-4.695937716779423,20.0785378535119,3.0151273337329165
-1.9507415691923506,2.0941729843458017,-6.472684076757138,-4.665786443442094,19.91300956136753,1.3092037552919482
-1.9297998393488927,2.293303079959477,-6.519341941191558,-4.652694405889175,19.887430287416727,-0.48975278624956176
-1.906866808549298,2.492177382833644,-6.56586888525045,-4.657591933751671,20.018852259786613,-2.400311746503809
-1.8819450347209614,2.6923659054315103,-6.612444804587967,-4.681595051216709,20.32656475452734,-4.446999951386441
-1.8550213756666463,2.8956315529767838,-6.659260755100134,-4.726065050730573,20.83305955482991,-6.660897986040908
-1.8260650601368784,3.103962148525083,-6.70652140560744,-4.792674030590982,21.564936211457447,-9.080269702327826
-1.7950254386516276,3.3196115106396573,-6.754448145913349,-4.88347672761426,22.553568144336207,-11.75096252755684
-1.761829323545231,3.5451471920830193,-6.803282913189491,-5.000986352889829,23.835114084214755,-14.725980942752445
-1.7263778516244008,3.783498332925167,-6.85329277671839,-5.148246162317353,25.448964759910556,-18.06294054440584
-1.688542868295149,4.037987980524273,-6.904775238341563,-5.328875567761411,27.43270024468087,-21.816686552616456
-1.6481629884899063,4.312314982971081,-6.958063994019177,-5.547042433287576,29.80959913482608,-26.02150435587999
