th1 (rad),w1 (rad/s),th2 (rad),w2 (rad/s),a1 (rad/s^2),a2 (rad/s^2)
1.8439152195064017,-1.5649548611938506,2.7057767062879208,-2.8403518534708856,-5.61245859256071,-2.342208871829243
1.8282656708944631,-1.6210794471194578,2.677373187753212,-2.863773942189178,-5.497353481866266,-2.728599886388075
1.8120548764232685,-1.6760529819381205,2.64873544833132,-2.891059941053059,-5.36584359352617,-3.12765753807523
1.7952943466038873,-1.7297114178733821,2.619824848920789,-2.9223365164338113,-5.217600007711435,-3.5389557026991723
1.7779972324251534,-1.7818874179504964,2.590601483756451,-2.957726073460803,-5.052303054151811,-3.9619940722187867
1.7601783582456485,-1.8324104484920145,2.561024223021843,-2.9973460141829906,-4.869648144056194,-4.396197425373923
1.7418542537607284,-1.8811069299325764,2.531050762880013,-3.04130798843673,-4.669353893434163,-4.8409141740381
1.7230431844614027,-1.9278004688669181,2.5006376829956456,-3.089717130177111,-4.451172982280223,-5.295413967364313
1.7037651797727336,-1.9723121986897203,2.4697405116938747,-3.142671269850754,-4.214906266931897,-5.758884044962646
1.6840420577858364,-2.014461261359039,2.438313798995367,-3.2002601103003805,-3.9604207556313127,-6.230423902118796
1.663897445172246,-2.0540654689153524,2.4063111978923635,-3.2625643493215684,-3.6876721742822465,-6.70903765552381
1.6433567904830924,-2.0909421906581747,2.373685554399148,-3.3296547258768063,-3.396732995713443,-7.193623266719354
1.6224473685765106,-2.1249095206153092,2.34038900714038,-3.401590958544,-3.0878269872469755,-7.682957480498655
1.6011982733703576,-2.155787790487779,2.30637309755494,-3.4784205333489866,-2.7613715542384245,-8.175674953578973
1.5796403954654799,-2.183401506030163,2.27158889222145,-3.5601772828847764,-2.4180294273334693,-8.670239571257468
1.5578063804051783,-2.207581800303498,2.235987119392602,-3.646879678597351,-2.058771562308862,-9.164905364150398
1.5357305624021433,-2.2281695159265866,2.199518322606629,-3.738528732238855,-1.6849534923764933,-9.657663736128036
1.5134488672428774,-2.2450190508503516,2.1621330352842403,-3.8351053696001354,-1.2984077823372207,-10.146172902188392
1.490998676734374,-2.2580031286737237,2.123781981588239,-3.936567098622019,-0.9015556516166755,-10.627664537517399
1.4684186454476367,-2.2670186851898904,2.084416310602019,-4.042843743997193,-0.4975411956254689,-11.098821722747259
1.4457484585957379,-2.271994097146145,2.043987873162047,-4.1538319612246655,-0.09039182392967285,-11.555621470138721
1.4230285176242765,-2.272898015385442,2.0024495535498006,-4.269388175926053,0.314791655813583,-11.993134676757998
1.4002995374704221,-2.269750098827306,1.95975567179054,-4.389319522693633,0.7116127851557538,-12.405276691822957
1.377602036482149,-2.2626339709757484,1.9158624765636036,-4.513372289611862,1.0921246627674457,-12.784503479235758
1.3549756967723916,-2.251712724348074,1.870728753667485,-4.641217324404219,1.4465464314449101,-13.121452629051417
1.3324585695289108,-2.237247260033625,1.824316580423443,-4.772431850694733,1.7629621968779712,-13.404536694269769
1.3100860969285746,-2.219617638064845,1.7765922619164956,-4.906477217637431,2.0270254370297476,-13.619510444409775
1.2878899205479262,-2.1993473836945476,1.7275274897401212,-5.042672322081529,2.221710033345604,-13.749055888068144
1.2658964467109808,-2.1771302833610915,1.6771007665193058,-5.180162880962211,2.3271745856703685,-13.772461319408176
1.24412514387737,-2.1538585375043877,1.6252991377096837,-5.317887494156293,2.3208396195911605,-13.66551362263965
1.2225865585023261,-2.130650141308476,1.5721202627681208,-5.454542630382689,2.1778144186801467,-13.400773079701603
1.2012800570892415,-2.1088719971216747,1.5175748364642938,-5.588550361179705,1.8718423046061663,-12.948445773205144
1.1801913371180248,-2.090153574075613,1.4616893328524967,-5.7180348189117565,1.3769419717075657,-12.278087307398739
1.1592898013772688,-2.0763841543585375,1.4045089846633791,-5.8408156919857435,0.6698792553936339,-11.361325990918148
1.1385259598336834,-2.069685361804601,1.3461008277435218,-5.954428951894925,-0.26652613356940685,-10.175638428993016
1.1178291062156374,-2.072350623140295,1.2865565382245725,-6.056185336184855,-1.4394954074291044,-8.70891237877591
1.0971055999842345,-2.086745577214586,1.225994684862724,-6.143274459972615,-2.8423603647374915,-6.964108634582234
1.0762381442120887,-2.115169180861961,1.1645619402629976,-6.212915546318437,-4.451524194473258,-4.962899937773194
1.055086452403469,-2.1596844228066936,1.1024327847998132,-6.262544545696169,-6.2254053909193585,-2.7469435727753764
1.0334896081754021,-2.221938476715887,1.0398073393428515,-6.290013981423923,-8.106264462447996,-0.37569329945311497
1.0112702234082434,-2.3030011213403667,0.9769071995286123,-6.293770914418454,-10.025157960949791,2.0795065415362655
0.9882402121948397,-2.4032527009498645,0.9139694903844278,-6.272975849003092,-11.909297839560297,4.5440807724017604
0.9642076851853411,-2.5223456793454675,0.8512397318943968,-6.227535041279074,-13.690222590901106,6.949599218296385
0.9389842283918863,-2.6592479052544786,0.7889643814816061,-6.15803904909611,-15.310863714179384,9.241484221454467
0.9123917493393415,-2.8123565423962726,0.727383990990645,-6.065624206881565,-16.730007998184085,11.383269035342364
0.8842681839153788,-2.9796566223781134,0.6667277489218293,-5.951791516528141,-17.92359049620067,13.356862676445989
0.8544716176915976,-3.15889252734012,0.6072098337565479,-5.818222889763681,-18.883225217727507,15.159510366542763
0.8228826924181964,-3.347724779517395,0.5490276048589111,-5.666627786098253,-19.612978800367014,16.79884819680109
0.7894054446230225,-3.5438545675210653,0.49236132699792856,-5.498639304130243,-20.125490386906836,18.287501969475127
0.7539668989478119,-3.745109471390134,0.43737493395662613,-5.315764284435492,-20.4382756555906,19.6382785569814
0.7165158042339106,-3.94949222794604,0.3842172911122712,-5.119381498865677,-20.570657876403185,20.86045820627353
0.6770208819544502,-4.155198806710072,0.33302347612361444,-4.910776916802942,-20.54142540553443,21.957249385314064
0.6354688938873495,-4.360613060765416,0.283915706955585,-4.691204422949801,-20.36710096086859,22.924203359671377
0.5918627632796953,-4.564284070374102,0.23700366272608697,-4.461962389353087,-20.060621285780663,23.748290191545962
0.5462199225759543,-4.764890283231908,0.19238403883255611,-4.224479487437628,-19.63023042988601,24.407358619460492
0.4985710197436352,-4.9611925875307685,0.15013924395817985,-3.9804059012430226,-19.07844995467465,24.86979181658635
0.44895909386832755,-5.1519770870775154,0.11033518494574962,-3.7317079830771593,-18.401083738354316,25.09430425630008
0.3974393229975524,-5.335987924461058,0.07301810511497803,-3.4807649405141587,-17.586338083160012,25.029998013754156
0.34407944375294186,-5.511851305292658,0.03821045570983644,-3.2304649603766173,-16.614292533514085,24.61701609689658
0.2889609307000153,-5.677994230627799,0.005905806106070263,-2.9842947994076514,-15.45714208720649,23.788393227288367
0.2321809883937373,-5.832565651499864,-0.02393714188800625,-2.7464108671347676,-14.080821867963719,22.473969939944237
0.17385533187873867,-5.9733738701795005,-0.05140125055935393,-2.521671167735325,-12.44874298273277,20.607384579733914
0.11412159317694366,-6.097861300006828,-0.07661796223670718,-2.315597321937986,-10.528257819582086,18.13695743852524
0.053142980176875375,-6.203143878202649,-0.09977393545608704,-2.1342277475527336,-8.299914640878024,15.040409836242807
-0.008888458605151119,-6.286143024611429,-0.12111621293161437,-1.9838236491903056,-5.768385077434447,11.341578633162298
-0.0717498888512654,-6.343826875385774,-0.14095444942351743,-1.8704078628586827,-2.972292453113173,7.124817158354344
-0.13518815760512315,-6.373549799916906,-0.15965852805210426,-1.7991596912751393,0.011225399705471654,2.540732152787997
-0.1989236556042922,-6.373437545919851,-0.17765012496485566,-1.7737523697472592,3.071225495772722,-2.202782937627747
-0.2626580310634907,-6.3427252909621235,-0.19538764866232824,-1.7957801991235367,6.078220662956369,-6.866091940208301
-0.326085283973112,-6.28194308433256,-0.2133454506535636,-1.8644411185256198,8.90658935379495,-11.21469778337065
-0.38890471481643757,-6.1928771907946105,-0.2319898618388198,-1.9765880963593263,11.45676397793094,-15.056135127578845
-0.45083348672438367,-6.078309551015301,-0.2517557428024131,-2.127149447635115,13.669530851152741,-18.264932029303996
-0.5116165822345367,-5.941614242503774,-0.2730272372787642,-2.309798767928155,15.528617193489719,-20.78936186260367
-0.5710327246595744,-5.786328070568877,-0.2961252249580458,-2.5176923865541916,17.05305032301101,-22.64175719417862
-0.6288960053652632,-5.615797567338767,-0.3213021488235877,-2.7441099584959776,18.284189176814806,-23.879550814490212
-0.6850539810386509,-5.432955675570619,-0.3487432484085475,-2.98290546664088,19.272550368071602,-24.584860009634003
-0.7393835377943571,-5.240230171889903,-0.37857230307495626,-3.22875406673722,20.067644164905143,-24.847779923708195
-0.7917858395132561,-5.0395537302408515,-0.4108598437423285,-3.4772318659743022,20.711787943044172,-24.755225654781988
-0.8421813768156646,-4.83243585081041,-0.4456321624020715,-3.7247841225221223,21.237371248226466,-24.38484829063043
-0.8905057353237688,-4.620062138328145,-0.4828800036272927,-3.9686326054284264,21.6664737211792,-23.802575137875664
-0.9367063567070502,-4.4033974011163535,-0.522566329681577,-4.206658356807183,22.01177017049237,-23.06227355989937
-0.9807403307182136,-4.18327969941143,-0.5646329132496488,-4.4372810924061765,22.277936887137873,-22.206392893006196
-1.022573127712328,-3.960500330540051,-0.6090057241737106,-4.659345021336239,22.46307611109159,-21.266860422096457
-1.0621781310177285,-3.735869569429135,-0.6555991743870729,-4.872013625557203,22.559912851212637,-20.265850060803874
-1.0995368267120198,-3.510270440917009,-0.704319310642645,-5.074672126165242,22.556680605692144,-19.21628032249871
-1.1346395311211899,-3.2847036348600875,-0.7550660319042974,-5.26683492939023,22.437721845209897,-18.12205658198077
-1.1674865674697907,-3.0603264164079884,-0.8077343811981997,-5.4480554952100375,22.18391257143314,-16.978188696868695
-1.1980898316338706,-2.838487290693657,-0.8622149361503001,-5.617837382178725,21.773099136576626,-15.771020399449505
-1.226474704540807,-2.6207562993278906,-0.9183933099720873,-5.77554758617322,21.180819727371453,-14.478918787928372
-1.252682267534086,-2.408948102054176,-0.9761487858338196,-5.920336774052504,20.38166479819595,-13.073884593942948
-1.2767717485546277,-2.2051314540722164,-1.0353521535743446,-6.051075619991933,19.35167568747286,-11.524613852950484
-1.29882306309535,-2.011614697197488,-1.095862909774264,-6.1663217585214385,18.072118538951724,-9.801476937155067
-1.3189392100673247,-1.8308935118079708,-1.1575261273594784,-6.264336527892989,16.53470156829676,-7.883546083567078
-1.3372481451854044,-1.6655464961250033,-1.2201694926384081,-6.34317198872866,14.747742515412478,-5.767076861844948
-1.3539036101466544,-1.5180690709708784,-1.2836012125256948,-6.400842757347109,12.741972519085081,-3.473764921472494
-1.3690843008563631,-1.3906493457800275,-1.347609640099166,-6.435580406561835,10.57386541272364,-1.0560229072866967
-1.3829907943141635,-1.284910691652791,-1.4119654441647842,-6.446140635634702,8.324171273030633,1.403799131812926
-1.3958399012306915,-1.2016689789224848,-1.4764268505211313,-6.432102644316573,6.090294296203262,3.8021082278264244
-1.4078565910199163,-1.1407660359604521,-1.540747876964297,-6.394081562038309,3.9733305930201728,6.029707706234891
-1.4192642513795208,-1.1010327300302505,-1.6046886925846802,-6.33378448497596,2.0630472936212114,7.990188396053121
-1.4302745786798234,-1.0804022570940384,-1.6680265374344398,-6.253882601015429,0.4253195128565654,9.61527141737105
-1.441078601250764,-1.0761490619654728,-1.730565363444594,-6.157729886841719,-0.9043994184998203,10.87254630120067
-1.4518400918704186,-1.085193056150471,-1.7921426623130112,-6.049004423829713,-1.9205816969958778,11.764415442514792
-1.4626920224319233,-1.1043988731204297,-1.8526327065513084,-5.931360269404565,-2.641725944425645,12.320417511348223
-1.4737360111631277,-1.1308161325646862,-1.9119463092453541,-5.808156094291083,-3.1019770355380167,12.586706863287487
-1.4850441724887746,-1.1618359029200662,-1.970027870188265,-5.682289025658208,-3.3429510202861192,12.616075957771379
-1.4966625315179753,-1.1952654131229274,-2.026850760444847,-5.556128266080494,-3.40736260412193,12.460451257987827
-1.5086151856492047,-1.2293390391641468,-2.082412043105652,-5.431523753500615,-3.3349209303480385,12.16633238564893
-1.5209085760408463,-1.2626882484676272,-2.1367272806406583,-5.309860429644126,-3.1602242697134466,11.772731467022647
-1.5335354585255225,-1.2942904911647617,-2.1898258849370995,-5.1921331149739,-2.9120905781779935,11.310836975671965
-1.5464783634371702,-1.3234113969465415,-2.2417472160868384,-5.07902474521718,-2.613760757518526,10.804664631161222
-1.5597124774066355,-1.3495490045217269,-2.29253746353901,-4.970978098905568,-2.2835402264105413,10.272147944084095
-1.5732079674518529,-1.3723844067858324,-2.3422472445280658,-4.868256619464727,-1.9355943512241955,9.726325117170067
-1.5869318115197113,-1.3917403502980743,-2.390929810722713,-4.770993368293026,-1.5807358845711357,9.176438972659192
-1.600849215022692,-1.4075477091437856,-2.438639744405643,-4.679228978566434,-1.227126519538665,8.628872031832646
-1.6149246921141298,-1.4198189743391723,-2.4854320341913074,-4.592940258248108,-0.8808653465375024,8.087899689161954
-1.6291228818575216,-1.4286276278045473,-2.5313614367737887,-4.5120612613564886,-0.5464641696188506,7.556274862977178
-1.6434091581355672,-1.4340922695007359,-2.5764820493873537,-4.4364985127267165,-0.22722212512683115,7.035669683904506
-1.6577500808305745,-1.4363644907520041,-2.620847034514621,-4.366141815887671,0.07448377490718965,6.527002125924851
-1.6721137257380945,-1.4356196530029322,-2.6645084526734975,-4.3008717946284225,0.35697560792142596,6.030673184753873
-1.6864699222681239,-1.4320498969237179,-2.7075171706197816,-4.240565062780884,0.6191043625754402,5.546736175987319
-1.700790421237361,-1.4258588532979635,-2.7499228212475906,-4.185097701021011,0.860120460629238,5.075015444957868
-1.7150490097703406,-1.417257648691671,-2.791773798257801,-4.1343475465714326,1.0795752739353746,4.61518791484213
-1.7292215862572573,-1.4064618959523172,-2.833117273723515,-4.088195667423011,1.2772460771288745,4.166837676098446
-1.7432862052167806,-1.3936894351810285,-2.8739992303977453,-4.046527290662026,1.453078642261201,3.7294912534012936
-1.757223099568591,-1.3791586487584164,-2.9144645033043655,-4.009232378128013,1.6071430816980117,3.3026392006716017
-1.771014686056175,-1.3630872179414364,-2.9545568270856455,-3.9762059861212973,1.739599629730104,2.885748168075728
-1.7846455582355893,-1.3456912216441355,-2.9943188869468584,-3.94734850444054,1.8506718798504411,2.478266456281441
-1.7981024704520308,-1.327184502845631,-3.0337923719912636,-3.9225658398777257,1.9406256184023771,2.0796252355226117
-1.811374315480487,-1.3077782466616072,-3.073018030390041,-3.9017695875224994,2.009751863161507,1.6892369892066683
-1.8244520979471033,-1.2876807280299922,-3.112035726265266,-3.8848772176304327,2.0583530653137605,1.3064922884459753
-1.837328905227403,-1.2670971973768546,-3.1508844984415703,-3.8718122947459728,2.0867316949758234,0.9307556727057613
-1.8499998772011716,-1.2462298804270964,-3.18960262138903,-3.8625047380189153,2.09518062670516,0.5613611710100552
-1.8624621760054425,-1.2252780741600449,-3.228227668769219,-3.8568911263088146,2.0839748896672963,0.19760782432254692
-1.874714956747043,-1.204438325263372,-3.2667965800323073,-3.854915048065589,2.0533644602747456,-0.16124455442969132
-1.8867593399996767,-1.1839046806606244,-3.3053457305129634,-3.8565274936098857,2.0035678629364995,-0.5159792332383681
-1.898598386806283,-1.1638690020312594,-3.3439110054490624,-3.8616872859422693,1.934766414390483,-0.8674259362560505
-1.9102370768265957,-1.1445213378873547,-3.382527878308485,-3.8703615453048297,1.8470990045034132,-1.216463688036149
-1.9216822902054693,-1.1260503478423205,-3.4212314937615336,-3.8825261821851913,1.7406573557307548,-1.5640230932836847
-1.9329427936838925,-1.108643774285013,-3.4600567555833854,-3.898166413118028,1.6154817480979702,-1.9110880241043953
-1.9440292314267427,-1.0924889568040332,-3.499038419714566,-3.917277293359072,1.471557239511867,-2.258696679553228
-1.954954120994783,-1.0777733844089146,-3.5382111926481565,-3.939864260154604,1.308810455056493,-2.607941963233847
-1.965731854838872,-1.0646852798583497,-3.5776098352497026,-3.9659436797869425,1.1271070661865248,-2.9599710937935213
-1.9763787076374555,-1.0534142091964844,-3.617269272047572,-3.995543390724878,0.9262501339777598,-3.315984319689676
-1.9869128497294204,-1.0441517078567069,-3.6572247059548206,-4.0287032339217745,0.7059795526002731,-3.677232552203415
-1.9973543668079874,-1.037091912330704,-3.6975117382940383,-4.065475559443809,0.4659729030320165,-4.045013657302479
-2.0077252859312944,-1.032432183300384,-3.7381664938884764,-4.1059256960168335,0.2058481162296778,-4.42066705488674
-2.0180496077642984,-1.0303737021380872,-3.779225750848645,-4.150132366565701,-0.07483154648972841,-4.805566159744123
-2.028353344785679,-1.0311220176029845,-3.820727074514302,-4.198188028163142,-0.37654955570498416,-5.20110805803066
-2.0386645649617092,-1.0348875131600344,-3.8627089547959335,-4.250199108743448,-0.6998244173313035,-5.6086996413746215
-2.0490134400933098,-1.0418857573333473,-3.905210945883368,-4.306286105157194,-1.0451932201287117,-6.029739212274093
-2.059432297666643,-1.0523376895346344,-3.9482738069349397,-4.366583497279935,-1.413189194511082,-6.465592323388609
-2.0699556745619896,-1.0664695814797451,-3.991939641907739,-4.431239420513821,-1.804311768939574,-6.917560313735402
-2.080620370376787,-1.084512699169141,-4.036252036112877,-4.500415023651175,-2.2189872797661305,-7.386839651630059
-2.0914654973684788,-1.1067025719668022,-4.081256186349389,-4.574283420167475,-2.657518108836776,-7.874469784537745
-2.1025325230881466,-1.1332777530551699,-4.126999020551064,-4.653028118012853,-3.1200175934367365,-8.381266731134453
-2.1138653006186985,-1.1644779289895373,-4.173529301731192,-4.736840785324198,-3.6063275860992796,-8.907739139587035
-2.1255100799085938,-1.2005412048505302,-4.220897709584435,-4.825918176720068,-4.115915060899994,-9.453982999395228
-2.137515491957099,-1.24170035545953,-4.269156891351635,-4.92045800671402,-4.6477437111160596,-10.019550672424126
-2.1499324955116945,-1.2881777925706908,-4.3183614714187755,-5.020653513438261,-5.200116132567133,-10.603289471433865
-2.1628142734374016,-1.340178953896362,-4.368568006553158,-5.1266864081526,-5.7704820513832535,-11.203144773416414
-2.176216062976365,-1.3978837744101946,-4.419834870634684,-5.238717855886764,-6.355208306291145,-11.815922782174605
-2.190194900720467,-1.4614358574731061,-4.472222049193552,-5.35687708370851,-6.949307183373881,-12.437008802742838
-2.204809259295198,-1.5309289293068449,-4.525790820030637,-5.481247171735939,-7.546121573976125,-13.060038617134012
-2.2201185485882666,-1.606390145046606,-4.580603291747996,-5.6118475579072795,-8.136968749318614,-13.676523740885475
-2.236182450038733,-1.6877598325397922,-4.636721767327069,-5.748612795316134,-8.710749907500308,-14.275436615698451
-2.2530600483641305,-1.7748673316147954,-4.694207895280231,-5.891367161473119,-9.253540742435927,-14.84276990181981
-2.2708087216802784,-1.8674027390391545,-4.753121566894962,-6.039794860491317,-9.748189833717099,-15.361095779062868
-2.28948274907067,-1.9648846373763256,-4.813519515499875,-6.193405818281946,-10.173967256000761,-15.809167252724572
-2.309131595444433,-2.066624309936333,-4.8754535736826945,-6.351497490809192,-10.506325626596437,-16.161624198488884
-2.3297978385437963,-2.1716875662022974,-4.938968548590786,-6.51311373279408,-10.716859119817036,-16.388891688186575
