th1 (rad),w1 (rad/s),th2 (rad),w2 (rad/s),a1 (rad/s^2),a2 (rad/s^2)
1.5849113543819129,-0.3527707063755007,4.76188955057868,3.0587063640737187,-10.130086882113833,-0.33134675587190976
1.581383647318158,-0.454071575196639,4.792476614219416,3.0553928965149995,-10.437570404423944,-0.6294661221385414
1.5768429315661916,-0.5584472792408784,4.823030543184567,3.0490982352936142,-10.734055541300739,-0.9027557668962327
1.5712584587737828,-0.6657878346538858,4.853521525537503,3.040070677624652,-11.011080807161404,-1.137604026951938
1.564600580427244,-0.7758986427254998,4.88392223231375,3.0286946373551324,-11.260568360461992,-1.3205778381929782
1.5568415939999891,-0.8885043263301198,4.914209178687301,3.0154888589732027,-11.475386658118056,-1.4391659843561675
1.547956550736688,-1.0032581929113003,4.944364067277033,3.001097199129641,-11.649887988147798,-1.4825020069588668
1.537923968807575,-1.1197570727927781,4.974375039268329,2.986272179060052,-11.780360868110598,-1.4419838556093498
1.5267263980796473,-1.2375606814738842,5.0042377610589295,2.9718523405039585,-11.8653458248048,-1.311716145725799
1.5143507912649083,-1.3562141397219323,5.033956284463969,2.9587351790467005,-11.905781043831976,-1.0887227920965754
1.500788649867689,-1.475271950160252,5.063543636254436,2.9478479511257345,-11.90496829291229,-0.7729085316298231
1.4860359303660864,-1.594321633089375,5.093022115765693,2.940118865809436,-11.868374412637529,-0.36678099136444703
1.4700927140351927,-1.7130053772157503,5.122423304423788,2.9364510558957915,-11.803304555908143,0.1250262434444241
1.4529626602630352,-1.8310384227748318,5.151787814982746,2.9377013183302356,-11.718496637855509,0.6963698213911242
1.4346522760352869,-1.9482233891533869,5.1811648281660485,2.944665016544147,-11.6236907103655,1.3402849811624884
1.415170042143753,-2.064460296257042,5.21061147833149,2.958067866355772,-11.529222994878568,2.0496830311908183
1.3945254391811825,-2.1797525262058275,5.240192156995048,2.97856469666768,-11.445684488737063,2.818007636111021
1.3727279139191242,-2.2942093710931983,5.269977803961725,3.00674477302879,-11.38367147381861,3.639817188798572
1.3497858202081923,-2.4080460858313844,5.300045251692013,3.043142944916776,-11.353642783019295,4.511279313227103
1.3257053593498784,-2.5215825136615773,5.330476681141181,3.088255738049047,-11.365888452298982,5.4305806795737
1.3004895342132627,-2.6352413981845673,5.361359238521671,3.142561544844784,-11.430607591954095,6.3982692533902865
1.2741371202314171,-2.749547474104108,5.392784853970119,3.206544237378687,-11.558090295362438,7.417556459208166
1.2466416454903761,-2.8651283770577325,5.424850296343906,3.280719801970769,-11.758998925970708,8.494614018055364
1.217990361719799,-2.9827183663174397,5.457657494363613,3.3656659421513226,-12.044747642865195,9.638905439095868
1.1881631780566244,-3.1031658427460918,5.491314153785127,3.4620549965422813,-12.427984918756037,10.863596496621167
1.1571315196291634,-3.227445691933652,5.52593470375055,3.570690961508493,-12.923191456847379,12.186093546092074
1.1248570627098269,-3.3566776065021258,5.561641613365635,3.6925518969694138,-13.547414625539629,13.62876376695542
1.0912902866448055,-3.492151752757522,5.5985671323353285,3.828839534638968,-14.321169133877934,15.21989681450849
1.0563687691172303,-3.6353634440963014,5.6368555276817185,3.981038502784053,-15.269539591524206,16.994970023909467
1.0200151346762674,-3.7880588400115434,5.676665912709559,4.1509882030231475,-16.42351774355747,18.998271167599967
0.9821345462761519,-3.952294017447118,5.718175794739791,4.340970914699147,-17.821581214568276,21.284894128282936
0.9426116061016807,-4.130509829592801,5.761585503886782,4.553819855981977,-19.51143834244842,23.923007691869806
0.9013065078057527,-4.325624213017285,5.807123702446602,4.793049932900675,-21.5516489500659,26.99600008511299
0.8580502656755798,-4.541140702517944,5.855054201775609,5.063009933751805,-24.012309663886153,30.60337948801524
0.8126388586504004,-4.781263799156806,5.905684301113126,5.369043728631957,-26.972768820031817,34.85761115650013
0.7648262206588323,-5.050991487357124,5.959374738399446,5.717619840196958,-30.51152055094035,39.87015105194348
0.7143163057852611,-5.356106692866527,6.016550936801416,6.116321350716393,-34.67708861284462,45.71108669951634
0.6607552388565958,-5.702877578994974,6.077714150308579,6.573432217711557,-39.415026732079774,52.3076483647701
0.6037264630666461,-6.097027846315772,6.143448472485694,7.096508701359258,-44.39950956585859,59.20946169626391
0.5427561846034884,-6.541022941974358,6.214413559499287,7.688603318321897,-48.68005934290584,65.09496712086306
0.4773459551837448,-7.027823535403416,6.291299592682506,8.339552989530528,-50.06608309208819,66.90957226313307
0.40706771982971063,-7.528484366324299,6.374695122577811,9.00864871216186,-44.527745946341916,59.023435525626574
0.3317828761664676,-7.973761825787718,6.46478160969943,9.598883067418125,-27.217089964443005,34.65397023674995
0.25204525790859045,-8.245932725432148,6.560770440373611,9.945422769785624,2.057118001785093,-6.478385977068991
0.16958593065426897,-8.225361545414296,6.660224668071467,9.880638910014934,32.58481846116091,-49.4293442498201
0.087332315200126,-7.899513360802687,6.759031057171616,9.386345467516733,50.456531804856766,-74.82426491027647
0.008337181592099133,-7.39494804275412,6.852894511846784,8.63810281841397,53.512114934067014,-79.69696043517887
-0.06561229883544206,-6.85982689341345,6.939275540030923,7.841133214062181,48.54281372886076,-73.50744735052476
-0.13421056776957657,-6.374398756124842,7.017686872171545,7.106058740556933,41.34938193594503,-64.29516653163178
-0.197954555330825,-5.960904936765392,7.088747459577115,6.4631070752406155,34.467896797750164,-55.55573189355669
-0.25756360469847894,-5.61622596878789,7.153378530329521,5.907549756305048,28.603307907983556,-48.25022889298178
-0.31372586438635786,-5.330192889708054,7.212454027892571,5.42504746737523,23.783059507576876,-42.40698528726865
-0.3670277932834384,-5.092362294632285,7.2667045025663235,5.000977614502544,19.848620225937474,-37.80013181781789
-0.41795141622976123,-4.893876092372911,7.316714278711349,4.622976296324365,16.62182392987639,-34.17757397505757
-0.46689017715349035,-4.727657853074147,7.362944041674593,4.281200556573789,13.95090969353571,-31.323150274113853
-0.5141667556842319,-4.58814875613879,7.405756047240331,3.9679690538326504,11.717411159804987,-29.065189448802
-0.5600482432456197,-4.47097464454074,7.4454357377786575,3.6773171593446303,9.83205110271703,-27.270210169330273
-0.6047579896910271,-4.37265413351357,7.482208909372104,3.4046150576513274,8.22869274823844,-25.834152181250833
-0.6484845310261628,-4.290367206031186,7.516255059948617,3.146273535838819,6.858930812874027,-24.67465698978028
-0.6913882030864746,-4.221777897902445,7.547717795307005,2.8995269659410163,5.687817861257231,-23.725080404121467
-0.7336059820654991,-4.164899719289873,7.576713064966415,2.6622761618998014,4.6906093217063,-22.93010309847503
-0.7752549792583978,-4.11799362607281,7.603335826585413,2.432975130915051,3.850279053229151,-22.24263924307286
-0.816434915519126,-4.079490835540518,7.627665577894564,2.2105487384843228,3.15557164258527,-21.621765911336322
-0.8572298238745312,-4.0479351191146655,7.649771065279407,1.9943310793709594,2.5994081501880935,-21.03145562663048
-0.8977091750656778,-4.021941037612785,7.669714376073117,1.7840165231046545,2.1775158969297967,-20.43994445814967
-0.9379285854418057,-4.000165878643487,7.687554541304163,1.5796170785231578,1.8872020987220082,-19.819597418619068
-0.9779302442282406,-3.981293857656267,7.703350712089394,1.381421104336967,1.7262346043297576,-19.14714268375447
-1.0177431828048034,-3.964031511612969,7.7171649231327635,1.1899496774994223,1.6918302054186882,-18.40414222671003
-1.0573834979209331,-3.947113209558782,7.729064419907758,1.005908255232322,1.7797802832492562,-17.577557058311243
-1.096854630016521,-3.9293154067262894,7.739123502460081,0.8301326846492095,1.9837620997398235,-16.660259591266946
-1.136147784083784,-3.909477785728891,7.747424829306573,0.6635300887365401,2.294888913453124,-15.651352229406248
-1.175242561941073,-3.88652889659436,7.754060130193938,0.5070165664424776,2.7015418194172787,-14.556175834118962
-1.2141078509070165,-3.859513478400187,7.7591302958583634,0.361454808101288,3.18950207924107,-13.385935136249323
-1.2527029856910183,-3.8276184576077763,7.762744843939377,0.22759545673879475,3.7423693590596905,-12.156925575226891
-1.290979170267096,-3.7901947640171794,7.7650207985067645,0.10602620098652583,4.342216006455457,-10.889407663809841
-1.328881117907268,-3.746772603952625,7.76608106051663,-0.0028678756515725795,4.9703983646551375,-9.606228732703556
-1.3663488439467941,-3.6970686203060734,7.766052381760114,-0.09893016297860814,5.608429708440538,-8.331327112724152
-1.4033195301498549,-3.640984323221668,7.765063080130329,-0.18224343410584964,6.238818826924862,-7.088264380196689
-1.4397293733820715,-3.5785961349524196,7.76324064578927,-0.25312607790781655,6.8457925773799015,-5.898917321956001
-1.4755153347315957,-3.5101382091786206,7.760709385010192,-0.3121152511273766,7.415845474524437,-4.782428457518341
-1.510616716823382,-3.4359797544333763,7.757588232498918,-0.35993953570256,7.938088430753541,-3.7544712716921715
-1.5449765143677157,-3.356598870125841,7.753988837141892,-0.3974842484194817,8.404396213205676,-2.8268431362998294
-1.5785425030689741,-3.2725549079937846,7.750013994657698,-0.42575267978248,8.809374782614164,-2.007362606954064
-1.611268052148912,-3.184461160167643,7.745756467859873,-0.44582630585202065,9.150183431356462,-1.3000225160455041
-1.6431126637505884,-3.0929593258540784,7.741298204801352,-0.4588265310124757,9.426252606248303,-0.7053369640278168
-1.6740422570091291,-2.9986967997915954,7.736709939491227,-0.46587990065275386,9.63893793129767,-0.22081745416385373
-1.704029225007045,-2.9023074204786186,7.7320511404847,-0.4680880751943924,9.791146283039247,0.15848173820816347
-1.7330522992118311,-2.804395957648226,7.727370259732756,-0.4665032578123107,9.88696283215654,0.43939935650854955
-1.7610962587883134,-2.7055263293266605,7.722705227154632,-0.4621092642472252,9.931300365274932,0.6301229716864754
-1.78815152208158,-2.6062133256739113,7.71808413451216,-0.45580803453036045,9.929585028758497,0.7396920609443093
-1.814213655338319,-2.5069174753863264,7.713526054166856,-0.44841111392091737,9.887486493299619,0.7775651613728162
-1.8392828300921822,-2.40804261045333,7.709041943027646,-0.4406354623071892,9.810695655777476,0.7532592363546434
-1.8633632561967155,-2.3099356538955553,7.7046355884045745,-0.4331028699436428,9.70474936700875,0.6760626917808145
-1.886462612735671,-2.212888160225468,7.700304559705138,-0.4263422430258346,9.57489916586272,0.5548186586665691
-1.9085914943379256,-2.117139168566841,7.69604113727488,-0.42079405643916895,9.426019424458593,0.39777198684125126
-1.929762886023594,-2.022878974322255,7.691833196710488,-0.41681633657075645,9.262549471019138,0.21247157925236876
-1.9499916757668165,-1.9302534796120634,7.68766503334478,-0.41469162077823274,9.088463976795605,0.005718938799621547
-1.9692942105629372,-1.8393688398441073,7.683518117136998,-0.41463443139023654,8.907266015766158,-0.21644617833820873
-1.9876878989613782,-1.7502961796864458,7.679371772823096,-0.4167988931736186,8.721997600920426,-0.44873154950034544
-2.0051908607582427,-1.6630762036772415,7.67520378389136,-0.4212862086686221,8.535263063946067,-0.6865573636620284
-2.021821622795015,-1.5777235730377808,7.670990921804673,-0.42815178230524237,8.349261293547205,-0.9260067706965718
-2.037598858525393,-1.4942309601023087,7.666709403981621,-0.43741185001220806,8.165823518937701,-1.1637675554832272
-2.052541168126416,-1.4125727249129316,7.662335285481499,-0.4490495255670403,7.98645397419177,-1.3970692962510796
-2.0666668953755454,-1.3327081851710139,7.657844790225828,-0.4630202185295511,7.812371375894556,-1.6236193611002299
-2.0799939772272555,-1.2545844714120684,7.653214588040532,-0.4792564121405534,7.644549672960434,-1.8415402131438494
-2.092539821941376,-1.178138974682464,7.648422023919126,-0.4976718142719919,7.483756975286292,-2.049309747772977
-2.104321211688201,-1.103301404929601,7.643445305776407,-0.5181649117497217,7.330591936003846,-2.245705776350557
-2.1153542257374967,-1.0299954855695626,7.63826365665891,-0.5406219695132273,7.185517154417189,-2.429755291372166
-2.1256541805931923,-0.9581403140253907,7.632857436963778,-0.564919522426949,7.0488893903132945,-2.600688785581775
-2.1352355837334462,-0.8876514201222577,7.627208241739508,-0.5909264102827667,6.920986543883397,-2.757899635904133
-2.1441120979346686,-0.8184415546834237,7.62129897763668,-0.6185054066418081,6.802031468139352,-2.900908385998742
-2.152296513481503,-0.7504212400020303,7.615113923570262,-0.6475144905017955,6.692212751279538,-3.0293316532112646
-2.159800725881523,-0.6834991124892349,7.608638778665244,-0.6778078070339082,6.5917026429609376,-3.142855332783732
-2.1666357170064154,-0.6175820860596255,7.601860700594905,-0.7092363603617455,6.500672307785412,-3.24121176250887
-2.1728115378670116,-0.5525753629817713,7.5947683369912875,-0.7416484779868342,6.419304577249482,-3.3241605348312095
-2.1783372914968293,-0.4883823172092765,7.587351852211419,-0.7748900833351463,6.347804342545242,-3.391472692987581
-2.183221114668922,-0.42490427378382406,7.579602951378067,-0.8088048102650222,6.286406688543907,-3.4429181171889347
-2.1874701574067603,-0.362040206898385,7.571514903275417,-0.8432339914369115,6.235382816858789,-3.4782559915450957
-2.1910905594757444,-0.2996863787297971,7.563082563361047,-0.8780165513523625,6.195043745343512,-3.4972283389102783
-2.1940874232630425,-0.23773594127636197,7.554302397847524,-0.9129888347414652,6.165741704766057,-3.4995567161128194
-2.196464782675806,-0.1760785242287014,7.545172509500109,-0.9479844019025934,6.147869082836114,-3.4849422731949855
-2.1982255679180933,-0.11459983340034027,7.535692665481083,-0.9828338246345432,6.141854693863482,-3.453069493847495
-2.1993715662520965,-0.05318128646170545,7.525864327234737,-1.017364519573018,6.148157082616293,-3.4036140455083923
-2.1999033791167135,0.008300284364457476,7.515690682039007,-1.051400660028102,6.167254508345833,-3.336255270040895
-2.199820376273069,0.0699728294479158,7.505176675438726,-1.084763212728511,6.1996312062530565,-3.2506939302929996
-2.19912064797859,0.13196914151044636,7.494329043311441,-1.117270152031441,6.245759498047017,-3.1466758815741964
-2.1978009565634857,0.19442673649091652,7.483156341791127,-1.148736910847183,6.3060773325720465,-3.024022343551187
-2.1958566891985765,0.257487509816637,7.4716689726826555,-1.178977134282695,6.380960896508527,-2.8826673863088623
-2.19328181410041,0.32129711878172224,7.459879201339828,-1.2078038081457836,6.470692061234142,-2.722703089239638
-2.1900688429125927,0.38600403939406364,7.4478011632583705,-1.23503083903818,6.575420644111617,-2.544432554831785
-2.186208802518652,0.4517582458351798,7.435450854867988,-1.2604751645864978,6.695121779645245,-2.348430532427583
-2.1816912200603005,0.5187094636316323,7.422846103222123,-1.2839594699107737,6.829549133840046,-2.13561080407952
-2.176504125423984,0.5870049549700327,7.410006508523016,-1.3053155779515688,6.978185261794295,-1.9072986897209208
-2.170634075874284,0.6567868075879757,7.3969533527435,-1.324388564848778,7.140191098669368,-1.6653060437777285
-2.1640662077984043,0.7281887185746694,7.383709467095012,-1.3410416252865553,7.314357361952675,-1.4120049697537531
-2.156784320612658,0.8013322921941961,7.370299050842147,-1.355161674984093,7.4990614752466245,-1.1503952414144258
-2.1487709976907157,0.8763229069466624,7.356747434092306,-1.3666656273982372,7.692234414754967,-0.8841592046983661
-2.140007768621249,0.953245251094212,7.343080777818323,-1.375507219445221,7.891342508918598,-0.617696910737026
-2.130475316110307,1.032158676183398,7.329325705623871,-1.3816841885525912,8.093389539832206,-0.35613361135327076
-2.120153729348473,1.1130925715817201,7.315508863738345,-1.385245524666124,8.294944338162644,-0.10529177666810714
-2.1090228036326555,1.1960420149633466,7.3016564084916835,-1.386298442432805,8.492198278281617,0.12837929295294537
-2.097062383483022,1.2809639977461629,7.287793424067355,-1.3850146495032756,8.681055560584499,0.3379212090649356
-2.0842527435055604,1.3677745533520078,7.2739432775723225,-1.3816354374126263,8.857256893746346,0.5160334249771675
-2.0705749979720403,1.4563471222894713,7.260126923198197,-1.3764751031628546,9.016534264834098,0.6552870375732551
-2.0560115267491454,1.5465124649378121,7.2463621721665685,-1.369922232787122,9.154791158203139,0.7483782708479112
-2.0405464020997672,1.6380603765198436,7.232662949838697,-1.362438450078643,9.268299241006572,0.7884093684736043
-2.0241657983345687,1.7307433689299092,7.21903856533791,-1.354554356393907,9.353899654790233,0.7691800092231905
-2.00685836464527,1.8242823654778115,7.205493021773971,-1.3468625563016752,9.409195137136715,0.6854689495889078
-1.9886155409904918,1.9183743168491787,7.192024396210954,-1.340007866805786,9.432718660493384,0.5332840478813912
-1.969431797822,2.0127015034541125,7.178624317542896,-1.334675026326972,9.424065352497419,0.31005956442079813
-1.9493047827874588,2.1069421569790867,7.1652775672796265,-1.331574430682764,9.383977138911854,0.014782756529343554
-1.928235361217668,2.200781928368205,7.151961822972799,-1.3314266031174704,9.314373545463468,-0.35196299595636604
-1.9062275419339858,2.2939256638228396,7.138647556941624,-1.334946233077034,9.218326904469992,-0.788044626384129
-1.8832882852957573,2.3861089328675393,7.125298094610854,-1.3428266793408754,9.099985205779086,-1.2899142102313876
-1.8594271959670818,2.4771087849253304,7.111869827817445,-1.3557258214431893,8.964450375524457,-1.852824108670675
-1.8346561081178285,2.566753288680575,7.098312569603014,-1.374254062529896,8.817623340709865,-2.471108622554348
-1.8089885752310229,2.6549295220876736,7.084570028977715,-1.3989651487554395,8.666029519029575,-3.1385144168883996
-1.782439280010146,2.7415898172779696,7.0705803774901606,-1.4303502929243235,8.516639265898496,-3.848560135370469
-1.7550233818373664,2.8267562099369545,7.0562768745609175,-1.4688358942780282,8.376697428353088,-4.594905885726133
-1.7267558197379969,2.9105231842204855,7.0415885156181375,-1.5147849531352895,8.25357476804377,-5.371715402034612
-1.697650587895792,2.993058931900923,7.026440666086785,-1.5685021071556355,8.154651979500454,-6.173997284808068
-1.6677199985767828,3.074605451695928,7.010755645015228,-1.6302420800037163,8.087244723656283,-6.997916322050527
-1.6369739440598234,3.1554778989324905,6.994453224215191,-1.7002212432242216,8.058575872482278,-7.841071057098665
-1.6054191650704985,3.236063657657313,6.977451011782949,-1.7786319537952082,8.075799317681563,-8.70273911578523
-1.5730585284939254,3.316821650834129,6.959664692244997,-1.8656593449530605,8.146078473258214,-9.584097068914629
-1.539890311985584,3.398282435566711,6.941008098795467,-1.9615003156422068,8.276722182561608,-10.48842664612975
-1.505907487629917,3.4810496573923273,6.921393095639045,-2.0663845821035043,8.47538126859155,-11.421323927226206
-1.4710969910559937,3.565803470078243,6.90072924981801,-2.180597821375766,8.750310560172474,-12.390932838977275
-1.4354389563552112,3.6533065756799674,6.878923271604252,-2.3045071497655387,9.110703990200593,-13.408229114001086
-1.3989058905984115,3.744413615581973,6.855878200106597,-2.4385894409055497,9.56711438314523,-14.487386131411327
-1.3614617544425918,3.8400847594134255,6.831492305697541,-2.583463302219663,10.13197486347989,-15.646260054115304
-1.3230609068484576,3.9414045080482243,6.805657672675344,-2.7399259027608163,10.820245299953458,-16.9070385024049
-1.2836468617679753,4.0496069610477585,6.778258413647736,-2.9089962877848654,11.650214289801601,-18.29710413662907
-1.2431507921574976,4.166109103945774,6.749168450769887,-3.091967329151156,12.64449322968524,-19.85016988523322
-1.2014897011180399,4.292554036242627,6.718248777478376,-3.2904690280034883,13.831239785960936,-21.607740414055552
