th1 (rad),w1 (rad/s),th2 (rad),w2 (rad/s)
2.2003227914449663,-1.7519564536404613,5.443826727334858,0.28243771596695166
2.1828032269085615,-1.833955921688561,5.446651104494527,0.2769193572633135
2.1644636676916758,-1.9169643052683143,5.44942029806716,0.27138011247978383
2.1452940246389924,-2.0008037985577047,5.452134099191958,0.26621674411327995
2.1252859866534153,-2.0852737881730876,5.454796266633091,0.2618693356581229
2.1044332487716844,-2.170153113071519,5.457414959989672,0.2588182541556226
2.082731717640969,-2.255203206717792,5.460003142531228,0.25757975454507853
2.0601796855737913,-2.3401721392931467,5.462578940076678,0.25870020585386755
2.03677796418086,-2.4247995427285036,5.465165942135217,0.26274898214692977
2.012529968753575,-2.508822362707995,5.467793431956686,0.2703101321875169
1.987441745126495,-2.5919813412860075,5.470496533278561,0.28197301792125384
1.961521931713635,-2.6740280935308056,5.4733162634577734,0.2983221893314456
1.9347816507783269,-2.7547326040899764,5.476299485351088,0.3199268373590528
1.907234324737427,-2.833890937441804,5.479498753724679,0.3473302323419068
1.878895415363009,-2.911332931673627,5.482972056048098,0.381039607450714
1.8497820860462728,-2.9869296327549923,5.486782452122605,0.4215169796423299
1.8199127897187228,-3.0606002271253265,5.490997621919028,0.4691714100749602
1.7893067874474695,-3.1323182472429085,5.495689336019778,0.5243531883044803
1.7579836049750404,-3.2021168590470417,5.500932867902822,0.5873503783583477
1.72596243638457,-3.270093092480582,5.506806371686405,0.658388090956384
1.6932615054597642,-3.3364109453338564,5.513390252595969,0.737630748757426
1.6598973960064256,-3.4013033742008454,5.520766560083543,0.8251874978580493
1.6258843622644172,-3.465073280341334,5.529018435062124,0.9211207991996946
1.5912336294610039,-3.5280936977265256,5.5382296430541205,1.025458120747164
1.5559526924837386,-3.5908074901646745,5.548484224261592,1.138206559197653
1.5200446175820919,-3.6537269593898523,5.559866289853568,1.2593701623103686
1.4835073479881933,-3.7174338531961677,5.572459991476672,1.3889697119159916
1.4463330094562317,-3.7825803415398096,5.586349688595831,1.5270647728881297
1.4085072060408335,-3.84989160176703,5.601620336324713,1.6737779214141606
1.3700082900231632,-3.9201707282385776,5.618358115538854,1.8293212406275812
1.3308065827407773,-3.9943067668122394,5.636651327945129,1.994025415143487
1.2908635150726548,-4.073286784390608,5.656591582096564,2.1683720699909914
1.2501306472287488,-4.158213033771983,5.678275302796474,2.3530303863604196
1.208548516891029,-4.25032648030289,5.701805606660079,2.5488994895058186
1.1660452520880003,-4.351038231151617,5.727294601555137,2.7571586427256687
1.122534869776484,-4.461970748431527,5.754866187982394,2.979327879733203
1.0779151622921688,-4.5850110959870225,5.7846594667797255,3.2173423041293208
1.0320650513322986,-4.722378741918048,5.816832889821018,3.473643700309299
0.9848412639131182,-4.876710288330646,5.851569326824111,3.751292876895209
0.9360741610298118,-5.05116213496273,5.889082255593063,4.0541041955905595
0.8855625396801845,-5.249527649322769,5.929623297548969,4.386797432292136
0.8330672631869568,-5.476353631775309,5.97349127187189,4.755145485222454
0.7783037268692037,-5.737011946768431,6.021042726724115,5.166055794266774
0.7209336074015193,-6.037614108212291,6.072703284666783,5.627427809066083
0.6605574663193965,-6.384501404128849,6.128977562757444,6.147411234213498
0.596712452278108,-6.782705278814333,6.190451675099579,6.73221607878944
0.5288853994899646,-7.23210640443165,6.257773835887473,7.38069111077184
0.4565643354456481,-7.7190250046220426,6.331580746995192,8.072490244813876
0.3793740853994277,-8.200897300651139,6.41230564944333,8.746539206910724
0.2973651123929163,-8.58832207041083,6.499771041512437,9.27583305844141
0.211481891688808,-8.752441992495045,6.592529372096851,9.477875466197219
0.12395747176385753,-8.60305917692745,6.687308126758823,9.22452492752615
0.037926879994583024,-8.18988432886503,6.779553376034085,8.584269378527916
-0.04397196329406729,-7.665804628961951,6.865396069819364,7.770795882832319
-0.12063000958368679,-7.15576228708475,6.943104028647688,6.95924292009166
-0.1921876324545343,-6.7122743494445,7.012696457848604,6.223739918759158
-0.2593103759489793,-6.343718506005009,7.074933857036196,5.576723780783124
-0.3227475610090294,-6.04240932349349,7.130701094844028,5.008055853598898
-0.3831716542439643,-5.797352604963084,7.180781653380017,4.502831322308172
-0.4411451802935952,-5.598429539492266,7.225809966603099,4.047267729580488
-0.49712947568851784,-5.437325087159807,7.266282643898903,3.6300616794653275
-0.5515027265601159,-5.307437106170603,7.302583260693557,3.242323129036207
-0.6045770976218219,-5.203544023132427,7.335006491983919,2.8771693936571783
-0.6566125378531461,-5.121470885549063,7.363778185920491,2.5293130435470843
-0.7078272467086367,-5.057813565475754,7.389071316355962,2.1947268581527863
-0.7584053823633943,-5.0097254953132,7.41101858493749,1.8703910828520094
-0.8085026373165263,-4.974757205809257,7.42972249576601,1.5541076769464863
-0.8582502093746188,-4.950737642103802,7.445263572535476,1.244363630430101
-0.9077575857956568,-4.9356882917701,7.457707208839777,0.9402277285442426
-0.9571144687133578,-4.927763551268504,7.467109486125219,0.64126829448627
-1.0063921042260429,-4.9252126227958,7.4735221690700815,0.34748237222298645
-1.0556442304540008,-4.926359415513091,7.476996992792311,0.059229395228489745
-1.1049078246091317,-4.92959749218509,7.477589286744596,-0.22283527294049016
-1.1542037995309826,-4.933397200007761,7.475360934015192,-0.49782935331254996
-1.2035377715310602,-4.936321932603616,7.470382640482066,-0.7647156136601125
-1.2529009908570965,-4.937050183939026,7.462735484345465,-1.0223753815689158
-1.3022714926964867,-4.934399862488741,7.452511730529777,-1.269680823491195
-1.351615491321374,-4.927351386667454,7.439814922294865,-1.5055623755872816
-1.4008890051880485,-4.915066464495299,7.424759298538992,-1.729067543335301
-1.4500396698330014,-4.896900169857303,7.407468623105639,-1.9394077763796904
-1.4990086715315745,-4.872404879082901,7.3880745453418415,-2.1359911526287556
-1.5477327203224034,-4.841325680742456,7.366714633815554,-2.318439955463344
-1.5961459771298279,-4.803587855864904,7.34353023426092,-2.4865936405860425
-1.6441818556884769,-4.759277806020536,7.31866429785506,-2.6404989231238747
-1.6917746337486823,-4.708619297553438,7.292259308623821,-2.780389598758229
-1.7388608267242167,-4.651947071419567,7.264455412636239,-2.9066591672607998
-1.7853802974384123,-4.589679776606985,7.235388820963631,-3.0198293671096668
-1.8312770952044821,-4.522293895051348,7.205190527292534,-3.1205174376801263
-1.8765000341549956,-4.450299924571004,7.173985352915733,-3.209404416633478
-1.9210030334007056,-4.3742216540174965,7.141891308749399,-3.2872061728067576
-1.9647452499408806,-4.294578962722109,7.109019247021331,-3.354648267722452
-2.0076910395681016,-4.2118742420645585,7.075472764344107,-3.4124452000653087
-2.0498097819887473,-4.126582286597331,7.0413483123434535,-3.4612841541551287
-2.0910756048547205,-4.0391433352172434,7.006735470801902,-3.5018130566531496
-2.131467038206893,-3.9499588487126247,6.9717173402353705,-3.534632538454136
-2.1709666266940193,-3.8593895731502306,6.936371014850829,-3.560291283647568
-2.2095605224255217,-3.7677554427203193,6.900768102014354,-3.579284203331896
-2.247238076852725,-3.6753369062105365,6.864975259981034,-3.592052878035995
-2.2839914459148303,-3.5823773064418063,6.829054731200674,-3.5989877504355166
-2.3198152189792483,-3.489085993088513,6.793064853696319,-3.6004316056532555
-2.3547060789101333,-3.39564190047737,6.757060537639787,-3.596683939291569
-2.388662497914907,-3.3021973696962026,6.721093698246872,-3.588005876486605
-2.421684471611869,-3.208882036874138,6.685213639482005,-3.5746253644860864
-2.4537732919806103,-3.1158066462584912,6.649467385837144,-3.5567424143797646
-2.484931358443195,-3.023066677917551,6.613899961693346,-3.534534213922413
-2.5151620252223705,-2.9307457061729365,6.578554619554122,-3.5081599730541577
-2.5444694822841,-2.8389184270170422,6.543473019823581,-3.4777653974164084
-2.5728586665542705,-2.747653311615596,6.508695365849417,-3.4434867137731873
-2.6003351996704267,-2.657014859251729,6.474260498711685,-3.405454195685993
-2.626905348262944,-2.567065437302667,6.440205956754825,-3.363795158861272
-2.652576002635971,-2.47786670844631,6.406568005166212,-3.3186364139304048
-2.677354669720434,-2.3894806564975135,6.373381641026908,-3.2701061804787823
-2.701249476285409,-2.3019702321531743,6.34068057922212,-3.2183354801752575
-2.724269178606941,-2.21539964845212,6.308497224420368,-3.16345903897373
-2.746423175091462,-2.1298343628327876,6.27686263403063,-3.105615738559548
-2.7677215187197897,-2.045340788175127,6.2458064766450345,-3.044948665424427
-2.788174926601541,-1.9619857790320152,6.215356989990791,-2.981604812086051
-2.807794784391861,-1.8798359413230477,6.18554094186993,-2.915734488957436
-2.8265931438050917,-1.7989568140801155,6.156383596980356,-2.847490507207201
-2.844582711945893,-1.7194119704782178,6.127908691908284,-2.7770271927023944
-2.861776831650675,-1.641262082514268,6.10013841998126,-2.704499288942151
-2.8781894524758176,-1.5645639895392822,6.073093427091838,-2.6300608030060646
-2.8938350923712104,-1.48936980568719,6.0467928190617775,-2.553863843255839
-2.908728790428082,-1.415726095391165,6.021254180629219,-2.4760574911897018
-2.922886051381994,-1.3436731399599096,5.996493605717322,-2.3967867428258995
-2.936322782781593,-1.2732443119131829,5.972525738289063,-2.3161915476517563
-2.9490552259007248,-1.2044655677276699,5.949363822812545,-2.234405965860634
-2.9610998815780016,-1.1373550640545314,5.927019763153939,-2.151557457609753
-2.972473432218547,-1.0719228975170194,5.905504188577841,-2.0677663116099776
-2.9831926611937174,-1.008170964000188,5.884826525461741,-1.9831452146840864
-2.9932743708337193,-0.9460929299677359,5.8649950733149,-1.897798959118274
-3.0027353001333967,-0.8856743057945378,5.8460170837237175,-1.811824280737464
-3.0115920431913423,-0.8268926093552328,5.827898840916343,-1.7253098176600883
-3.0198609692848946,-0.769717607093549,5.810645742739742,-1.6383361775900427
-3.02755814535583,-0.714111619424622,5.794262380963842,-1.5509761002074143
-3.034699261550076,-0.6600298774905233,5.778752619961767,-1.463294700627707
-3.0412995603249815,-0.6074209188895382,5.76411967295549,-1.3753497799017305
-3.047373769513877,-0.556227010926315,5.750366175156473,-1.2871921890111186
-3.05293603962314,-0.5063845910840106,5.7374942532663615,-1.1988662336665814
-3.0579998855339805,-0.45782471571301264,5.7255055909296955,-1.1104101083343265
-3.062578132691111,-0.4104735092887768,5.714401489846352,-1.0218563492087818
-3.0666828677839986,-0.3642526079526619,5.704182926354265,-0.9332322972380966
-3.0703253938635253,-0.31907959236687844,5.694850603381884,-0.844560563727989
-3.073516189787194,-0.2748684061530108,5.686404997744604,-0.7558594924478982
-3.076264873848724,-0.23152975731953251,5.678846402820125,-0.6671436135021585
-3.0785801714219194,-0.18897150110340857,5.672174966685104,-0.5784240854801448
-3.0804698864329536,-0.1470990035482006,5.666390725830302,-0.4897091235446172
-3.0819408764684355,-0.10581548591608039,5.661493634594856,-0.4010044121460708
-3.082999031327596,-0.06502235068829548,5.6574835904733956,-0.31231350195809154
-3.083649254834479,-0.024619490455439562,5.654360455453815,-0.22363819141434776
-3.0838954497390336,0.01549441855532456,5.652124073539671,-0.1349788938948706
-3.0837405055534806,0.05542163621406952,5.650774284600722,-0.046334992162639255
-3.0831862891913397,0.09526508910693356,5.650310934679095,0.04229481790287809
-3.0822336383002704,0.13512810946153853,5.650733882858124,0.13091219188448883
-3.080882357205655,0.1751141796615104,5.652043004776969,0.21951880707926935
-3.0791312154090402,0.21532667955032192,5.654238192847762,0.30811603562713485
-3.076977948613537,0.25586863369425344,5.657319353204033,0.3967046176486538
-3.0744192622765945,0.29684245579271856,5.66128639938052,0.48528433153842
-3.0714508377186673,0.33834968749046024,5.6661392426959045,0.5738536586570736
-3.0680673408437626,0.38049072896101155,5.671877779282475,0.6624094398451059
-3.0642624335541524,0.4233645587969485,5.6785018736809265,0.7509465214462506
-3.060028787966183,0.46706844096404765,5.686011338895389,0.839457388879878
-3.0553581035565425,0.5116976168590378,5.6944059127841875,0.9279317862433354
-3.050241127387952,0.5573449808607063,5.703685230646621,1.0163563209597777
-3.044667677579345,0.6041007381886802,5.713848793856219,1.1047140531174582
-3.0386266701974582,0.6520520443901398,5.724895934387393,1.1929840698743657
-3.032106149753557,0.7012826263680898,5.736825775086137,1.2811410461271646
-3.025093323489876,0.7518723855499435,5.749637185547408,1.3691547935623256
-3.0175745996343766,0.8038969845736565,5.763328733483032,1.4569898012126712
-3.00953562978864,0.8574274197381438,5.777898631495159,1.5446047717214502
-3.0009613555912584,0.912529582417668,5.793344679212374,1.6319521586488848
-2.9918360597670817,0.9692638136621687,5.809664200798863,1.718977711315169
-2.98214342163046,1.0276844572750092,5.826853977912014,1.805620034822016
-2.97186657705771,1.0878394177449995,5.844910178260235,1.8918101739844868
-2.96098818288026,1.1497697304691883,5.86382828000008,1.9774712308772784
-2.9494904855755677,1.2135091526841917,5.883602992308853,2.062518026484995
-2.937355394048726,1.2790837843631366,5.904228172573703,2.1468568174636924
-2.9245645562050946,1.3465117289587116,5.925696740748339,2.2303850791818967
-2.9110994389155076,1.415802804197889,5.948000591540159,2.312991365918164
-2.8969414108735285,1.4869583130725432,5.971130505199341,2.394555258252406
-2.882071827742803,1.559970884633135,5.995076057781865,2.474947406207265
-2.8664721188964717,1.634824393094939,6.019825531843938,2.554029674493111
-2.850123874965522,1.7114939620345506,6.045365828588869,2.63165539322534
-2.833008935345177,1.7899460580347002,6.071682382521122,2.707669713684884
-2.8151094747648298,1.870138675002106,6.098759079657971,2.781910064091158
-2.796408088014809,1.9520216065475353,6.126578180298883,2.8542066950087577
-2.7768878719493335,2.03553679933557,6.155120247248971,2.92438329802946
-2.756532503955978,2.1206187752908967,6.184364080229265,2.9922576749356478
-2.7353263162030688,2.2071951051496757,6.214286656978622,3.0576424278999945
-2.713254365151572,2.2951869102843077,6.2448630812576225,3.120345634709812
-2.690302496048729,2.384509364273126,6.276066537604721,3.18017146687722
-2.6664574024059977,2.4750721606398494,6.307868252273493,3.23692070320404
-2.641706680799599,2.566779908886313,6.340237459305533,3.2903910873345357
-2.616038881710736,2.659532417734313,6.373141370178879,3.340377475478383
-2.589443557533393,2.753224822722854,6.406545144933663,3.386671720237645
-2.5619113093061645,2.847747515299803,6.440411862136039,3.4290622387135405
-2.5334338341531666,2.942985832592584,6.474702484523174,3.4673332181491627
-2.5040039758272408,3.0388194713897034,6.509375816704666,3.501263420583855
-2.473615781113344,3.1351215967184767,6.544388450910504,3.5306245596093717
-2.442264565146159,3.2317576249312077,6.579694696506598,3.555179237546418
-2.4099469888968468,3.3285836735530645,6.615246488882062,3.574678450399194
-2.3766611521613163,3.425444685431211,6.650993273386054,3.5888586909829625
-2.3424067053070043,3.5221722530940123,6.686881860295884,3.597438707842091
-2.3071849827760644,3.618582190835059,6.722856247374305,3.600116009160447
-2.270999160867714,3.714471927044104,6.75885740746591,3.596563236943478
-2.233854441597273,3.8096178178618656,6.794823039835345,3.586424577329758
-2.1957582634186545,3.9037725153999716,6.830687285608643,3.569312417721592
-2.156720538264655,3.996662559406107,6.866380409785859,3.544804509805613
-2.116753912670594,4.087986399865384,6.9018284548839155,3.5124419480266114
-2.07587404867194,4.177413098508122,6.936952874364182,3.47172832315099
-2.034099917686859,4.26458199753986,6.971670157595692,3.4221304561681385
-1.9914540977114603,4.349103680881434,7.005891462157373,3.3630811529321227
-1.947963060902646,4.430562581982897,7.0395222736866945,3.2939844363062396
-1.903657435082817,4.508521606180954,7.072462118049756,3.21422369926932
-1.8585722190210074,4.582529126006236,7.10460435504245,3.123173166263405
-1.8127469277609451,4.652128664585576,7.135836086705084,3.020212936288114
-1.7662256411150894,4.716871494344294,7.166038216067966,2.904747695415001
-1.7190569261716464,4.7763322355319495,7.195085693022116,2.77622891724322
-1.6712936038163269,4.830127335137271,7.222847982194548,2.6341800134903286
-1.622992330464954,4.877936042006522,7.249189782329451,2.478223462161996
-1.5742129700448888,4.919523179908448,7.273972016951071,2.308108454307246
-1.5250177382458043,4.954762682938627,7.297053101494144,2.1237371109765006
-1.4754701114164182,4.983660539420808,7.318290472603909,1.9251869008701723
-1.42563350602221,5.006375548382558,7.337542341612611,1.7127266245038937
-1.3755697505383844,5.023236191735432,7.35466960785765,1.486823314514771
-1.32533738862103,5.034752026197112,7.369537841002797,1.2481377089482646
-1.2749898683590588,5.0416183419508185,7.38201921809228,0.9975066177001013
-1.2245736849395505,5.0447134231712925,7.3919942842692805,0.7359114892289302
-1.1741265507078376,5.045088533781502,7.39935339916157,0.46443368565680493
-1.1236756653700226,5.04395164698602,7.403997736018138,0.18419821021945615
-1.0732361489001625,5.042646812734895,7.405839718120333,-0.10369131753040045
-1.0228096807728135,5.04263178115067,7.404802804945029,-0.3982229886985704
-0.9723833629613068,5.045456967962874,7.400820575058043,-0.6985486806800203
-0.9219287932816781,5.052749012976511,7.393835088251243,-1.0040548339386923
-0.871401303151913,5.066202068675923,7.383794539911856,-1.3144299484514854
-0.8207392824651538,5.087579653241014,7.370650240427341,-1.629728306384782
-0.7698634859327437,5.118729543052877,7.354352957363493,-1.9504311531021958
-0.7186761905022149,5.161613904554238,7.334848645832471,-2.2775083471894813
-0.6670600514566725,5.218356782652736,7.312073562360577,-2.6124851664882938
-0.6148764836301451,5.291311203302381,7.285948710695694,-2.9575203912173564
-0.5619633715971213,5.383148392228883,7.25637350678352,-3.315502762320154
-0.5081318876748324,5.496971538942892,7.223218479160319,-3.6901729084454793
-0.4531621722854035,5.636455061474491,7.186316750075864,-4.086275469666259
-0.3967976216706586,5.806004836584265,7.145453995379202,-4.509737931674474
-0.3387375733048159,6.01091912413356,7.100356616062458,-4.967850084889184
-0.2786283820634803,6.257489180657327,7.050678115213565,-5.469360569681128
-0.216053490256907,6.552878293126754,6.995984509516754,-6.024266493487762
-0.15052470732563947,6.904380082695694,6.935741844581877,-6.642739406108774
-0.08148090649868253,7.317121147405741,6.869314450520789,-7.331881442218403
-0.008309695024625113,7.7881994373009835,6.7959956360986045,-8.087502264796303
0.06957229934838473,8.2937502171131,6.715120613450641,-8.876006091905612
0.15250980151951574,8.766374870860904,6.626360552531585,-9.602801937891552
0.24017355022812478,9.07562559769589,6.530332533152669,-10.085062406082585
0.33092980620508367,9.065813928246925,6.429481909091844,-10.104969543834766
0.4215879454875529,8.692955710441918,6.328432213653496,-9.601847080551902
0.5085175025919721,8.099857414854569,6.232413742847977,-8.776963463724618
0.5895160767405179,7.4729105292372235,6.144644108210731,-7.8924656857094035
0.6642451820328901,6.910833945838049,6.065719451353637,-7.087759404885825
0.7333535214912705,6.436821224198079,5.994841857304778,-6.39660099894701
0.7977217337332513,6.043667889493064,5.930875847315308,-5.810120456683743
0.8581584126281819,5.717229714777192,5.872774642748471,-5.309567260955363
0.9153307097759539,5.444154011939354,5.819678970138917,-4.877134205981122
0.9697722498953474,5.213586275969693,5.770907628079106,-4.498387188250702
1.0219081126550442,5.017082254432089,5.725923756196599,-4.1621898685089285
