th1 (rad),w1 (rad/s),th2 (rad),w2 (rad/s),a1 (rad/s^2),a2 (rad/s^2)
4.851454978035548,-2.6507278609166414,3.888104387006733,2.7638306780422175,3.6118463782094157,10.362868817674304
4.824947699426382,-2.614609397134547,3.915742693787155,2.8674593662189607,3.368384036975793,10.175673560201556
4.798801605455036,-2.580925556764789,3.944417287449345,2.9692161018209764,3.155232014856374,10.000998356656398
4.772992349887389,-2.5493732366162254,3.9741094484675545,3.06922608538754,2.9795528783321696,9.82734316412117
4.747498617521226,-2.519577707832904,4.00480170932143,3.1674995170287517,2.8504934535767643,9.640719111228789
4.7223028404428975,-2.491072773297136,4.036476704491717,3.2639067081410396,2.7794213362967555,9.424340225103503
4.6973921127099265,-2.4632785599341687,4.069115771573127,3.358150110392075,2.77999673213725,9.158528031922227
4.672759327110585,-2.435478592612796,4.102697272677048,3.449735390711297,2.8679334151293503,8.821028663421115
4.648404541184457,-2.4067992584615023,4.1371946265841615,3.5379456773455082,3.0602531889606857,8.388009491720158
4.624336548599842,-2.3761967265718953,4.172574083357617,3.6218257722627096,3.3738140554228133,7.836035156169962
4.600574581334123,-2.342458586017667,4.208792341080244,3.7001861238244094,3.8229385407961014,7.145258865066605
4.577149995473946,-2.304229200609706,4.245794202318488,3.771638712475075,4.416145283005705,6.30382146009876
4.554107703467849,-2.260067747779649,4.283510589443239,3.834676927076063,5.152338876754999,5.312966552365612
4.531507025990053,-2.208544359012099,4.3218573587139995,3.887806592599719,6.017306251042059,4.191703036816988
4.509421582399932,-2.1483712965016784,4.360735424639997,3.929723622967889,6.981815974147917,2.9792358980995832
4.487937869434916,-2.078553136760199,4.400032660869676,3.9595159819488845,8.002677667978782,1.7333160150000608
4.467152338067313,-1.9985263600804113,4.439627820689164,3.976849142098885,9.027467400398214,0.5235751938833992
4.447167074466509,-1.9082516860764291,4.479396312110153,3.9820848940377194,10.002287033786013,-0.579230902692529
4.428084557605745,-1.808228815738569,4.5192171610505305,3.976292585010794,10.880494224497294,-1.5151839731530936
4.410002269448359,-1.699423873493596,4.558980086900639,3.961140745279263,11.629711538858757,-2.24464925828314
4.393008030713423,-1.5831267581050084,4.598591494353431,3.9386942526964317,12.235098146408465,-2.752467918250575
4.377176763132373,-1.4607757766409237,4.637978436880395,3.911169573513926,12.698461113430577,-3.0463913723175544
4.362569005365963,-1.333791165506618,4.677090132615534,3.8807056597907503,13.034317999435839,-3.1513726422882096
4.349231093710897,-1.2034479855122595,4.715897189213441,3.849191933367868,13.264722623849558,-3.1022653660073183
4.337196613855775,-1.0708007592737638,4.75438910854712,3.818169279707795,13.414446651710996,-2.937136453309218
4.326488606263037,-0.9366562927566539,4.7925708013441985,3.788797915174703,13.507407576390886,-2.692397002166117
4.317122043335471,-0.801582216992745,4.830458780495945,3.7618739451530416,13.564540271336222,-2.3999855320901706
4.3091062211655435,-0.6659368142793828,4.868077519947476,3.73787408983214,13.602879339228561,-2.08624647304557
4.30244685302275,-0.5299080208870972,4.9054562608457974,3.7170116251016845,13.635466439198932,-1.7719457171841584
4.297147772813879,-0.3935533564951079,4.942626377096814,3.6992921679298427,13.671720619462269,-1.4729090372329336
4.293212239248929,-0.25683615030048523,4.979619298776113,3.6845630775575136,13.718005450764469,-1.2009098942257859
4.290643877745924,-0.11965609579284053,5.016464929551688,3.6725539786152557,13.778228144723517,-0.9645782979011961
4.289447316787996,0.01812618565439464,5.05319046933784,3.662908195636244,13.85438477190247,-0.7702137831067235
4.28962857864454,0.15667003337341934,5.089819551294203,3.655206057805177,13.947017353529093,-0.6224575361439532
4.291195278978274,0.29614020690871024,5.126371611872254,3.6489814824437374,14.055578044957086,-0.5248190493065864
4.294156681047362,0.4366959873582811,5.162861426696692,3.6437332919506717,14.178710039697531,-0.48007187040187266
4.298523640920944,0.5784830877552564,5.199298759616198,3.638932573246653,14.314460275473877,-0.49053975680675155
4.304308471798497,0.7216276905099952,5.235688085348665,3.634027175678585,14.46043972274518,-0.5582948099546332
4.311524748703597,0.866232087737447,5.272028357105451,3.6284442275790387,14.613945552182368,-0.6852865794041193
4.320187069580972,1.0123715432592706,5.308312799381241,3.6215913617849975,14.77205723140604,-0.8734176769128289
4.330310785013564,1.160092115573331,5.344528712999091,3.6128571850158693,14.931716296792997,-1.1245781135464945
4.341911706169298,1.309409278541261,5.38065728484925,3.6016114038804043,15.089797478660559,-1.4406477809532714
4.355005798954711,1.4603072533278665,5.416673398888054,3.587204926070872,15.243177109079788,-1.8234743600004217
4.36960887148799,1.6127390244186643,5.452545448148763,3.5689701824708675,15.388803291944152,-2.274832435375743
4.385736261732176,1.766627057338106,5.488235149973472,3.54622185811711,15.523771107262252,-2.7963686466621476
4.403402532305557,1.9218647684107286,5.523697368554643,3.5182581716504884,15.645405091893767,-3.3895372217064828
4.422621179989664,2.0783188193296662,5.558879950271148,3.4843627994334234,15.751350331740484,-4.055530123909321
4.443404368182961,2.235832322647071,5.593723578265482,3.4438074981943303,15.839672675694663,-4.795206213082938
4.465762691409432,2.394229049404018,5.6281616532474255,3.395855436063501,15.908967816964863,-5.6090241850192175
4.489704981903472,2.5533187275736666,5.66212020760806,3.339765194213309,15.958478277834322,-6.496984533515107
4.5152381691792085,2.71290351035201,5.695517859550193,3.2747953488781576,15.988216690629047,-7.458586282844527
4.542367204282729,2.8727856772583005,5.728265813038975,3.200209486049712,15.999093215040272,-8.492804674857311
4.571095061055312,3.032776609408703,5.760267907899473,3.115281439301139,15.993044502752008,-9.59809626043401
4.601422827149398,3.192707054436223,5.791420722292484,3.019300476696799,15.973161348308576,-10.772437825389789
4.63334989769376,3.352438667919309,5.821613727059452,2.911576098442901,15.943812073407026,-12.01340514455961
4.666874284372954,3.511876788653379,5.850729488043881,2.791442046997305,15.910758774861097,-13.318296545857498
4.701993052259487,3.67098437640199,5.878643908513854,2.65825908153873,15.881263762605997,-14.684304471042518
4.738702896023507,3.82979701402805,5.905226499329241,2.511416036828305,15.864183661523004,-16.108735342920685
4.777000866163787,3.98843885064328,5.930340659697524,2.350328683399098,15.870048417362174,-17.58927361831027
4.81688525467022,4.147139334816902,5.953843946531515,2.1744359472159953,15.911121213872574,-19.124279127955393
4.858356648018389,4.306250546955628,5.975588306003675,1.9831931559364413,16.00143197420041,-20.713096290646664
4.901419153487945,4.466264866697632,5.99542023756304,1.7760621930299747,16.15676976491685,-22.356337077690792
4.946081802154921,4.6278325643468,6.01318085949334,1.5524988222530667,16.39460472543189,-24.056072322791668
4.9923601277983884,4.791778611601119,6.02870584771587,1.31193809902515,16.73388238150987,-25.81582039375169
5.0402779139144,4.959117435416218,6.041825228706122,1.053779895087633,17.19458251644771,-27.64014484792857
5.089869088268562,5.131063260580695,6.052363027656998,0.7773784466083472,17.796844356279028,-29.53354021466558
5.141179720874369,5.309031704143485,6.060136812123082,0.4820430444616914,18.559301563485256,-31.498058505182666
5.194270037915804,5.494624719778337,6.064957242567699,0.1670624594098647,19.495999417604196,-33.52874631203938
5.2492162851135875,5.689584713954379,6.066627867161798,-0.16822500371052912,20.610817054428374,-35.60533406592963
5.306112132253132,5.895692884498663,6.0649456171246925,-0.5242783443698255,21.88761528197604,-37.67764715677576
5.365069061098119,6.114569037318423,6.059702833680994,-0.9010548159375831,23.273361527142253,-39.640889074173025
5.426214751471303,6.347302652589846,6.0506922855216185,-1.2974637066793133,24.650540217519424,-41.29572316511173
5.489687777997201,6.593808054765041,6.037717648454826,-1.7104209383304307,25.795526749902233,-42.28882681626429
5.555625858544851,6.851763322264063,6.020613439071521,-2.133309206493074,26.32509715358118,-42.03777984913603
5.624143491767492,7.115014293799875,5.99928034700659,-2.5536870049844342,25.652242169033034,-39.67169552284272
5.69529363470549,7.371536715490205,5.973743476956746,-2.9504039602128613,23.01549939324081,-34.0807093158171
5.769009001860392,7.601691709422613,5.944239437354617,-3.2912110533710326,17.701318947815402,-24.2458910775226
5.845025918954619,7.7787048989007666,5.911327326820906,-3.5336699641462586,9.548193974653715,-9.975257788730241
5.922812967943626,7.8741868386473035,5.875990627179443,-3.633422542033561,-0.481217449528232,7.263888957943379
6.001554836330099,7.869374664152021,5.8396564017591075,-3.5607836524541274,-10.330191202639273,24.382726536896598
6.0802485829716195,7.766072752125628,5.804048565234567,-3.3169563870851615,-17.890064831384638,38.17708936741599
6.157909310492876,7.587172103811781,5.770879001363715,-2.9351854934110015,-22.20786261252941,47.09649074915774
6.233781031530993,7.365093477686487,5.741527146429605,-2.464220585919424,-23.66215653443162,51.54193343548919
6.307431966307858,7.128471912342171,5.71688494057041,-1.9488012515645323,-23.250966362302137,52.865569406705255
6.37871668543128,6.895962248719149,5.697396928054765,-1.4201455574974797,-21.91786654124443,52.39310890543267
6.447676307918471,6.676783583306705,5.68319547247979,-0.896214468443153,-20.30261031417804,51.04286756502871
6.514444143751538,6.473757480164924,5.674233327795358,-0.38578579279286596,-18.764297734823096,49.34074904364209
6.579181718553187,6.286114502816693,5.670375469867429,0.10762169764355495,-17.476688685113576,47.54780889018271
6.642042863581354,6.111347615965557,5.671451686843865,0.583099786545382,-16.50868895591747,45.77309779104577
6.703156339741009,5.946260726406383,5.6772826847093185,1.0408307644558397,-15.874921144866942,44.04696054758817
6.762618947005073,5.787511514957713,5.687690992353877,1.4813003699317213,-15.563573098354036,42.36305536134943
6.82049406215465,5.631875783974173,5.702503996053195,1.9049309235452156,-15.550587479102582,40.701031075827686
6.8768128199943925,5.476369909183147,5.721553305288647,2.3119412343034926,-15.806468541357564,39.03835890205992
6.931576519086224,5.318305223769571,5.744672717631682,2.702324823324092,-16.299363632993092,37.3563243030296
6.98475957132392,5.15531158743964,5.7716959658649225,3.075888066354388,-16.996398221100858,35.64289797520251
7.036312687198317,4.985347605228632,5.802454846528466,3.432317046106413,-17.86429249860775,33.893904531972446
7.086166163250603,4.806704680242554,5.8367780169895305,3.7712560914261375,-18.869773828688064,32.113216392173975
7.134233210053028,4.618006941955673,5.874490577903792,4.092388255347878,-19.980024370315174,30.312349656106832
7.180413279472585,4.418206698252521,5.915414460457271,4.395511751908946,-21.163254388807257,28.509669547191574
7.224595346455111,4.206574154364449,5.95936957797636,4.680608447380862,-22.389409488795906,26.7293373669166
7.266661087998755,3.98268005947649,6.006175662450168,4.947901821050028,-23.630974207162176,25.00010102255148
7.30648788859352,3.7463703174048684,6.055654680660669,5.197902831275543,-24.863810127045003,23.35402084858615
7.343951591767569,3.4977322161344184,6.107633708973424,5.431443039761404,-26.06795628581093,21.825217018257312
7.378928913928913,3.2370526532763093,6.161948139371038,5.649695209943977,-27.22831854900766,20.448715889162266
7.4112994404616765,2.964769467786233,6.218445091470477,5.8541823688356,-28.335178846629542,19.259454913447563
7.440947135139539,2.6814176793199374,6.276986915158833,6.046776917970075,-29.384459916837503,18.291475243340066
7.467761311932739,2.3875730801515624,6.3374546843385335,6.229691670403476,-30.377679696140692,17.577283161217416
7.491637042734254,2.0837962831901553,6.399751601042568,6.40546450201565,-31.321511708088476,17.147288076771
7.512475005566156,1.7705811661092705,6.463806246062725,6.57693738278336,-32.22681856553628,17.02911130783128
7.530180817227248,1.4483129804539077,6.529575619890559,6.747228495861672,-33.10692162402303,17.24637899302109
7.544663947031787,1.1172437642136774,6.597047904849176,6.919692285791883,-33.974674765392024,17.81631689651367
7.555836384673924,0.7774970165597572,6.666244827707095,7.09785545475702,-34.83757074632998,18.74497895970953
7.563611354839521,0.4291213090964574,6.7372233822546645,7.285305244354115,-35.689556288776835,20.018162828059317
7.567902567930486,0.07222574620868905,6.810076434698206,7.485486872634708,-36.497419875603406,21.584910891216254
7.568624825392573,-0.292748452547345,6.884931303424553,7.701335981546871,-37.17866239959711,23.329095069042612
7.565697340867099,-0.664535076543316,6.961944663240022,7.934626932237297,-37.56739195163924,25.02388912477723
7.559051990101666,-1.0402089960597083,7.0412909325623945,8.184865823485069,-37.367430355822925,26.267238462419755
7.5486499001410685,-1.4138832996179376,7.123139590797245,8.447538208109266,-36.103550304843026,26.412114053179188
7.534511067144889,-1.7749188026663678,7.207614972878337,8.711659348641058,-33.11287174987001,24.54780337155072
7.516761879118225,-2.1060475201650677,7.294731566364748,8.957137382356565,-27.671458969700673,19.66191827467237
7.495701403916574,-2.3827621098620746,7.384302940188313,9.15375656510329,-19.3735463984373,11.145830311183072
7.471873782817954,-2.5764975738464475,7.475840505839346,9.265214868215121,-8.711890627292048,-0.4221650376069563
7.446108807079489,-2.663616480119368,7.568492654521497,9.260993217839053,2.631480238664379,-12.881263161791509
7.419472642278295,-2.637301677732724,7.661102586699888,9.132180586221137,12.420573708682745,-23.342336757769555
7.393099625500968,-2.5130959406458966,7.7524243925621,8.898757218643443,19.131110592619372,-29.879647175081196
7.367968666094509,-2.3217848347197028,7.841411964748534,8.59996074689263,22.601774141579966,-32.37278757393409
7.344750817747312,-2.095767093303903,7.92741157221746,8.27623287115329,23.607839083862615,-31.90299255441415
7.323793146814273,-1.859688702465277,8.010173900928994,7.957202945609149,23.116967949294597,-29.75447027142312
7.3051962597896205,-1.628519022972331,8.089745930385085,7.659658242894918,21.878229236946247,-26.885966621192612
7.288911069559897,-1.4097367306028685,8.166342512814035,7.390798576682991,20.355018436404627,-23.86373830493192
7.274813702253868,-1.2061865462388222,8.240250498580865,7.152161193633672,18.79662009924624,-20.970658908064284
7.26275183679148,-1.0182203452463598,8.311772110517202,6.9424546045530295,17.321997719485665,-18.32336213967255
7.252569633339017,-0.8450003680515032,8.381196656562732,6.759220983156304,15.97906001661787,-15.952086522025011
7.244119629658502,-0.6852097678853245,8.448788866394295,6.599700117936054,14.779804747475822,-13.846505867019856
7.237267531979649,-0.5374117204105663,8.514785867573655,6.461235059265856,13.719444905121009,-11.979747599863133
7.231893414775543,-0.4002172713593562,8.579398218166315,6.341437583267224,12.78629173112248,-10.320188221549465
7.22789124206195,-0.27235435404813135,8.642812593998986,6.238235701051729,11.966642263167072,-8.83685088258622
7.225167698521468,-0.15268793141646064,8.705194951009503,6.149867192225867,11.247062328515947,-7.501598759389213
7.223640819207303,-0.04021730813130117,8.766693622931761,6.074851204631974,10.615345667656428,-6.289789340656567
7.22323864612599,0.06593614854526311,8.827442134978082,6.011953311225408,10.060817834951095,-5.180232307800257
7.223898007611443,0.16654432689477405,8.887561668090335,5.960150988147405,9.574328185387092,-4.154867304368768
7.225563450880391,0.262287608748645,8.94716317797181,5.918602315103717,9.148103195415633,-3.198361387330689
7.228186326967878,0.35376864070280134,9.006349201122847,5.88661870123041,8.77554618074569,-2.297717797781088
7.2317240133749054,0.44152410251025825,9.065215388135151,5.863641523252599,8.451022963496435,-1.4419347475137931
7.236139254400008,0.5260343321452225,9.123851803367677,5.849222175777461,8.169649658483928,-0.6217279028073985
7.24139959772146,0.6077308287300618,9.18234402512545,5.843004896749387,7.927086796289437,0.1706807428979122
7.247476906008761,0.6870016966929562,9.240774074092945,5.8447117041783665,7.719337919887176,0.9417089355349993
7.2543469229756905,0.7641950758918279,9.299221191134729,5.854128793533716,7.542547701325173,1.69649712133535
7.261988873734609,0.8396205529050796,9.357762479070066,5.87109376474707,7.392793053733157,2.438929314487038
7.27038507926366,0.9135484834424112,9.416473416717537,5.895483057891941,7.265859950571357,3.1715913287274167
7.279520564098084,0.9862070829481249,9.475428247296456,5.927198971179215,7.156998433583274,3.8956642253955263
7.2893826349275646,1.0577770672839577,9.534700237008249,5.966155613433171,7.060648603992683,4.6107496084405755
7.299960405600404,1.1283835533238846,9.59436179314258,6.012263109517576,6.970131489666003,5.314623026608116
7.311244241133643,1.1980848682205447,9.654484424237756,6.065409339783657,6.877301037331056,6.002912856450295
7.323225089815849,1.2668578785938553,9.715138517635593,6.12543846834816,6.7721578279043335,6.668705539863027
7.335893668601788,1.3345794568728986,9.776392902319074,6.192125523746791,6.6424324837593005,7.302085199894546
7.349239463170517,1.4010037817104917,9.838314157556542,6.265146375745736,6.473158452134231,7.889628123551757
7.363249500987622,1.465735366231834,9.900965621314,6.344042656981254,6.246271422920991,8.413892369148435
7.3779068546499404,1.528198080461044,9.964406047883813,6.428181580672739,5.940297465272387,8.852971815900888
7.393188835454551,1.5876010551137678,10.028687863690541,6.516711298831748,5.530224637542073,9.180223539112188
7.4090648460056885,1.6429033014891885,10.093854976678859,6.60851353422287,4.9876918885007315,9.364326437163077
7.42549387902058,1.6927802203741957,10.159940112021088,6.7021567985945,4.281669098418697,9.369881917981628
7.442421681224322,1.7355969113583827,10.226961680007033,6.795855617774317,3.3798312154430437,9.158810758627041
7.459777650337905,1.7693952235128132,10.294920236184776,6.887443725360587,2.250827016566321,8.692809714082605
7.477471602573034,1.7919034936784763,10.363794673438381,6.974371822501413,0.8675796552566366,7.937071252321043
7.495390637509819,1.8005792902310427,10.433538391663395,7.0537425350246235,-0.7884009568545048,6.865298313227107
7.513396430412129,1.7926952806624976,10.504075817013641,7.122395518156894,-2.721986267912745,5.465732867036399
7.531323383218754,1.7654754179833703,10.57529977219521,7.177052846827259,-4.919342769146193,3.747473485039271
7.548978137398588,1.7162819902919084,10.647070300663483,7.214527581677651,-7.343849444959666,1.7458716235710805
7.566140957301506,1.6428434958423117,10.71921557648026,7.2319862979133624,-9.934333716062024,-0.4745479947868411
7.58256939225993,1.5435001586816914,10.791535439459393,7.227240817965494,-12.606859902531452,-2.8211592026567183
7.598004393846747,1.417431559656377,10.863807847639048,7.199029225938927,-15.26073761156937,-5.179205575129881
7.61217870944331,1.2648241835406833,10.935798139898438,7.147237170187628,-17.788396999702176,-7.422417694790205
7.624826951278718,1.0869402135436614,11.007270511600314,7.073012993239726,-20.08759249104962,-9.426634156438196
7.635696353414154,0.8860642886331652,11.07800064153271,6.978746651675344,-22.073519037491813,-11.083713446047454
7.644556996300486,0.665329098258247,11.147788108049465,6.867909517214869,-23.688280483113864,-12.312776174379751
7.651210287283068,0.4284462934271084,11.216467203221614,6.744781755471072,-24.905856532554388,-13.0665504167778
7.655494750217339,0.1793877281015645,11.283915020776325,6.614116251303294,-25.731991174315024,-13.332003588342545
7.657288627498355,-0.07793218364158572,11.350056183289357,6.480796215419868,-26.199743868062452,-13.125939474007822
