th1 (rad),w1 (rad/s),th2 (rad),w2 (rad/s),a1 (rad/s^2),a2 (rad/s^2)
4.446306959113837,1.1665291429328566,2.960141104344896,2.7204767139043247,5.806050797851104,-0.9033458517736334
4.457972250543166,1.2245896509113676,2.987345871483939,2.7114432553865884,5.856967968141836,-0.5992405276251649
4.47021814705228,1.283159330592786,3.014460304037805,2.7054508501103367,5.894764253999795,-0.2835584825090505
4.483049740358208,1.342106973132784,3.0415148125389084,2.702615265285246,5.918963634551939,0.044132742503921775
4.496470810089535,1.4012966094783033,3.068540965191761,2.7030565927102854,5.929057718979011,0.3841715848994877
4.510483776184318,1.4605871866680933,3.0955715311188636,2.70689830855928,5.924504060322369,0.7367998250698296
4.525089648050999,1.519832227271317,3.1226405142044564,2.7142663068099786,5.90472402005631,1.1021603093590433
4.540287970323712,1.57887946747188,3.1497831772725564,2.725287909903569,5.869100265254197,1.4802951060640284
4.556076764998431,1.637570470124422,3.177036056371592,2.7400908609642096,5.816974003209408,1.8711441799850905
4.572452469699675,1.6957402101565162,3.2044369649812343,2.7588023027640607,5.74764208115525,2.274544686413067
4.58940987180124,1.7532166309680688,3.2320249880088747,2.7815477496281913,5.660354100857007,2.690231005120597
4.606942038110921,1.809820171976639,3.2598404655051567,2.808450059679397,5.554309718826008,3.1178356592173766
4.625040239830687,1.865363269164899,3.2879249661019507,2.839628416271571,5.4286563221234045,3.5568912926152705
4.643693872522336,1.919649832386133,3.3163212502646666,2.8751973291977233,5.282487286449444,4.006833913036945
4.662890370846197,1.9724747052506275,3.345073223556644,2.9152656683280926,5.114841036586528,4.467007644380796
4.682615117898703,2.023623115616493,3.374225880239925,2.959935744771901,4.9247011382757275,4.936671271850852
4.7028513490548685,2.07287012699925,3.403825237687644,3.0093024574904095,4.71099765412657,5.415006904178095
4.723580050324861,2.1199801035405157,3.4339182622625484,3.0634525265321906,4.472609992971304,5.901131117623259
4.744779851360266,2.164706203470229,3.4645527875278703,3.1224638377084233,4.208371470949081,6.394108983834084
4.766426913394969,2.20678991817972,3.4957774259049548,3.1864049275467643,3.9170757824297078,6.892971414974309
4.788494812576766,2.245960676004017,3.5276414751804226,3.2553346416965074,3.597485548860844,7.396736281062818
4.810954419336806,2.2819355314926253,3.5601948215973875,3.3293020045071358,3.24834307355229,7.9044337615199876
4.833773774651732,2.314418962228148,3.593487841642459,3.4083463421223357,2.8683833811260238,8.415136379840458
4.856917964274014,2.343102796039408,3.6275713050636824,3.4924977059207403,2.4563495643074056,8.927994130106898
4.880348992234408,2.3676662916824824,3.66249628212289,3.5817776472218092,2.011010402797461,9.44227502796642
4.904025655151233,2.387776395710457,3.698314058595108,3.6762003975014736,1.5311801676201577,9.95741129542395
4.927903419108337,2.4030881973866585,3.735076062570123,3.775774510455713,1.01574049323364,10.473051203306953
4.951934301082203,2.413245602318995,3.7728338076746804,3.8805050224887827,0.4636642098987488,10.989116326641202
4.976066757105393,2.4178822444179824,3.811638857899568,3.990396185755195,-0.12595888802629945,11.505863586409138
5.000245579549572,2.4166226555377195,3.85154281975712,4.105454821619286,-0.7538941592287729,12.023950911697348
5.02441180610495,2.409083713945432,3.892597367973313,4.2256943307362596,-1.420731547987483,12.544504591552657
5.048502643244404,2.394876398465557,3.9348543112806755,4.351139376651786,-2.126851081984983,13.069185292162611
5.072451407229059,2.373607887645707,3.9783657050471932,4.481831229573412,-2.8723820699380886,13.600248131585307
5.096187486105516,2.3448840669463262,4.023184017342928,4.617833710889266,-3.6571518685977717,14.140589882033504
5.119636326774979,2.3083125482603486,4.069362354451821,4.759239609709601,-4.480617359244317,14.693772923230714
5.142719452257583,2.2635063746679056,4.116954750548917,4.906177338941908,-5.341768117732643,15.264010406756029
5.165354516004262,2.210088693490579,4.166016523938336,5.058817443009469,-6.238984002471388,15.85608930734546
5.187455402939168,2.147698853465865,4.216604698368431,5.217378336082923,-7.169820538878514,16.475196276504455
5.208932391473827,2.07600064807708,4.26877848172926,5.382130298847968,-8.130681647965696,17.126593484878256
5.229692397954597,1.9946938315974232,4.32259978471774,5.55339623369675,-9.11631903183627,17.815065121884068
5.2496393362705716,1.9035306412790605,4.378133747054708,5.731546884915591,-10.11906844109727,18.544016163302842
5.268674642683362,1.8023399568680878,4.435449215903864,5.91698704654862,-11.127692443613357,19.31404902344558
5.286698042252043,1.6910630324319542,4.49461908636935,6.110127536783076,-12.12564549918802,20.12076712913596
5.303608672576362,1.569806577440074,4.555720361737181,6.311335208074436,-13.08851268867565,20.951458526106162
5.319306738350763,1.4389214505533174,4.618833713817925,6.520849793335497,-13.980313056166418,21.780213776322316
5.333695952856296,1.2991183199916532,4.68404221175128,6.73865193109872,-14.748346067761151,22.560985016699213
5.346687136056212,1.1516348593140417,4.751428731062267,6.964261781265712,-15.316400977596652,23.218234231011756
5.358203484649352,0.9984708495380752,4.821071348874924,7.19644412357583,-15.576664360077736,23.63544191375406
5.368188193144733,0.8427042059372978,4.893035790110683,7.432798542713371,-15.381940016557241,23.643381691158964
5.376615235204106,0.6888848057717254,4.967363775537817,7.669232359624961,-14.542352946523495,23.013431750141486
5.3835040832618235,0.5434612763064904,5.044056099134067,7.899366677126376,-12.834757092600436,21.466637731616874
5.388938696024889,0.4151137053804861,5.12304976590533,8.114033054442544,-10.03718838742683,18.714955254905707
5.393089833078694,0.31474182150621777,5.204190096449755,8.3011826069916,-5.999547309846355,14.549966752719852
5.396237251293756,0.25474634840775423,5.287201922519672,8.4466822745188,-0.745422392097497,8.973138999441163
5.398784714777833,0.24729212448677926,5.37166874526486,8.536413664513212,5.436527041787042,2.313378965049176
5.401257636022701,0.3016573949046497,5.457032881909992,8.559547454163704,11.987620056490162,-4.767824688061651
5.404274209971748,0.4215335954695513,5.542628356451629,8.511869207283087,18.213922275158055,-11.452330621718238
5.408489545926443,0.6036728182211318,5.627747048524459,8.397345901065906,23.512352874830754,-17.055545942680524
5.414526274108654,0.8387963469694394,5.7117205075351185,8.226790441639102,27.549615523696975,-21.247453662395685
5.422914237578349,1.1142925022064092,5.79398841195151,8.014315905015145,30.292448643891877,-24.07574955142525
5.434057162600412,1.417216988645328,5.874131571001661,7.773558409500893,31.91270119104477,-25.82982945312144
5.448229332486866,1.7363440005557758,5.951867155096671,7.515260114969679,32.66144257241688,-26.873150362786813
5.465592772492424,2.0629584262799447,6.027019756246367,7.246528611341811,32.78015125373105,-27.530982815400513
5.486222356755223,2.390759938817255,6.0994850423597855,6.971218783187806,32.46197724203731,-28.046050457716333
5.510129956143396,2.7153797112376283,6.1691972301916636,6.690758278610643,31.846702762645087,-28.57743493421395
5.537283753255772,3.0338467388640793,6.23610481297777,6.404983929268504,31.030537150273766,-29.217018117808593
5.567622220644413,3.344152110366817,6.300154652270455,6.112813748090417,30.079151430124323,-30.008554711249136
5.6010637417480815,3.64494362466806,6.361282789751359,5.812728200977926,29.03899362091911,-30.96355676228311
5.637513177994762,3.9353335608772513,6.4194100717611375,5.503092633355095,27.945593058587654,-32.072909410550416
5.676866513603534,4.214789491463128,6.474440998094688,5.182363539249591,26.829052062992425,-33.31488662542043
5.719014408518166,4.483080012093052,6.526264633487184,4.849214672995387,25.71732240145537,-34.660560949982795
5.763845208639096,4.7402532361076055,6.574756780217138,4.50260906349556,24.63783872792056,-36.077412562625675
5.811247741000172,4.9866316233868115,6.619782870852093,4.1418349378693025,23.617935195506973,-37.5316379406956
5.86111405723404,5.222810975341881,6.661201220230787,3.766518558462346,22.68431174003795,-38.989369948406996
5.9133421669874595,5.449654092742261,6.69886640581541,3.376624858978276,21.861663554012605,-40.41677069607847
5.967838707914882,5.668270728282387,6.732632654405193,2.9724571520174914,21.170428849623054,-41.77872722083756
6.024521415197706,5.879975016778618,6.762357225925368,2.554669879809116,20.623424919053488,-43.03563837628435
6.083321165365492,6.086209265969153,6.787903924723459,2.1243134960462724,20.2209141071082,-44.13750649617038
6.144183258025183,6.2884184070402345,6.809147059683921,1.6829384310845685,19.9433780806393,-45.01425248229098
6.207067442095585,6.487852187846627,6.825976443994767,1.2327959062616587,19.74106342733471,-45.560978166694355
6.271945963974051,6.685262822119975,6.838304403057384,0.7771861245947151,19.519464526891117,-45.61719538633693
6.338798592195251,6.880457467388886,6.846076264303331,0.3210141707313458,19.121010153200196,-44.94080102606267
6.40760316686914,7.071667568920888,6.849286406010645,-0.1283938395292809,18.306708104383745,-43.18277611789873
6.478319842558348,7.254734649964726,6.848002467615352,-0.5602216007082683,16.749444443837433,-39.8801187812508
6.550867189057995,7.4222290944031,6.842400251608269,-0.9590227885207763,14.06386430558344,-34.50340667052273
6.625089480002027,7.562867737458935,6.832810023723061,-1.3040568552260035,9.90906431219195,-26.610983418150848
6.700718157376616,7.661958380580854,6.8197694551708015,-1.570166689407512,4.183338919963467,-16.136000451310768
6.777337741182424,7.703791769780489,6.804067788276726,-1.7315266939206195,-2.7530833972359,-3.711025530998952
6.854375658880229,7.67626093580813,6.786752521337521,-1.768636949230609,-10.016402635839292,9.246145878276403
6.93113826823831,7.576096909449737,6.769066151845214,-1.676175490447845,-16.47793672559781,20.94733807495478
7.0068992373328065,7.411317542193759,6.752304396940736,-1.4667021096982973,-21.271149361490703,29.988601611529365
7.0810124127547445,7.198606048578852,6.737637375843753,-1.1668160935830036,-24.130605371368024,35.866105929734985
7.152998473240533,6.9572999948651715,6.725969214907923,-0.8081550342856538,-25.329439937804256,38.90341548930042
7.222571473189185,6.7040055954871285,6.717887664565066,-0.4191208793926496,-25.381431967181975,39.82154060196287
7.289611529144056,6.450191275815309,6.71369645577114,-0.020905473373020844,-24.783352999589916,39.35393908608052
7.35411344190221,6.202357745819409,6.713487401037409,0.3726339174877844,-23.90240530336729,38.068021433578394
7.416137019360404,5.963333692785736,6.717213740212287,0.7533141318235683,-22.96868411006249,36.34210613733902
7.475770356288261,5.733646851685111,6.724746881530523,1.1167351931969587,-22.108178103162146,34.406109306339744
7.533106824805112,5.51256507065349,6.735914233462492,1.460796286260356,-21.37922174213496,32.391078178667435
7.5882324755116475,5.29877285323214,6.750522196325096,1.7847070680470305,-20.800106372512158,30.368100035562094
7.641220204043969,5.090771789507018,6.768369267005566,2.0883880684026517,-20.367062628677495,28.374230168484214
7.692127921939039,4.887101163220243,6.7892531476895925,2.372130370087494,-20.065099815932086,26.428354258261585
7.740998933571242,4.686450165060922,6.812974451390468,2.63641391267011,-19.874259755745285,24.54037153767826
7.787863435221851,4.487707567503469,6.839338590517169,2.8818176280468926,-19.77313018065304,22.716260550151663
7.832740510896886,4.289976265696939,6.868156766797638,3.1089802335484094,-19.740782371209537,20.960707456180188
7.875640273553856,4.092568441984844,6.899246569133122,3.318587308110211,-19.757820193622166,19.278330967873316
7.916565957973704,3.8949902400486227,6.932432442214224,3.5113706177889443,-19.80692986440034,17.674122251076152
7.955515860374191,3.696920941404619,6.967546148392113,3.688111840299706,-19.873144856277182,16.153465145692316
7.992485069788237,3.4981894928418473,7.00442726679511,3.849646491756629,-19.94394145751885,14.721951531268637
8.027466964716655,3.298750078266659,7.042923731712676,3.9968660070693156,-20.009226293211313,13.38511728118974
8.060454465499323,3.098657815334546,7.0828923917833695,4.130717179881213,-20.061248382181688,12.148170442412813
8.091441043652669,2.898045331512729,7.124199563582182,4.252198884305341,-20.09445364914276,11.015750007687233
8.120421496967795,2.6971007950213015,7.166721552425235,4.362356384382213,-20.10529259379299,9.991732285728146
8.147392504918008,2.4960478690833714,7.210345116269058,4.462273707239495,-20.091988178470206,9.079087511760008
8.17235298360884,2.2951279872986694,7.254967853341452,4.553064582357095,-20.05426869835765,8.279779143551243
8.195304263481827,2.0945853003150927,7.300498499165023,4.635862373792607,-19.993068156872493,7.594690543566837
8.216250116484977,1.8946546187463678,7.346857122902949,4.711809279228276,-19.910193759254714,7.023557326469112
8.23519666267244,1.6955526811538206,7.393975215695232,4.782044852492967,-19.80795618277775,6.564877733502572
8.252152189483978,1.497473119326043,7.4417956642201615,4.847693629827993,-19.688753159440605,6.21576738266448
8.267126920677239,1.300585587731637,7.490272600518441,4.909851303654638,-19.554590765995325,5.971718332248956
8.280132776554556,1.1050396800716837,7.539371113554988,4.969568486977128,-19.406520242630684,5.826215850750632
8.291183173355273,0.9109744776453769,7.589066798424759,5.027830645484634,-19.243962559962263,5.770161013362733
8.300292918131728,0.7185348520457542,7.639345104879605,5.085532255618261,-19.063891258277977,5.791046811547309
8.307478266652184,0.5278959394629744,7.690200427435788,5.143442723733735,-18.8598519137564,5.871847242364176
8.312757226046815,0.33929742032541044,7.7416348546731255,5.202161196157376,-18.620823848928268,5.989616308942912
8.31615020025007,0.15308918183612777,7.793656466634699,5.262057359246805,-18.32999216005743,6.113878895736927
8.317681092068431,-0.03021073976444652,7.846277040227167,5.3231961482041745,-17.963617246694458,6.205058418481872
8.317378984670787,-0.2098469122313911,7.899509001709209,5.385246732388993,-17.490385882057907,6.213457733173358
8.315280515548473,-0.3847507710519702,7.953361469033099,5.447381309720727,-16.871903252949085,6.079694019851798
8.311433007837953,-0.553469803581461,8.007835282130307,5.508178249919245,-16.065276506889383,5.737902601319987
8.305898309802139,-0.7141225686503548,8.062917064629499,5.565557275932445,-15.028855404315859,5.123208259478146
8.298757084115636,-0.8644111226935134,8.118572637388823,5.616789358527226,-13.73177158362306,4.18441536521729
8.2901129728887,-1.001728838529744,8.174740530974095,5.658633512179399,-12.1665287586942,2.900995534685628
8.280095684503403,-1.123394126116686,8.23132686609589,5.6876434675262555,-10.361481981510982,1.3001536337216302
8.268861743242235,-1.2270089459317959,8.288203300771151,5.700645003863472,-8.387591943894702,-0.5336328734352486
8.256591653782918,-1.3108848653707428,8.345209750809786,5.6953086751291195,-6.353573737745792,-2.46463282805214
8.24348280512921,-1.3744206027482007,8.402162837561077,5.670662346848598,-4.387480181752229,-4.330179260088425
8.229738599101728,-1.418295404565723,8.458869461029563,5.627360554247714,-2.6098571231235304,-5.976387830988696
8.215555645056071,-1.4443939757969584,8.51514306657204,5.567596675937827,-1.1090333404410786,-7.29101873261927
8.201111705298102,-1.4554843092013692,8.57081903333142,5.494686488611634,0.07186627184934893,-8.220586940835346
8.186556862206087,-1.4547656464828758,8.625765898217535,5.41248061920328,0.9333747147371528,-8.768046663209253
8.172009205741258,-1.4454318993355042,8.679890704409567,5.324800152571187,1.507891171864228,-8.97694232139318
8.157554886747903,-1.430352987616862,8.733138705935279,5.2350307293572556,1.8447114093190988,-8.911566518754638
8.143251356871735,-1.411905873523671,8.785489013228851,5.145915064169709,1.9973311597208168,-8.640373394298594
8.129132298136499,-1.3919325619264626,8.836948163870549,5.059511330226723,2.015251644664057,-8.225508508064467
8.115212972517234,-1.3717800454798221,8.887543277172815,4.977256245146078,1.9400496684688038,-7.718019185449906
8.101495172062435,-1.352379548795134,8.937315839624276,4.9000760532915795,1.8044253385606421,-7.1569527610610475
8.087971376574483,-1.3343352954095276,8.986316600157192,4.828506525680969,1.6328960003109414,-6.570540628053367
8.074628023620388,-1.3180063354064182,9.034601665414002,4.762801119400435,1.4431706895242487,-5.978187519350887
8.061447960266324,-1.3035746285111758,9.082229676608005,4.703019244206926,1.2476405326587359,-5.392535516156561
8.048412213981212,-1.2910982231845884,9.129259869050074,4.649093889045361,1.0547156738264567,-4.821268307795136
8.035501231749366,-1.2805510664463238,9.175750807940528,4.60088120596741,0.8699158997800072,-4.268553042110974
8.022695721084903,-1.2718519074485237,9.221759620000201,4.5581956755463,0.6967116935383733,-3.736131133203124
8.009977202010417,-1.26488479051314,9.267341576755664,4.520834364214269,0.5371495618938025,-3.2241139220712376
7.997328354105285,-1.2595132948942018,9.312549920397807,4.488593224993557,0.392305178399402,-2.731548236444785
7.984733221156343,-1.2555902431102077,9.357435852647741,4.461277742629109,0.2626052023329506,-2.2568107769753056
7.972177318725241,-1.2529641910868783,9.402048630074033,4.438709634859356,0.14805154772027754,-1.7978792958247722
7.959647676814372,-1.2514836756096754,9.446435726422626,4.420730841901109,0.048374139403463745,-1.3525174957373123
7.947132840058275,-1.2509999342156408,9.490643034841638,4.407205666943735,-0.0368686924373934,-0.9184012706303805
7.934622840716119,-1.2513686211400148,9.534715091511075,4.398021654237431,-0.10822865262638263,-0.4932067499882966
7.922109154504719,-1.2524509076662786,9.57869530805345,4.393089586737548,-0.16633565722330432,-0.07467544810446947
7.9095846454280565,-1.2541142642385117,9.622626203920825,4.392342832256503,-0.21189010911016037,0.3393316684464532
7.897043502785672,-1.2562331653296133,9.66654963224339,4.395736148940967,-0.24567639531160487,0.7507815226761316
7.884481171132376,-1.2586899292827294,9.7105069937328,4.403243964167729,-0.26859701959658383,1.1614090707292544
7.871894271839548,-1.2613758994786952,9.754539433374477,4.414858054875021,-0.2817287967072275,1.572641835893361
7.859280512844761,-1.2641931874457675,9.798688013923227,4.430584473233954,-0.2864044019381043,1.9854999155570232
7.846638580970303,-1.2670572314651485,9.842993858655566,4.450439472389524,-0.2843243538977373,2.4004614971158094
7.833968008655652,-1.2699004750041258,9.887498253379462,4.474444087360682,-0.2777061706442613,2.8172825530095005
7.821269003905611,-1.2726775367105685,9.93224269425307,4.502616912890777,-0.26947878427041905,3.2347580736660024
7.8085422285385055,-1.2753723245532727,9.977268863381978,4.534964493627437,-0.2635308769275872,3.650411611920139
7.795788505292973,-1.2780076333225485,10.022618508318253,4.571468609746638,-0.26502075896524685,4.060101238958321
7.783008428959747,-1.280657840912201,10.06833319441572,4.612069622136222,-0.2807512800077036,4.457535247451229
7.770201850550626,-1.283465353712278,10.114453890637082,4.656644974610734,-0.31960371399132625,4.833703250572991
7.757367197013503,-1.2866613908521913,10.161020340383189,4.704982007116464,-0.3930061882702678,5.176252361764388
7.744500583104981,-1.290591452734894,10.208070160454353,4.756744530734108,-0.5153806433460283,5.468879966172144
7.731594668577632,-1.2957452591683543,10.255637605761693,4.811433330395829,-0.7044629905725719,5.690880610045246
7.718637215985948,-1.3027898890740799,10.303751939065652,4.868342136496281,-0.9813219386300882,5.81707816243951
7.705609317095208,-1.3126031084603809,10.352435360430615,4.926512918120676,-1.3698184713498516,5.818488934995148
7.692483286010604,-1.3263012931738793,10.401700489611821,4.984697807470628,-1.8951724774677754,5.664167860409208
