th1 (rad),w1 (rad/s),th2 (rad),w2 (rad/s)
4.9530686539367474,1.2348258436080752,2.0883302661567704,-1.4079294263611346
4.965416912372828,1.3344047529505187,2.074250971893159,-1.3931408454624794
4.978760959902333,1.4343298494119103,2.0603195634385343,-1.3777602767125923
4.993104258396452,1.534409055271136,2.046541960671408,-1.3621002547722858
5.008448348949164,1.6343969503941715,2.032920958123685,-1.3465624331969908
5.024792318453106,1.7339921168405559,2.0194553337917154,-1.3316422626231637
5.042132239621512,1.8328365993037212,2.006138911165484,-1.3179306407581477
5.060460605614549,1.9305181296342808,1.9929596047579023,-1.3061115510085928
5.079765786910891,2.0265757236224804,1.9798984892478164,-1.2969547588625459
5.100031544147116,2.120509135412258,1.9669289416591909,-1.2913028147850318
5.121236635501239,2.2117924369795876,1.9540159135113406,-1.2900519405526871
5.143354559871034,2.2998916763418724,1.9411153941058137,-1.2941268559416934
5.166353476634453,2.384286174290808,1.9281741255463967,-1.3044502121257924
5.190196338377361,2.464492580240971,1.9151296234251387,-1.32190798420176
5.21484126417977,2.5400903762328784,1.9019105435831212,-1.3473128553979732
5.240242167942099,2.6107471599741894,1.8884374150291414,-1.3813681956563366
5.266349639541841,2.6762418216146395,1.8746237330725781,-1.4246355876252537
5.2931120577579875,2.736483712878956,1.8603773771963257,-1.4775088897676218
5.320476894886777,2.791526124997801,1.8456022882986494,-1.5401974944304098
5.348392156136756,2.8415728416761934,1.8302003133543452,-1.6127207415047495
5.376807884553518,2.8869771723690496,1.8140731059392976,-1.6949144556616969
5.405677656277208,2.9282336192476124,1.7971239613826806,-1.786449418008297
5.434959992469684,2.9659630835617445,1.7792594672025976,-1.8868604320749478
5.4646196233053015,3.0008931638950354,1.760390862881848,-1.9955836767547006
5.494628554944252,3.03383554805802,1.7404350261143011,-2.1119994023228794
5.5249669104248325,3.0656626971466383,1.7193150320910724,-2.2354768058935663
5.555623537396299,3.097285957466435,1.6969602640321366,-2.3654181283363864
5.586596396970963,3.1296369532495825,1.6733060827487727,-2.5012995807664473
5.617892766503458,3.163653684903616,1.6482930869411083,-2.6427075176187884
5.6495293033524945,3.200272274590913,1.6218660117649204,-2.789369186349578
5.681532026098403,3.2404248504027944,1.5939723199014246,-2.9411782733614102
5.713936274602431,3.28504371076301,1.5645605371678106,-3.098216239429145
5.746786711710061,3.335071704223721,1.5335783747735192,-3.260771050022023
5.780137428752298,3.391478712579086,1.500970664273299,-3.4293553563879327
5.814052215878089,3.455284232575673,1.4666771107094196,-3.6047265071831545
5.848605058203845,3.527586295347394,1.430629845637588,-3.787911022704609
5.883880921157319,3.6095973165671764,1.392750735410542,-3.9802364016356764
5.919976894322991,3.702687897773501,1.3529483713941852,-4.183373392743628
5.957003773300726,3.808440039378645,1.3111146374667488,-4.399392141697931
5.995088173694512,3.9287115524424485,1.2671207160497695,-4.630835799542935
6.034375289218937,4.065713384143771,1.2208123580543402,-4.880814903347383
6.0750324230603745,4.222100445170451,1.1720042090208664,-5.153124239287482
6.117253427512079,4.401072846945104,1.1204729666279916,-5.452378933242456
6.16126415598153,4.606474822285875,1.065949177295567,-5.784153510815555
6.207328904204389,4.842855355938863,1.0081076421874113,-6.155076041899893
6.255757457763778,5.115400646580645,0.9465568817684125,-6.57275556613119
6.306911464229584,5.429527109797689,0.8808293261071005,-7.0452533933541766
6.361206735327561,5.789660763726976,0.8103767921735587,-7.5794439795422734
6.4191033429648305,6.1962047275903345,0.734582352378136,-8.176879884368246
6.481065390240734,6.6388566485276845,0.6528135535344535,-8.824596454704274
6.547453956726011,7.083997188110149,0.5645675889874108,-9.477653518469443
6.6182939286071125,7.457701543671855,0.46979105380271635,-10.03551311303151
6.692870944043831,7.643098043826286,0.3694359226724013,-10.338275759597511
6.769301924482094,7.534067248055127,0.2660531650764262,-10.241213730601828
6.844642596962645,7.136708410145526,0.1636410277704079,-9.755297442056778
6.9160096810641,6.58003453734144,0.06608805334984012,-9.060744023378367
6.981810026437515,5.999915342345146,-0.024519386883943547,-8.345341132850999
7.041809179860966,5.466268856194386,-0.10797279821245354,-7.704626774848007
7.09647186842291,4.997205506434221,-0.1850190659609336,-7.162657928047783
7.146443923487252,4.588706734237294,-0.2566456452414114,-6.713430647009711
7.192330990829625,4.230695995617815,-0.32377995171150853,-6.343026296321109
7.234637950785803,3.912968330024586,-0.3872102146747196,-6.037658959286685
7.273767634086049,3.626824565335686,-0.44758680426758646,-5.785818530086601
7.310035879739406,3.3652417937501147,-0.5054449895684525,-5.5784302313718666
7.343688297676907,3.1226358177907456,-0.5612292918821712,-5.408476134255817
7.374914655854814,2.8945637494597634,-0.6153140532247293,-5.270547822639623
7.403860293349412,2.6774662660015194,-0.6680195314511256,-5.160459687067099
7.430634956009428,2.4684678179770763,-0.7196241283217966,-5.074943059797016
7.455319634189198,2.265229392730528,-0.7703735589197668,-5.011410466619774
7.477971928116504,2.0658435651115825,-0.8204876635859645,-4.967773638673638
7.49863036376762,1.8687622828243022,-0.8701653999727008,-4.942300679042277
7.517317986595863,1.6727497450282887,-0.9195884067631236,-4.933501099166061
7.534045484046146,1.4768544796814125,-0.9689234177547842,-4.940030623335814
7.54881402884296,1.2803959617531715,-1.0183237239881424,-4.960610351033923
7.561617988460492,1.0829618172853803,-1.0679298274984816,-4.993957113574947
7.572447606633346,0.8844118993998086,-1.1178693986342312,-5.0387237860904115
7.581291725627344,0.6848854080572687,-1.1682566364951352,-5.093450003308038
7.588140579707917,0.4848068928441077,-1.2191911365282155,-5.156525181982348
7.592988648636358,0.2848866084515642,-1.270756388348039,-5.226166880940443
7.595837514720873,0.0861105193054123,-1.3230180571574435,-5.300418143167541
7.596698619913927,-0.11028445363282968,-1.376022238589119,-5.37716730997421
7.595595775377599,-0.30285331780303737,-1.4297939116888612,-5.454192626800127
7.592567242199569,-0.4900054553798393,-1.4843358379568625,-5.529231642524618
7.587667187645771,-0.670085233308632,-1.5396281543821086,-5.600072060206505
7.580966335312684,-0.8414659958976356,-1.5956288749841736,-5.664656806252219
7.572551675353708,-1.0026493655035806,-1.6522754430466957,-5.721192488363846
7.562525181698672,-1.1523594270647484,-1.7094873679303342,-5.768248151647271
7.551001587428025,-1.2896207731683906,-1.7671698494468069,-5.804831232828321
7.538105379696341,-1.4138109776977272,-1.82521816177509,-5.830430258882153
7.523967269919363,-1.5246816760157103,-1.8835224643639115,-5.845018768352836
7.508720453159206,-1.6223472530635823,-1.9419726520474399,-5.8490210357875965
7.49249698062857,-1.707244988421744,-2.000462862405316,-5.84324594762947
7.475424530744353,-1.7800742257262248,-2.0588953218816104,-5.828799453722035
7.457623788487091,-1.8417239967254877,-2.117183316418831,-5.806987649994728
7.439206548519835,-1.8931984244218483,-2.1752531929187784,-5.7792217633281275
7.4202745642756165,-1.9355475797907733,-2.2330454105520596,-5.7469337693504325
7.400919088477709,-1.9698089825610519,-2.290514748245564,-5.71150802411479
7.381220998652098,-1.996962330485672,-2.347629828486712,-5.67423100985539
7.3612513753472415,-2.0178978310596825,-2.404372138585266,-5.636258672409554
7.341072397036645,-2.0333969502857356,-2.4607347253093614,-5.598599108578254
7.3207384275337875,-2.0441235135473,-2.516720716395144,-5.562107515021304
7.300297192398315,-2.0506227798247765,-2.572341791545357,-5.527490147339474
7.279790964600067,-2.0533261908022475,-2.627616693018752,-5.495314320256336
7.259257702692044,-2.0525598028465804,-2.6825698362213153,-5.466021991034987
7.238732104663578,-2.0485548095571637,-2.7372300561316654,-5.439945047435753
7.2182465565680065,-2.041458966503485,-2.791629506606023,-5.417320967602351
7.197831966902972,-2.0313480877448318,-2.8458027162820465,-5.39830798095157
7.177518486025524,-2.0182370744112146,-2.899785796091562,-5.3829992198196654
7.157336115281412,-2.002090156032161,-2.953615788289759,-5.3714356153724285
7.137315213721091,-1.9828301824216772,-3.007330144443483,-5.363617472333612
7.117486911896874,-1.9603469089456051,-3.0609663191668193,-5.359514772900597
7.097883442807418,-1.9345042827882961,-3.1145614668958252,-5.359076327643347
7.078538399979535,-1.9051467731526677,-3.1681522301722587,-5.3622379246459975
7.059486932248008,-1.8721048030694476,-3.2217746094187185,-5.3689296391216415
7.040765884217314,-1.8351993415879677,-3.275463905809935,-5.379082462879707
7.022413890801435,-1.7942457077274447,-3.329254730438732,-5.3926344026626065
7.00447143372416,-1.7490566253705262,-3.383181074465358,-5.409536182963993
6.986980867470455,-1.699444553811934,-3.4372764362949977,-5.429756675604635
6.969986421932336,-1.6452233035864394,-3.491574003051044,-5.453288167222449
6.953534188896471,-1.5862089324830764,-3.5461068847232684,-5.480151568427955
6.937672099571641,-1.522219902800503,-3.600908400407548,-5.51040166575858
6.9224499005436355,-1.453076468029435,-3.656012417065134,-5.544132520544962
6.907919135863342,-1.3785992450942208,-3.7114537422705838,-5.5814831280340895
6.894133143412399,-1.2986069166710061,-3.7672685735509246,-5.622643466160659
6.881147074245689,-1.2129129964241372,-3.823495008212531,-5.667861086713012
6.869017944281448,-1.12132157775528,-3.880173619079661,-5.717448432695557
6.857804728503895,-1.0236219735042913,-3.9373481034066167,-5.771791104618483
6.847568508768853,-0.9195821401265529,-3.9950660144528016,-5.831357344927717
6.838372687367587,-0.808940766383448,-4.053379587902079,-5.896709062448356
6.830283279703753,-0.6913978967198464,-4.1123466785265625,-5.96851477402436
6.823369300736554,-0.5666039602338854,-4.172031826266807,-6.047564890712214
6.817703261134215,-0.43414710138650114,-4.232507475173929,-6.1347898049236855
6.81336179012035,-0.2935387850031628,-4.293855373223166,-6.231281211151611
6.810426402270318,-0.1441978256808537,-4.356168185334682,-6.338316955105172
6.808984424013509,0.0145666367127876,-4.4195513548857335,-6.457389337318241
6.809130090380637,0.18357195640856136,-4.484125248258916,-6.5902359762076586
6.810965809944722,0.3637759166459108,-4.550027608020993,-6.738870645230671
6.814603569111181,0.5562824132962799,-4.617416314473299,-6.905608158096185
6.820166393244144,0.7623284956747018,-4.686472396054262,-7.093070933261993
6.827789678200891,0.9832330798267469,-4.7574031053868815,-7.304152668521477
6.837622008999158,1.2202707115462625,-4.830444632072096,-7.541891892877132
6.849824716114621,1.4744036687412523,-4.905863551000867,-7.80916724171987
6.864568752802033,1.7457548837566652,-4.983955223418066,-8.108056113877584
6.8820263016396,2.032627229995873,-5.065035784556842,-8.43859012437704
6.902352573939559,2.329787694341733,-5.149421685800612,-8.79651385428543
6.9256504508829755,2.6257363185777955,-5.237386824343466,-9.169639019913848
6.951907814068753,2.899087534326956,-5.329083214542605,-9.53291772840498
6.980898689412022,3.115661779996602,-5.424412391826655,-9.844341564859103
7.012055307211988,3.2307837596864397,-5.522855807475246,-10.047730787699468
7.044363144808853,3.2028112565224562,-5.62333311535224,-10.090593018734591
7.076391257374077,3.0159765730499415,-5.724239045539586,-9.954414419667872
7.1065510231045765,2.6936721969330324,-5.823783189736265,-9.671767874930536
7.133487745073907,2.285160681321028,-5.92050086848557,-9.307641528852
7.156339351887118,1.839015964284423,-6.01357728377409,-8.92379724954527
7.174729511529962,1.3878539751065873,-6.102815256269543,-8.559250567098253
7.188608051281028,0.9482527142793216,-6.1884077619405256,-8.231218621576074
7.198090578423821,0.5264703947055631,-6.2707199481562865,-7.943355169067458
7.203355282370877,0.1235358741332902,-6.350153499846961,-7.692704128059723
7.20459064111221,-0.2616836044079516,-6.427080541127558,-7.473731984648926
7.20197380506813,-0.6309304482353841,-6.501817860974048,-7.280275170129554
7.195664500585776,-0.9858566188614839,-6.574620612675343,-7.106360309622142
7.185805934397162,-1.3277477778330709,-6.645684215771564,-6.946491317320825
7.1725284566188305,-1.6574457054085185,-6.7151491289447724,-6.795708586591297
7.155953999564745,-1.9753594799475986,-6.783106214810686,-6.649563855337235
7.136200404765269,-2.2815148647803474,-6.849601853364058,-6.504074211749593
7.113385256117465,-2.575619416671553,-6.9146425954815545,-6.355681083630152
7.087629061950749,-2.8571336226083854,-6.978199406317856,-6.201222857189081
7.059057725724665,-3.125343876918366,-7.040211634889746,-6.037922044690777
7.027804286955481,-3.3794352196180557,-7.100590855336654,-5.86338452241414
6.9940099347593,-3.618562344120207,-7.159224700560796,-5.675606952634267
6.957824311318098,-3.8419173596289387,-7.215980770087139,-5.472988051112752
6.919405137721808,-4.048792611098134,-7.270710650598266,-5.254339419923474
6.878917211610827,-4.2386367390823825,-7.323254044797501,-5.018892044252085
6.836530844220003,-4.411102202987529,-7.373442965240022,-4.766295161047854
6.792419822190127,-4.5660827233264465,-7.4211059168505,-4.496604988317821
6.7467589949568625,-4.7037395076292965,-7.466071966733678,-4.21026170194558
6.6997215998805695,-4.824515671089766,-7.508174583753134,-3.9080540046197534
6.651476443169672,-4.92913889438838,-7.5472551237993315,-3.591071588707915
6.602185054225789,-5.018613020973859,-7.58316583968641,-3.2606466915916297
6.5519989240160506,-5.094199929419735,-7.615772306602326,-2.9182867199338225
6.501056924721853,-5.15739357254398,-7.644955173801665,-2.565600524396446
6.449482988996413,-5.209888508748809,-7.670611179045629,-2.2042212918827264
6.397384103908926,-5.253545524856733,-7.692653391964456,-1.8357291560530244
6.344848648660358,-5.290357035600268,-7.711010683524987,-1.4615764998571026
6.291945078304355,-5.322414826374672,-7.725626448523558,-1.0830185614552652
6.238720930040609,-5.351882376780324,-7.7364566341381105,-0.7010514261491375
6.185202106272806,-5.380973459706997,-7.743467148399602,-0.3163589125277492
6.131392371675736,-5.411937936470872,-7.746630737524879,0.07073057674893168
6.077272992311028,-5.447054598118431,-7.74592343175739,0.4602762059225142
6.022802446329844,-5.488629370689578,-7.741320669698165,0.85274406755446
5.967916152622948,-5.538994852093681,-7.7327932290226205,1.249009788774526
5.9125262041020115,-5.600503287583856,-7.720303131134875,1.650335786359018
5.856521171226173,-5.675498452588411,-7.703799773271284,2.0583057047684075
5.799766186700289,-5.766240300775742,-7.6832167162236,2.4746824375109395
5.7421037836925315,-5.8747361288801105,-7.658469891848491,2.901127907239681
5.6833564224037305,-6.002398594243197,-7.629458612776094,3.338675894505915
5.623332436461299,-6.149400424036621,-7.5960718538310354,3.78677865605042
5.561838432220933,-6.313535675828694,-7.558204067270531,4.2416650021736855
5.498703075462646,-6.488379110201546,-7.515787417248794,4.693724513612082
5.433819284360631,-6.660727669221243,-7.468850172112673,5.123908144046596
5.367212007668418,-6.8080864216893975,-7.4176110906722075,5.500237118867554
5.2991311434515245,-6.898702984938926,-7.362608719483532,5.777966080242126
5.230144113602135,-6.898403706090894,-7.30482905868111,5.9093928383581105
5.1611600765412255,-6.7858593793147,-7.245735130297529,5.865555809452274
5.093301482748078,-6.567349572956179,-7.1870795722030065,5.657118379294093
5.0276279870185165,-6.275486864454065,-7.130508388410066,5.33243999743093
4.964873118373976,-5.951279355443456,-7.077183988435756,4.951985615853487
4.905360324819542,-5.627010713751432,-7.027664132277221,4.563858756794723
4.849090217682027,-5.32102731631075,-6.982025544709273,4.196226592113356
4.79587994451892,-5.04075357202466,-6.9400632787881396,3.8614860884507363
4.7454724087986735,-4.787313519193304,-6.901448417903632,3.5627932362641763
4.69759927360674,-4.5588834559918086,-6.86582048554099,3.2988460433103253
4.652010439046822,-4.352565996729521,-6.832832025107886,3.066590166268955
4.608484779079527,-4.165293312840699,-6.802166123445197,2.8625478994563482
4.56683184595112,-3.994208252719681,-6.773540644450633,2.6833993945090238
4.526889763423924,-3.836792639224946,-6.746706650505542,2.5261966767552355
4.488521837031675,-3.690882755824921,-6.72144468373799,2.3884100066941105
4.451613009473426,-3.554639677007448,-6.697560583671049,2.2679040929030174
4.416066612703351,-3.4265054629060736,-6.6748815427420185,2.1628896100908546
4.38180155807429,-3.305158595794148,-6.65325264664111,2.071870173845716
4.348749972116349,-3.189473824166911,-6.632533944902653,1.993592990245289
4.31685523387468,-3.0784878961255973,-6.6125980150001995,1.9270059350471842
4.286070354913424,-2.9713711078869065,-6.593327955649728,1.8712214267791452
4.256356643834555,-2.867404015806735,-6.574615741381936,1.8254865020705753
4.227682603676487,-2.7659585174688757,-6.55636087636123,1.7891581979154478
4.200023018501798,-2.6664825450630993,-6.538469294382076,1.7616833244169756
4.173358193051167,-2.5684877160988586,-6.520852461137906,1.742581800610176
4.147673315890179,-2.4715394011521625,-6.503426643131805,1.7314328471264129
4.122957921878657,-2.375248774878258,-6.486112314660541,1.7278634493765141
4.099205434129875,-2.279266507852833,-6.468833680166775,1.7315386110791255
4.0764127690513465,-2.1832778318682227,-6.451518294055984,1.7421530072983504
4.054579990732664,-2.0869987714075777,-6.434096763983001,1.759423719660453
4.033710003018588,-1.99017338113403,-6.416502526786396,1.7830837965741366
4.013808269207248,-1.8925718653094126,-6.398671688820655,1.812876430925198
3.9948825505541534,-1.7939894817261846,-6.380542924511403,1.8485495895829034
3.9769426557368917,-1.6942461512357188,-6.362057428615573,1.8898509655855982
3.9600001942245346,-1.5931867051572672,-6.343158918959717,1.9365231571819301
3.944068327172962,-1.4906817073240122,-6.323793687387898,1.9882990097774316
3.929161510099722,-1.3866287856218455,-6.3039106972901235,2.044897088728266
3.9152952222435036,-1.2809543998532364,-6.283461726402841,2.1060172839322973
3.9024856782449713,-1.1736159588826096,-6.262401553563518,2.171336581975514
3.890749518656145,-1.0646041807258577,-6.240688187743763,2.240505078375067
3.8801034768488867,-0.9539455652980416,-6.218283136960013,2.313142340764154
3.8705640211959063,-0.8417048221954271,-6.195151713552371,2.38883427246382
3.862146972973952,-0.727987067096025,-6.171263370827733,2.467130662656069
3.854867102302992,-0.6129395728541942,-6.146592064201172,2.547543641198249
3.84873770657445,-0.49675283873522047,-6.12111662778919,2.6295472789121583
3.8437701781870977,-0.3796607278667856,-6.094821155000068,2.7125785830477405
3.83997357090843,-0.26193942378877394,-6.067695369169591,2.7960401272440394
3.837354176670542,-0.14390497692257004,-6.039734967897151,2.8793045205952086
3.8359151269013165,-0.025909255140758577,-6.010941922691199,2.9617208574105587
3.835656034349909,0.09166581792541022,-5.981324714117093,3.042623196200442
3.8365726925291628,0.20841575760951186,-5.950898482155089,3.1213409949732664
3.838656850105258,0.32392264852979324,-5.919685072205356,3.1972112860852846
3.841896076590556,0.43776567993626286,-5.887712959344503,3.2695922184406534
3.8462737333899186,0.5495327192326878,-5.8550170371600965,3.337877443050808
3.8517690605822454,0.6588324323857883,-5.821638262729588,3.4015106881800756
3.8583573849061032,0.7653063637586904,-5.787623155847788,3.4599997815779386
3.8660104485436904,0.8686403352793294,-5.753023158032009,3.5129293462225615
3.8746968518964837,0.9685745270859152,-5.717893864569783,3.5599714333763868
3.8843825971673427,1.064911663657088,-5.682294150236019,3.6008934648317172
3.8950317138039137,1.1575228475961785,-5.646285215587702,3.6355630272947694
3.9066069422798755,1.2463507461478927,-5.609929585314754,3.6639492787365917
3.9190704497413544,1.3314100249791843,-5.5732900925273885,3.6861209650098905
