th1 (rad),w1 (rad/s),th2 (rad),w2 (rad/s),a1 (rad/s^2),a2 (rad/s^2)
2.2445244410986516,2.0943717505046124,4.640802358309119,-2.0479926744447083,-5.120471047227614,3.037130940189933
2.2654681586036975,2.0431670400323365,4.620322431564672,-2.017621365042809,-4.910174204736997,3.3353415807184246
2.285899829004021,1.9940652979849665,4.600146217914244,-1.9842679492356248,-4.7279568532165195,3.6111993471531716
2.305840481983871,1.9467857294528013,4.580303538421887,-1.948155955764093,-4.571773794794896,3.866856458346326
2.325308339278399,1.9010679915048523,4.560821978864246,-1.9094873911806298,-4.4394724446457285,4.10462607010414
2.3443190191934473,1.856673267058395,4.54172710495244,-1.8684411304795885,-4.328899001006754,4.3268228502719275
2.3628857518640314,1.8133842770483275,4.523042693647644,-1.8251729019768692,-4.237966555081423,4.5356586132375645
2.3810195946345147,1.7710046114975133,4.504790964627876,-1.7798163158444935,-4.164695177777796,4.733178383777941
2.39872964074949,1.7293576597197353,4.486992801469431,-1.7324845320067142,-4.107232083092495,4.921225193636639
2.4160232173466873,1.6882853388888104,4.469667956149364,-1.6832722800703477,-4.063858138116939,5.10142464118999
2.4329060707355756,1.647646757507641,4.452835233348661,-1.6322580336584478,-4.03298541698051,5.275182564538235
2.449382538310652,1.6073169033378358,4.436512653012076,-1.5795062080130655,-4.013149222273838,5.443691043313896
2.4654557073440304,1.5671854111150973,4.420717590931945,-1.5250692975799265,-4.002997007773326,5.607939384386953
2.4811275614551813,1.527155441037364,4.4054668979561455,-1.468989903736057,-4.001275890952038,5.768727824191684
2.4963991158655547,1.4871426821278437,4.390776998918785,-1.41130262549414,-4.006819896274222,5.926682465956505
2.5112705426868334,1.4470744831651015,4.376663972663843,-1.352035800834575,-4.018537676355967,6.082270529192978
2.5257412875184846,1.4068891064015419,4.363143614655498,-1.2912130955426453,-4.035401179633624,6.235815376992702
2.5398101785825,1.3665350946052057,4.350231483700072,-1.2288549417727184,-4.056435539341533,6.387511048617932
2.5534755295285523,1.3259707392117903,4.337942934282345,-1.1649798312865391,-4.080710325348185,6.537436195068493
2.56673523692067,1.2851636359583085,4.326293135969479,-1.0996054693358541,-4.107332209627839,6.685567419783196
2.5795868732802534,1.24409031386203,4.31529708127612,-1.0327497951380222,-4.135439034552311,6.831792084661514
2.5920277764188735,1.202735923516507,4.30496958332474,-0.9644318742914071,-4.164195231248281,6.975920667294448
2.6040551356540385,1.161093971204024,4.295325264581826,-0.8946726676184626,-4.192788506338819,7.117698758978798
2.6156660753660788,1.1191660861406358,4.286378537905641,-0.8234956800286747,-4.220427695000328,7.256818782293172
2.626857736227485,1.0769618091906326,4.278143581105354,-0.750927492205743,-4.246341663537506,7.392931487293154
2.6376273543193913,1.0344983925552576,4.270634306183297,-0.6769981773328114,-4.2697791338745485,7.525657260883846
2.647972338244944,0.991800601216512,4.263864324409969,-0.601741604723973,-4.2900092945426085,7.654597257779402
2.657890344257109,0.948900508271086,4.257846908362729,-0.5251956321461789,-4.306323057495044,7.779344336035792
2.66737934933982,0.9058372776961355,4.252594952041267,-0.447402188785821,-4.3180348172955245,7.899493757222191
2.6764377221167814,0.8626569295231803,4.2481209301534095,-0.3684072512135991,-4.324484568934627,8.014653592156957
2.6850642914120133,0.819412083833834,4.244436857641274,-0.2882607152920295,-4.32504024279217,8.1244547586082
2.693258412250352,0.7761616814059124,4.241554250488353,-0.2070161677059475,-4.3191001200628545,8.22856060787106
2.701020029064411,0.7329706802052838,4.239484088811294,-0.12473056162723689,-4.3060951991723915,8.326675972735075
2.708349735866464,0.6899097282135599,4.238236783195022,-0.041463801899886146,-4.2854913930662155,8.418555589769326
2.7152488331485993,0.6470548142828978,4.237822145176024,0.042721753997807116,-4.256791448366427,8.504011813538252
2.7217193812914284,0.6044868997992335,4.238249362716002,0.12776187213318962,-4.219536489790225,8.582921548584636
2.727764250289421,0.5622915349013313,4.239526981437334,0.213591087619036,-4.173307106392768,8.655232335944573
2.733387165638434,0.5205584638374037,4.241662892313524,0.30014341097848174,-4.117723909648859,8.72096754374574
2.738592750276808,0.4793812247409151,4.244664326423309,0.38735308641593913,-4.052447506706959,8.780230625309246
2.743386562524217,0.4388567496738455,4.248537857287468,0.4751553926690316,-3.9771778450426116,8.833208422485473
2.7477751300209556,0.3990849712234194,4.253289411214158,0.5634874768938863,-3.8916528970607547,8.880173506236165
2.75176597973319,0.36016844225281186,4.258924285983097,0.652289211956248,-3.795646664953273,8.921485560437397
2.755367664155718,0.32221197560327913,4.26544717810266,0.7415040675606219,-3.6889664974488037,8.957591828383315
2.758589783911751,0.2853223106287911,4.272862218778266,0.8310799858444551,-3.5714497212326535,8.989026654480224
2.761443007018039,0.24960781341646457,4.28117301863671,0.9209702523892573,-3.442959601049886,9.016410166127145
2.7639390851522037,0.2151782174059657,4.2903827211606025,1.0111343540505289,-3.30338065411404,9.04044615272482
2.7660908673262634,0.1821444108648253,4.300494064701108,1.101538815577777,-3.152613356656592,9.061919209962756
2.7679123114349116,0.15061827729825938,4.311509452856886,1.1921580076774045,-2.990568293415035,9.08169122764704
2.769418494207894,0.12071259436410903,4.3234310329336605,1.282974919953875,-2.817159814625001,9.100697307785424
2.7706256201515354,0.09254099621785902,4.336260782133199,1.3739818930317291,-2.632299279631544,9.119941205662354
2.771551030113714,0.06621800342154358,4.350000601063517,1.4651813050883526,-2.4358879815070336,9.14049038924682
2.772213210147929,0.04185912360647324,4.3646524141144,1.556586208980821,-2.2278098630229057,9.163470810366391
2.772631801383994,0.01958102497624418,4.380218276204208,1.6482209170844848,-2.0079241510363754,9.190061473447322
2.7728276116337565,-0.0004982165341195742,4.396700485375053,1.740121531818958,-1.7760580540740019,9.22148887302256
2.7728226294684153,-0.018258797074859594,4.414101700693243,1.8323364205491837,-1.5319996871451838,9.259021348413425
2.7726400414976666,-0.033578793946311435,4.432425064898735,1.924926634033318,-1.2754914094714374,9.30396337178809
2.7723042535582034,-0.04633370804102581,4.451674331239068,2.017966267751199,-1.0062237861535883,9.357649742998266
2.7718409164777933,-0.056395945902561695,4.47185399391658,2.1115427651811816,-0.7238304155599219,9.421439609975467
2.7712769570187676,-0.06363425005816091,4.492969421568391,2.2057571612809364,-0.42788390263367165,9.496710165712354
2.770640614518186,-0.06791308908449763,4.515026993181201,2.30072426293806,-0.11789330711933382,9.584849790455156
2.7699614836273407,-0.06909202215569096,4.538034235810581,2.3965727608426115,0.20669654187923567,9.687250308889325
2.769270563405784,-0.06702505673689861,4.561999963419008,2.4934452639315046,0.5465033938763794,9.805297914628989
2.768600312838415,-0.061560022798134814,4.586934416058323,2.5914982430777944,0.9022030152579756,9.94036217559732
2.7679847126104336,-0.05253799264555506,4.612849398489101,2.6909018648337675,1.2745210186165103,10.093782370854926
2.767459332683978,-0.039792782459389955,4.639758417137439,2.791839688542317,1.664220226725513,10.26685021873068
2.767061404859384,-0.023150580192134826,4.667676814022862,2.8945081907296237,2.0720825228589677,10.460787834343902
2.7668298990574622,-0.002429754963545149,4.696621895930158,2.9991160690730627,2.4988839091637938,10.676719498902782
2.766805601507827,0.02255908412809279,4.726613056620889,3.1058832640620904,2.945361224708176,10.915635532059143
2.7670311923491075,0.052012696375174555,4.75767188926151,3.215039619382682,3.4121686656317483,11.178346233465787
2.7675513193128594,0.08613438303149204,4.789822285455337,3.32682308171734,3.8998219074018574,11.465423506865598
2.7684126631431742,0.1251326021055106,4.82309051627251,3.441477316785996,4.408627267251396,11.777127413994284
2.769663989164229,0.16921887477802458,4.85750528944037,3.559248590925939,4.938592989151122,12.113314553303562
2.7713561779120095,0.2186048046695358,4.89309777534963,3.680381736458975,5.489319427606839,12.473324865666493
2.773542225958705,0.27349799894560417,4.92990159271422,3.80511498511564,6.0598647190083375,12.855843308220537
2.776277205948161,0.33409664613568757,4.967952742565377,3.933673418197845,6.6485825641109475,13.258732917733623
2.779618172409518,0.40058247177679707,5.0072894767473555,4.066260747375181,7.25292915302076,13.678836264854208
2.783623997127286,0.47311176330700466,5.047952084221107,4.2030491100237235,7.869237254218133,14.1117434008534
2.788355114760356,0.551804135849186,5.089982575321344,4.344166544032258,8.492457340729455,14.551526412579104
2.7938731561188477,0.6367287092564805,5.133424240761667,4.489681808158049,9.115868692456894,14.99044400005579
2.8002404432114125,0.7278873961810495,5.178321058843248,4.639586248158607,9.730768110273566,15.418624510554494
2.807519317173223,0.8251950772837852,5.224716921324834,4.793772493264152,10.326150646513206,15.823743062800569
2.8157712679460607,0.9284565837489173,5.272654646257475,4.952009923892158,10.888405980724384,16.190718167479222
2.82505583378355,1.0373406435561612,5.322174745496397,5.11391710556695,11.401065919511794,16.501465754623638
2.8354292402191117,1.1513513027512792,5.373313916552066,5.278931763113186,11.84465268819327,16.73476341812724
2.8469427532466245,1.269797829633212,5.426103234183198,5.446279397294458,12.196693119156816,16.866293779210963
2.8596407315429566,1.39176476082478,5.480566028156142,5.614942335086568,12.431978208464988,16.868950634453977
2.8735583791512043,1.51608454290943,5.536715451507008,5.7836318414311085,12.523156852673651,16.713500727709576
2.8887192245802984,1.6413161114361665,5.594551769921319,5.950766848708204,12.441751104896566,16.36969138094999
2.9051323856946603,1.765733622485132,5.6540594384084,6.114463762517704,12.15966073339933,15.80787214012132
2.9227897219195116,1.8873302298191255,5.715204076033578,6.272542483918917,11.651179788090046,15.00114929897869
2.9416630242177026,2.003842027700026,5.777929500872767,6.422553976908704,10.895472298676829,13.928010749515275
2.961701444494703,2.1127967506867944,5.842155040641853,6.5618340844038565,9.879349521259906,12.575247193070632
2.982829412001571,2.2115902458993935,5.907773381485892,6.687586556334563,8.600069358714428,10.94086798755145
3.004945314460565,2.297590939486538,5.974649247049238,6.796995236210077,7.067765098117791,9.036593577500533
3.0279212238554303,2.3682685904677157,6.042619199411339,6.8873611719850825,5.307042383771132,6.88944101775037
3.0516039097601073,2.4213390143054268,6.11149281113119,6.956255582162586,3.3573001662329784,4.541945829079876
3.0758172999031617,2.4549120159677567,6.181055366952815,7.001675040453385,1.2714604878839222,2.050708707070734
3.1003664200628394,2.467626620846596,6.251072117357349,7.0221821275240925,-0.8869690999101304,-0.5167868920329511
3.125042686271305,2.4587569298474947,6.32129393863259,7.017014258603763,-3.048270233082629,-3.086818852877117
3.14963025556978,2.428274227516668,6.391464081218627,6.986146070074992,-5.141797574896126,-5.584961488799375
3.1739129978449467,2.3768562517677068,6.461325541919377,6.930296455186998,-7.101441319930196,-7.94174485620251
3.1976815603626236,2.305841838568405,6.530628506471247,6.8508790066249725,-8.87049404247896,-10.097643882570383
3.2207399787483078,2.2171368981436155,6.599137296537497,6.749902567799269,-10.40527640852389,-12.006751395752998
3.242911347729744,2.1130841340583766,6.666636322215489,6.629835053841739,-11.677136678252882,-13.63876552668339
3.2640421890703277,1.9963127672758478,6.732934672753907,6.493447398574905,-12.672752615031632,-14.979243288419177
3.284005316743086,1.8695852411255316,6.797869146739656,6.343654965690713,-13.392947329735998,-16.028353907055557
3.3027011691543415,1.7356557678281717,6.861305696396563,6.183371426620157,-13.850421821109492,-16.798549812964296
3.3200577268326232,1.5971515496170767,6.923139410662765,6.015385928490514,-14.066883272348399,-17.31164110167793
3.336029242328794,1.4564827168935928,6.98329326994767,5.842269517473735,-14.070021579208717,-17.595726128203825
3.35059406949773,1.3157825011015056,7.041715965122408,5.666312256191697,-13.89069094380562,-17.682331940164858
3.363751894508745,1.1768755916634495,7.098379087684325,5.489488936790048,-13.560528137915842,-17.603992631092627
3.3755206504253796,1.041270310284291,7.153273977052225,5.313449010479122,-13.110117099039712,-17.39237308217057
3.3859333535282223,0.910169139293894,7.206408467157017,5.139525279657416,-12.567711398221546,-17.076949229562953
3.3950350449211615,0.7844920253116785,7.257803719953591,4.968755787361787,-11.958459881941112,-16.684191176743372
3.4028799651742783,0.6649074264922674,7.307491277827209,4.801913875594353,-11.304045247340467,-16.23716064081679
3.409529039439201,0.5518669740188628,7.355510416583153,4.639542269186186,-10.622634123506678,-15.755423083415637
3.4150477091793894,0.44564063278379595,7.401905839275014,4.481988038352029,-9.929042431540445,-15.255179682720161
3.419504115507227,0.3463502084683915,7.446725719658534,4.329436241524828,-9.23503405737192,-14.749537977347634
3.4229676175919113,0.25399986789467227,7.490020082073783,4.181940861751352,-8.549688588108932,-14.2488571424472
3.425507616270858,0.16850298201358294,7.531839490691296,4.03945229032688,-7.8797913586596575,-13.761120879290328
3.427192646090994,0.08970506842698636,7.572234013594565,3.9018410815339766,-7.230214312050728,-13.29230583603696
3.4280896967752637,0.017402925306479078,7.611252424409905,3.768918023173607,-6.604268383852964,-12.846725514487463
3.4282637260283284,-0.04863975853205056,7.648941604641641,3.640450768028732,-6.004017231186302,-12.427338679875952
3.4277773284430078,-0.10867993084391359,7.685346112321929,3.516177381229973,-5.430548500983871,-12.03601770335224
3.4266905291345684,-0.1629854158537523,7.720507886134229,3.3958172041964505,-4.884202995106614,-11.673776520789376
3.425060674976031,-0.21182744580481846,7.7544660581761935,3.279079438988557,-4.36476458138816,-11.340960500093816
3.4229424005179827,-0.2554750916187001,7.787256852566079,3.165669833987619,-3.871614998502838,-11.037401932056317
3.4203876496017958,-0.29419124160372845,7.818913550905956,3.0552958146670557,-3.4038581967160995,-10.76254547290035
3.4174457371857585,-0.3282298235708894,7.849466509052626,2.9476703599380523,-2.960418840909503,-10.515547958100727
3.4141634389500495,-0.35783401197998443,7.878943212652007,2.842514880357045,-2.5401192892713915,-10.29535678617783
3.4105850988302495,-0.38323520487269835,7.907368361455577,2.7395613124952667,-2.1417388966892137,-10.100770683231541
3.4067527467815224,-0.4046525938395905,7.93476397458053,2.6385536056629513,-1.7640589716275752,-9.930486199922969
3.4027062208431267,-0.42229318355586626,7.96114951063716,2.5392487436637214,-1.405896198038303,-9.783132822414219
3.3984832890075682,-0.4363521455362493,7.986541998073797,2.441417415439579,-1.066126853210426,-9.657299132209749
3.3941197675522057,-0.44701341406835354,8.010956172228193,2.3448444241174817,-0.7437037251717002,-9.551552044735121
3.3896496334115223,-0.45445045132007056,8.034404616469368,2.2493289036701305,-0.437667265335201,-9.46445079977631
3.3851051288983216,-0.45882712397342257,8.05689790550607,2.1546843956723674,-0.14715220312698268,-9.394557068903339
3.3805168576585873,-0.4602986460046924,8.078444749462793,2.060738824983334,0.12860940468850113,-9.340442282341073
3.3759138711985406,-0.4590125519578074,8.099052137712627,1.967334402159923,0.3902879221538872,-9.300693055296177
3.3713237456789624,-0.4551096727362685,8.118725481734227,1.8743274716069613,0.6384580741223216,-9.273915405852158
3.3667726489515997,-0.4487250919950453,8.137468756450296,1.7815883175484397,0.8736025985453116,-9.258738297787593
3.3622853980316494,-0.4399890660095922,8.15528463962578,1.6890009345705639,1.0961172274990159,-9.253816907296102
3.3578855073715537,-0.42902789373460204,8.172174648971486,1.596462765497603,1.3063166851101522,-9.257835898684437
3.3535952284342074,-0.4159647268835005,8.188139276626462,1.5038844065107586,1.5044414430842379,-9.269512897692655
3.3494355811653724,-0.40092031245265813,8.20317812069157,1.4111892775338322,1.6906650125246805,-9.287602269953616
3.345426378040846,-0.38401366232741135,8.217290013466908,1.318313254834296,1.8651015782224014,-9.310899244835383
3.3415862414175717,-0.36536264654518735,8.230473146015251,1.225204262385942,2.0278138021032768,-9.338244370568951
3.33793261495212,-0.34508450852415457,8.242725188639112,1.1318218186802524,2.178820638985132,-9.368528244564738
3.334481769866878,-0.32329630213430327,8.254043406825915,1.0381365362346051,2.3181050225658257,-9.40069643269273
3.331248806845535,-0.300115251908645,8.26442477218826,0.9441295719076778,2.4456212943673785,-9.4337544724966
3.3282476543264483,-0.27565903896497124,8.273866067907337,0.8497920271827117,2.5613022642962195,-9.466772847048038
3.3254910639367985,-0.25004601632200907,8.282363988179164,0.7551242987122313,2.6650658090218693,-9.498891817293012
3.3229906037735786,-0.22339535823179038,8.289915231166287,0.6601353805393012,2.7568209334247715,-9.529326009772781
3.3207566501912607,-0.19582714889754266,8.29651658497168,0.5648421204415734,2.836473240322156,-9.557368671625865
3.3187983787022852,-0.1674624164943211,8.302165006176097,0.4692684337253148,2.903929773580217,-9.5823955236232
3.317123754537342,-0.13842311875851893,8.30685769051335,0.3734444784890828,2.959103218372555,-9.603868162361303
3.3157395233497566,-0.10883208657479337,8.310592135298242,0.27740579686546973,3.0019154585143446,-9.621336982406483
3.3146512024840087,-0.07881293198964992,8.313366193266896,0.18119242704140492,3.0323005033837447,-9.634443606182511
3.313863073164112,-0.048489926955812473,8.315178117537311,0.0848479909795798,3.0502068051205833,-9.64292282222127
3.313378173894554,-0.01798785890460664,8.316026597447106,-0.011581237242632894,3.0555989901665304,-9.646604040156022
3.313198295305508,0.012568130997058665,8.31591078507468,-0.10804727764419313,3.048459027868483,-9.64541227333403
3.3133239766154783,0.0430527212757435,8.314830312298238,-0.20450140037753342,3.028786853402393,-9.639368657673252
3.313754503828236,0.07334058980976743,8.312785298294463,-0.3008950869542659,2.996600453741307,-9.628590509537203
3.3144879097263336,0.10330659434718051,8.30977634742492,-0.39718099204963797,2.9519354151982435,-9.613290917595451
3.315520975669805,0.13282594849916293,8.305804537504423,-0.4933139012255925,2.894843920838914,-9.593777855798391
3.316849235154797,0.16177438770755206,8.300871398492168,-0.5892516797835764,2.825393177428368,-9.570452798685473
3.3184669790318724,0.19002831948183574,8.294978881694332,-0.6849562077704311,2.743663246048294,-9.543808818012996
3.3203672622266907,0.21746495194231868,8.288129319616628,-0.7803942959505611,2.6497442492797454,-9.514428142432278
3.322541911746114,0.24396239443511614,8.280325376657123,-0.8755385773748838,2.543732931626533,-9.482979170348342
3.324981535690465,0.2693997237513815,8.271569990883373,-0.9703683690783672,2.4257285588783355,-9.45021294008857
3.327675532927979,0.29365700934016487,8.261866307192589,-1.064870498479253,2.295828156065962,-9.4169590802988
3.3306121030213807,0.31661529090082446,8.251217602207797,-1.159040089282241,2.1541211017552215,-9.384121285557303
3.333778255930389,0.33815650191837665,8.239627201314974,-1.252881302137814,2.0006831175057616,-9.352672385497087
3.337159820949573,0.3581633330934343,8.227098388293596,-1.3464080259927849,1.83556971402457,-9.323649097835371
3.3407414542805074,0.37651903023368,8.213634308033669,-1.4396445169711385,1.6588091784893852,-9.298146574073531
3.3445066445828444,0.39310712201857384,8.199237862863958,-1.5326259827118738,1.4703952094959485,-9.277312858784526
3.3484377158030303,0.40781107411353335,8.18391160303684,-1.625399111299719,1.2702793262382044,-9.262343387161538
