th1 (rad),w1 (rad/s),th2 (rad),w2 (rad/s),a1 (rad/s^2),a2 (rad/s^2)
5.233202912870279,0.7013958296124124,5.698706757126123,1.865189478483926,11.59256671661504,-5.172598739385215
5.240216871166403,0.8173214967785628,5.7173586519109625,1.8134634910900738,11.601415425290003,-5.358531764801399
5.248390086134189,0.9333356510314629,5.735493286821863,1.7598781734420599,11.608468594102265,-5.563018800863601
5.257723442644504,1.0494203369724855,5.753092068556284,1.7042479854334238,11.614484062099729,-5.786834459041351
5.268217646014229,1.1655651775934828,5.770134548410618,1.6463796408430103,11.620008399033006,-6.0302155596691875
5.2798732977901635,1.2817652615838129,5.786598344819048,1.5860774852463184,11.625406078170299,-6.29288841640367
5.292690950406001,1.398019322365516,5.802459119671511,1.5231486010822817,11.630875402433663,-6.574077993235446
5.306671143629656,1.5143280763898526,5.817690605682333,1.4574078211499273,11.636449930944645,-6.872497737281726
5.321814424393555,1.630692575699299,5.832264683893833,1.38868284377711,11.641983873586986,-7.186318494568199
5.338121350150548,1.7471124144351688,5.846151512331604,1.316819658831428,11.647119490672566,-7.513114309088044
5.355592474294899,1.8635836093418945,5.859319708919918,1.2416885157405475,11.651234019336101,-7.849782187068669
5.374228310388318,1.9800959495352555,5.871736594077323,1.1631906938698608,11.653363126629413,-8.192432198556626
5.394029269883671,2.0966295808015496,5.8833685010160215,1.0812663718842945,11.65209747556233,-8.536243760654529
5.414995565691687,2.213150555557173,5.8941811647348645,0.9959039342777493,11.645448865072998,-8.875283872591524
5.437127071247258,2.329605044207903,5.904140204077642,0.907151095551834,11.630682856650877,-9.202283881013843
5.460423121689337,2.445911872774412,5.91321171503316,0.8151282567416956,11.604116278425005,-9.508373704305718
5.484882240417082,2.561953035558662,5.9213629976005775,0.7200445196986385,11.560881171257064,-9.78277730965641
5.5105017707726685,2.6775618472712326,5.9285634427975635,0.6222167466020744,11.49466254825815,-10.012481963550885
5.53727738924538,2.792508472753814,5.934785610263584,0.5220919269665656,11.397426980776249,-10.18190807209294
5.565202473972919,2.9064827425615767,5.94000652953325,0.4202728462456362,11.25917382614897,-10.27262814238112
5.594267301398535,3.0190744808230665,5.9442092579957055,0.31754656482182503,11.067761907080547,-10.263213904110144
5.624458046206765,3.129752099893872,5.947384723643924,0.2149144257807236,10.808891475692256,-10.129329515177721
5.655755567205704,3.2378410146507948,5.9495338679017316,0.11362113062894638,10.466351397224038,-9.844231531239403
5.688133977352212,3.342504528623035,5.950670079208021,0.015178815316552352,10.022666639138688,-9.379871066215326
5.721559022638442,3.4427311950144217,5.950821867361187,-0.07861989534560092,9.460285847976929,-8.70879766360589
5.755986334588586,3.537334053494191,5.950035668407731,-0.16570787198165982,8.76340942327459,-7.8070036174412545
5.791359675123529,3.624968147726937,5.948378589687914,-0.24377790815607236,7.920447972009108,-6.657682875505014
5.827609356600798,3.704172627447028,5.945940810606354,-0.3103547369111225,6.926902990910368,-5.25558713588653
5.864651082875268,3.773441657356132,5.942837263237243,-0.3629106082699878,5.788195159834942,-3.611271753494033
5.902385499448829,3.8313236089544813,5.9392081571545425,-0.3990233258049281,4.521710849176118,-1.754152398710401
5.940698735538374,3.8765407174462423,5.935217923896493,-0.4165648497920321,3.1572366571733004,0.2668532345147268
5.979464142712836,3.9081130840179754,5.931052275398573,-0.4138963174468849,1.73515573040137,2.386026949423636
6.018545273553016,3.925464641321989,5.926913312224103,-0.3900360479526485,0.3023377351157541,4.527008527613059
6.057799919966236,3.928488018673147,5.923012951744576,-0.34476596267651793,-1.0935858396604003,6.611412088590851
6.097084800152968,3.917552160276543,5.919565292117811,-0.2786518417906094,-2.410244419761596,8.567976959127211
6.136260321755733,3.8934497160789268,5.916778773699905,-0.19297207219933732,-3.6153798048283887,10.340086005525267
6.175194818916522,3.8572959180306428,5.914849052977911,-0.08957121214408464,-4.689478336805924,11.89007676337808
6.213767778096829,3.8104011346625835,5.91395334085647,0.029329555489696152,-5.6259116770706905,13.199890205450735
6.251871789443454,3.7541420178918767,5.9142466364113675,0.1613284575442035,-6.429056915145817,14.268690530302052
6.2894132096223725,3.6898514487404186,5.91585992098681,0.304015362847224,-7.111277000969573,15.108708319020659
6.326311724109777,3.6187386787307227,5.918900074615282,0.4551024460374306,-7.689656312889402,15.740606168302872
6.362499110897084,3.541842115601829,5.923451099075656,0.6125085077204593,-8.18313501061314,16.18932174658308
6.3979175320531025,3.4600107654956975,5.929576184152861,0.77440172518629,-8.610358340243735,16.480877440150074
6.43251763970806,3.37390718209326,5.937320201404724,0.9392104995877908,-8.988288643910623,16.640255773001112
6.466256711528993,3.2840242956541537,5.9467123064006016,1.105613057317802,-9.331468848502936,16.690202591952836
6.499096954485534,3.1907096071691243,5.95776843697378,1.2725150832373304,-9.651765818287284,16.650723971106263
6.531004050557225,3.0941919489862513,5.9704935878061525,1.439022322948393,-9.958425061946114,16.539039776305156
6.561945970047088,2.99460769836679,5.984883811035637,1.6044127207114445,-10.25830096756761,16.369798866242114
6.591892047030756,2.892024688691114,6.000927938242751,1.7681107093738655,-10.556166185290483,16.155415019801588
6.620812293917667,2.7864630268382093,6.01860904533649,1.9296648595718815,-10.8550383802789,15.906431601131976
6.6486769241860495,2.6779126430354205,6.037905693932209,2.088729175583201,-11.15648840952752,15.631860421269248
6.675456050616404,2.5663477589401453,6.058792985688041,2.2450477797958936,-11.460911173957964,15.339465902390334
6.701119528205806,2.451738647200566,6.0812434634859995,2.398442438819797,-11.767750694676426,15.03598161159792
6.725636914677811,2.3340611402538016,6.1052278878741975,2.5488022549357763,-12.075676349629074,14.727255121302536
6.748977526080349,2.213304376757511,6.130715910423556,2.696074806148802,-12.38270937292776,14.418321250669582
6.771110569847925,2.0894772830282333,6.157676658485044,2.8402580186554975,-12.686298913746842,14.113404757422861
6.792005342678207,1.962614293890765,6.186079238671598,2.981392066229726,-12.983346040064719,13.815852676588738
6.811631485617115,1.8327808334901177,6.215893159333896,3.1195505929956138,-13.270172657822753,13.527994581317579
6.829959293952016,1.7000791069118901,6.247088665263852,3.2548305388087897,-13.542430881259866,13.250926744402811
6.846960085021135,1.5646547980992915,6.279636970651939,3.3873398062528177,-13.794947448998396,12.984214223172193
6.8626066330021285,1.4267053236093075,6.313510368714468,3.5171819484845397,-14.021498046773461,12.725504267381469
6.876873686238222,1.2864903431415728,6.348682188199313,3.6444369911583543,-14.214508985900464,12.47004670959104
6.889738589669637,1.1443452532825682,6.385126558110897,3.7691374582542645,-14.36469034255832,12.210124577409427
6.901182042202462,1.000698349856985,6.422817932693439,3.8912387040283587,-14.46061798286709,11.934414715000242
6.911189025701032,0.8560921700283142,6.461730319733722,4.010582851178361,-14.488305396109805,11.627328708200183
6.919749947401315,0.7112091160672162,6.501836148245506,4.126856138260363,-14.430843955439679,11.268434704704852
6.926862038561987,0.5669006765128194,6.54310470962811,4.239540485307412,-14.268245150185866,10.832135489095036
6.932531045327115,0.42421822501096074,6.585500114481183,4.347861840198362,-13.977688979627896,10.287876140679215
6.936773227577225,0.28444133521468173,6.628978732883167,4.450740601605155,-13.534456487737243,9.601259556908625
6.939617640929372,0.1490967703373093,6.673486138899218,4.546753197174241,-12.913868412469716,8.736515952005929
6.941108608632745,0.019958086212612136,6.7189536708709605,4.634118356694301,-12.094504895043842,7.660719730548667
6.941308189494871,-0.10098696273782629,6.7652948544379035,4.710725553999787,-11.06275874811281,6.349857350288159
6.940298319867493,-0.21161455021895437,6.812402109977901,4.774224127502669,-9.818307074391642,4.796224077064902
6.938182174365303,-0.3097976209628708,6.860144351252928,4.822186368273318,-8.379402326928398,3.0157003952816956
6.935084198155674,-0.39359164423215476,6.908366214935661,4.852343372226135,-6.78621727675899,1.0525428213060906
6.9311482817133525,-0.46145381699974464,6.956889648657922,4.862868800439196,-5.100285420681027,-1.0209605843334542
6.926533743543355,-0.5124566712065549,7.005518336662314,4.852659194595861,-3.3988289135949,-3.1116294497395103
6.92140917683129,-0.5464449603425039,7.054044928608273,4.821542900098466,-1.7645026739336147,-5.11865536113581
6.915944727227865,-0.56408998708184,7.102260357609258,4.770356346487108,-0.27309149412865014,-6.949619627470629
6.910303827357047,-0.5668209020231265,7.1499639210741295,4.700860150212401,1.017216225700857,-8.534435155421555
6.904635618336815,-0.556648739766118,7.196972522576253,4.615515798658186,2.071968402577213,-9.83321929981032
6.8990691309391545,-0.5359290557403458,7.243127680562835,4.517183605660083,2.880960313449431,-10.836752900339551
6.893709840381751,-0.5071194526058515,7.2882995166194355,4.408816076656688,3.4541814706015757,-11.560993770599001
6.888638645855693,-0.4725776378998357,7.332387677386002,4.293206138950698,3.8154215761905754,-12.038629335043595
6.883912869476695,-0.43442342213792995,7.375319738775509,4.172819845600261,3.9957136969578797,-12.310550812029138
6.879568635255316,-0.39446628516835114,7.417047937231512,4.04971433747997,4.028010734966801,-12.419057767114849
6.875623972403632,-0.3541861778186831,7.4575450806063115,3.9255237598088213,3.9435989545357426,-12.403404740925208
6.8720821106254455,-0.3147501882733257,7.4968003182044,3.8014897123995692,3.770128044724586,-12.297481203293259
6.8689346087427126,-0.2770489078260798,7.534815215328396,3.6785149003666366,3.5308540355259446,-12.129058422969086
6.866164119664452,-0.2417403674708204,7.571600364332062,3.5572243161369457,3.2446540207173022,-11.920005397422285
6.863746715989744,-0.20929382726364737,7.607172607493432,3.4380242621627226,2.9264544041930414,-11.686998849830982
6.861653777717107,-0.18002928322171696,7.641552850115059,3.321154273664413,2.587827558928889,-11.442409582791436
6.85985348488489,-0.15415100763242806,7.674764392851703,3.2067301778364983,2.2376106975563284,-11.195181252173683
6.858311974808566,-0.13177490065686479,7.7068316946300675,3.0947783653147614,1.8824717467270295,-10.951611592922019
6.856994225801997,-0.11295018318959449,7.737779478283215,2.985262249385541,1.5273917495490041,-10.716003961866354
6.855864723970101,-0.09767626569410445,7.767632100777071,2.878102209766878,1.1760584981405828,-10.491188592931595
6.85488796131316,-0.08591568071269862,7.79641312287474,2.7731903238375617,0.8311785301131982,-10.278927704282017
6.854028804506034,-0.07760389541156663,7.824145026113116,2.6704010467947414,0.4947195333267677,-10.080223678029068
6.853252765551918,-0.07265670007829896,7.850849036581063,2.5695988100144507,0.1680960781131887,-9.895549607161986
6.852526198551136,-0.07097573929716706,7.876545024681207,2.4706433139428308,-0.14768944820864358,-9.725019338845216
6.851816441158164,-0.0724526337792535,7.901251457820636,2.3733931205543786,-0.451940605622458,-9.568511250498226
6.851091914820371,-0.07697203983547808,7.92498538902618,2.2777080080493963,-0.7441871600334349,-9.425757125872861
6.850322194422016,-0.08441391143581244,7.9477624691066735,2.1834504367906677,-1.02412536302626,-9.296404973813972
6.8494780553076575,-0.09465516506607503,7.96959697347458,2.090486387052528,-1.2915732450099326,-9.180062548321521
6.8485315036569965,-0.10757089751617437,7.990501837345105,1.998685761569313,-1.5464371003316228,-9.076326672971746
6.847455794681835,-0.12303526851949059,8.010488694960799,1.9079224948395956,-1.788686276681646,-8.984802189778785
6.84622544199664,-0.14092213128630704,8.029567919909194,1.8180744729418077,-2.0183341024917127,-8.905113374664298
6.844816220683777,-0.16110547231122416,8.047748664638613,1.7290233391951646,-2.235423336356004,-8.836909924672385
6.843205165960665,-0.1834597056747842,8.065038898030565,1.6406542399484407,-2.4400149387158323,-8.779869070873783
6.841370568903917,-0.20785985506194252,8.08144544043005,1.552855549239703,-2.6321792789630263,-8.733694960893338
6.8392919703532975,-0.23418164785157278,8.096973995922447,1.4655185996307696,-2.8119891254295353,-8.698116151161955
6.836950153874782,-0.2623015391058681,8.111629181918754,1.37853743811915,-2.9795139407390163,-8.67288182449185
6.834327138483723,-0.29209667851325827,8.125414556299946,1.2918086198742316,-3.134815135529603,-8.6577571831198
6.831406171698591,-0.3234448298685543,8.138332642498687,1.2052310480430335,-3.2779420308901326,-8.652518345786648
6.8281717233999055,-0.3562242501774556,8.150384952979117,1.118705864585167,-3.4089283524889282,-8.65694698845597
6.824609480898131,-0.3903135337023449,8.161572011624969,1.0321363947006073,-3.5277891337000478,-8.670824903590209
6.820706345561107,-0.4255914250393454,8.171893375571974,0.9454281456647051,-3.6345179458191095,-8.693928606356868
6.816450431310714,-0.4619366044975365,8.18134765702862,0.8584888596011364,-3.7290844042667435,-8.726024083207733
6.811831065265738,-0.4992274485402039,8.189932545624632,0.7712286187690591,-3.8114319231424623,-8.766861755627286
6.806838790780336,-0.5373417677716286,8.197644831812323,0.6835600012127863,-3.881475708565765,-8.81617171702095
6.80146537310262,-0.5761565248572862,8.20448043182445,0.5953982840425768,-3.9391009953524265,-8.873659291880596
6.795703807854047,-0.6155475348108105,8.210434414664876,0.5066616911237708,-3.984161542754424,-8.939000962152946
6.789548332505939,-0.6553891502383548,8.215501031576114,0.41727168150224137,-4.016478413971031,-9.011840705102657
6.782994441003556,-0.695553934378065,8.219673748391136,0.3271532744512148,-4.035839071410159,-9.09178678909269
6.776038901659775,-0.7359123250921666,8.222945281135647,0.23623540656028785,-4.041996825554176,-9.17840907794593
6.7686797784088535,-0.7763322933477084,8.22530763520125,0.14445131578082854,-4.034670679927045,-9.271236900354342
6.7609164554753765,-0.8166790001469788,8.22675214835906,0.05173894677728512,-4.01354561811548,-9.369757547681328
6.752749665473907,-0.8568144563281336,8.227269537826832,-0.041958628699528155,-3.9782733810145,-9.47341547100987
6.744181520910625,-0.8965971901382785,8.226849951539837,-0.13669278340962687,-3.92847378331365,-9.581612255988706
6.735215549009243,-0.935881927971415,8.22548302370574,-0.23250890596951393,-3.8637366175144723,-9.693707461483928
6.725856729729529,-0.9745192941465597,8.223157934646045,-0.3294459805843532,-3.7836241912159645,-9.80902041480703
6.716111536788063,-1.0123555360587193,8.219863474840201,-0.4275361847324235,-3.6876745387220695,-9.926833061898812
6.705987981427476,-1.04923228144594,8.215588112992878,-0.5268045153514116,-3.5754053408819013,-10.046393974825037
6.695495658613016,-1.084986334854759,8.210320067839364,-0.627268455099662,-3.4463185771183693,-10.166923620796723
6.684645795264468,-1.1194495206259427,8.204047383288367,-0.7289376913076292,-3.2999059204819163,-10.287620996180644
6.6734513000582085,-1.152448579830762,8.19675800637529,-0.8318139012694357,-3.13565486994708,-10.407671725146672
6.661926814259901,-1.1838051285302327,8.188439867362597,-0.9358906185209024,-2.953055593754912,-10.52625771527978
6.650088762974598,-1.2133356844677818,8.179080961177387,-1.0411531956737001,-2.7516084331628785,-10.642568451306804
6.637955406129921,-1.2408517687994107,8.16866942922065,-1.1475788801867681,-2.530831987362323,-10.755813992792628
6.625546888441926,-1.266160088673034,8.157193640418782,-1.2551370201146943,-2.290271667557559,-10.865239722132294
6.612885287555196,-1.2890628053486095,8.144642270217636,-1.3637894173360172,-2.029508571435183,-10.9701428654753
6.59999465950171,-1.3093578910629613,8.131004376044276,-1.4734908459907703,-1.7481684888591622,-11.069890781674154
6.586901080591081,-1.326839575951553,8.116269467584369,-1.5841897538075118,-1.4459308062273626,-11.163940983544897
6.573632684831565,-1.3412988840138267,8.100427570046293,-1.6958291636429608,-1.1225370314263101,-11.25186282259137
6.560219695991426,-1.3525242543280898,8.083469278409863,-1.8083477918688744,-0.7777986149543353,-11.333360734180756
6.546694453448145,-1.360302240477633,8.065385800491175,-1.921681399210682,-0.4116036971288578,-11.408298906666925
6.533091431043369,-1.3644182774489215,8.046168986499067,-2.035764388277351,-0.023922368304243293,-11.476727207239197
6.51944724826888,-1.364657501131964,8.025811342616294,-2.150531660349743,0.3851900089691771,-11.538908171780658
6.50580067325756,-1.3608056010422722,8.004306026012797,-2.2659207420675496,0.8155918972054035,-11.59534484845906
6.492192617247137,-1.352649682070218,7.981646818592122,-2.38187419055214,1.2670576015171018,-11.646809277920617
6.478666120426435,-1.339979106055047,7.9578280766866,-2.4983422833313464,1.7392827134829674,-11.694371399357092
6.4652663293658845,-1.3225862789202174,7.932844653853286,-2.6152859973249174,2.231893474355836,-11.739428193221
6.452040466576682,-1.300267344176659,7.906691793880038,-2.7326802792571274,2.744460514700531,-11.783732908443312
6.439037793134916,-1.2728227390296536,7.879364991087466,-2.8505176083415606,3.2765173631333235,-11.829424272742159
6.426309565744619,-1.2400575653983203,7.850859815004051,-2.968811851068982,3.8275840165611785,-11.879055643206595
6.413908990090635,-1.2017817252327085,7.821171696493361,-3.087602407501048,4.397195717839262,-11.935624108932672
6.401891172838308,-1.157809768054316,7.790295672418351,-3.2069586485903745,4.984936878579741,-12.002599586851764
6.390313075157765,-1.1079603992685185,7.7582260859324474,-3.326984644458892,5.590479790732935,-12.083953920397414
6.37923347116508,-1.0520556013611893,7.724956239487859,-3.447824183662866,6.213627351783368,-12.184189840481253
6.368712915151469,-0.9899193278433556,7.69047799765123,-3.5696660820676787,6.8543584224121155,-12.308369287099074
6.358813721873036,-0.9213757436192345,7.654781336830553,-3.6927497749386693,7.512873541150082,-12.462139871537145
6.349599964436844,-0.8462470082077337,7.617853839081166,-3.8173711736540406,8.18963737478195,-12.651756952335615
6.341137494354767,-0.7643506344599141,7.579680127344625,-3.943888743177397,8.885412224008894,-12.884096536826751
6.333493988010168,-0.6754965122198252,7.540241239912851,-4.072729708545665,9.60127371193924,-13.166650423822455
6.32673902288797,-0.5794837751004328,7.499513942827394,-4.204396212783889,10.338594790963608,-13.507488751000484
6.320944185136965,-0.47609782719079674,7.457469980699555,-4.339471100293894,11.098976355359191,-13.91516494375528
6.316183206865057,-0.3651080636372048,7.414075269696616,-4.478622749731446,11.884090385907049,-14.398521681555579
6.312532126228685,-0.24626715977813435,7.369289042199301,-4.622607966547002,12.695382116917187,-14.966330321462136
6.310069454630904,-0.11931333860896248,7.3230629625338315,-4.772271269761624,13.533547338023173,-15.626654786471937
6.3088763212448145,0.016022134771269236,7.275340249836216,-4.928537817626343,14.397654032060203,-16.385766240343365
6.309036542592527,0.15999867509187127,7.226054871659953,-5.092395480029777,15.283706671425628,-17.246336075886706
6.310636529343446,0.31283574180612755,7.175130916859655,-5.264858840788643,16.182348498645908,-18.20448942433235
6.313764886761508,0.47465922679258665,7.122482328451769,-5.446903735031967,17.07525801558571,-19.24510187725426
6.318511479029434,0.6454118069484438,7.068013291101449,-5.6393547538045095,17.929635449616782,-20.334484971946043
6.3249655970989185,0.8247081614446117,7.011619743563404,-5.84269960352397,18.690063577393737,-21.409422357589335
6.333212678713364,1.011608797218549,6.953192747528164,-6.056793827099863,19.26717291675375,-22.36166700929785
