th1 (rad),w1 (rad/s),th2 (rad),w2 (rad/s),a1 (rad/s^2),a2 (rad/s^2)
5.017138058042371,1.7907164233020227,5.287200896497817,-1.2385577018812397,11.206060005107243,-3.4303124680405097
5.035045222275391,1.9027770233530952,5.274815319479004,-1.2728608265616448,11.127701283750762,-3.3787297816599313
5.054072992508922,2.0140540361906027,5.262086711213388,-1.3066481243782442,10.99416479128243,-3.2385935714928804
5.074213532870828,2.123995684103427,5.249020229969605,-1.339034060093173,10.794805560321128,-2.9924290427147753
5.095453489711862,2.2319437397066384,5.235629889368673,-1.3689583505203207,10.51959533586276,-2.6236248411652574
5.117772927108929,2.337139693065266,5.22194030586347,-1.3951945989319732,10.160203517069466,-2.1180450289361707
5.1411443240395815,2.4387417282359607,5.20798835987415,-1.416375049221335,9.711275275607736,-1.4659425706282128
5.165531741321941,2.5358544809920383,5.193824609381937,-1.4310344749276172,9.17174893567901,-0.6639484651480475
5.190890286131862,2.6275719703488285,5.179514264632661,-1.4376739595790977,8.545966329346607,0.28321844946332186
5.21716600583535,2.7130316336422946,5.16513752503687,-1.4348417750844644,7.844278091518925,1.3617537623057
5.244296322171773,2.791474414557484,5.150789107286025,-1.4212242374614075,7.082872864357261,2.548880294626245
5.272211066317348,2.8623031432010566,5.136576864911411,-1.395735434515145,6.282690051305282,3.8142868655788478
5.300834097749358,2.9251300437141095,5.122619510566259,-1.3575925658593564,5.467492859403508,5.122799654316637
5.330085398186499,2.9798049723081443,5.109043584907665,-1.30636456931619,4.661414340528799,6.437853320410954
5.3598834479095805,3.0264191157134324,5.095979939214503,-1.2419860361120805,3.88644992202671,7.725092858448299
5.390147639066715,3.0652836149336995,5.083560078853383,-1.1647351075275976,3.1603838886575475,8.955407867837899
5.420800475216052,3.096887453820275,5.071912727778106,-1.0751810288492185,2.495498087366299,10.106890365364023
5.4517693497542545,3.1218424346939377,5.061160917489614,-0.9741121251955782,1.898181957746946,11.165528255821568
5.482987774101194,3.1408242542714073,5.051419796237658,-0.8624568426373626,1.3693385370820559,12.12476570239881
5.514396016643908,3.154517639642228,5.042795227811284,-0.7412091856133745,0.9053361257293482,12.984271964361843
5.54594119304033,3.1635710008995215,5.035383135955151,-0.611366465969756,0.4992147284980003,13.748324445943275
5.577576903049326,3.1685631481845014,5.029269471295453,-0.47388322151032325,0.14189922300902183,14.424157355931527
5.609262534531171,3.1699821404145916,5.024530639080349,-0.329641647951008,-0.176744645256863,15.020512769351182
5.640962355935317,3.168214693962023,5.021234222600839,-0.17943652025749615,-0.4670884645050046,15.546510240544228
5.672644502874937,3.1635438093169728,5.019439857398264,-0.023971417852053867,-0.7391636833675851,16.010856894063394
5.704279940968107,3.156152172483297,5.019200143219743,0.13613715108858007,-1.00229831152581,16.42136211801132
5.73584146269294,3.1461291893680388,5.0205615147306295,0.3003507722686933,-1.2649204023792264,16.784695153364687
5.76730275458662,3.1334799853442465,5.023565022453316,0.46819772380234015,-1.534479257617431,17.10631989208804
5.798637554440062,3.1181351927680723,5.02824699969134,0.6392609227232205,-1.8174419635630625,17.39054908579757
5.829818906367743,3.0999607731324414,5.034639608918572,0.8131664135811962,-2.1193326142944353,17.640672583079642
5.860818514099067,3.078767446989497,5.042771273054384,0.9895731394119927,-2.4447912861633245,17.859126769439158
5.891606188568963,3.0543195341278637,5.052667004448503,1.1681644071063841,-2.7976380461603254,18.047682991493666
5.9221493839102415,3.0263431536662604,5.064348648519567,1.3486412370213208,-3.1809335794679985,18.20764077339041
5.9524128154469045,2.9945338178715804,5.07783506088978,1.5307176447552249,-3.597032519388197,18.34001721109368
5.98235815362562,2.9585634926776985,5.093142237337332,1.7141178168661617,-4.0476285738744195,18.445727505245333
6.011943788552397,2.9180872069389543,5.110283415505994,1.898575091918615,-4.533792415182054,18.52575367329976
6.0411246606217865,2.872749282787134,5.12926916642518,2.0838326286516127,-5.05600432935201,18.581299517647654
6.0698521534496575,2.8221892394936137,5.1501074927116965,2.2696456238280893,-5.61418402987929,18.61393027143008
6.0980740458445934,2.7660473991948207,5.172803948949977,2.45578492654239,-6.207719968191973,18.62569524766803
6.125734519836541,2.703970199512901,5.197361798215401,2.6420418790190703,-6.835499999900766,18.61923143547006
6.15277422183167,2.635615199513893,5.223782217005592,2.828234193373771,-7.495944412873796,18.597845388981543
6.179130373826809,2.560655755385155,5.25206455893933,3.0142126472635864,-8.18704106598719,18.565569927677135
6.204736931380661,2.4787853447252832,5.282206685411966,3.1998683465403577,-8.906380653502035,18.52719101047891
6.229524784827914,2.389721538190263,5.314205368877369,3.3851402566451467,-9.65118777189549,18.48823845801594
6.253422000209817,2.293209660471308,5.3480567714438205,3.570022641225306,-10.418340323426072,18.45493164343112
6.27635409681453,2.1890262572370474,5.383756997856073,3.7545719576596173,-11.20436554220731,18.434067346092647
6.2982443593869,2.0769826018149744,5.42130271743267,3.9389126311205436,-12.005395131236888,18.432830928116402
6.31901418540505,1.9569286505026056,5.460691843743875,4.123240940401708,-12.817054020858905,18.45850281569174
6.338583471910075,1.8287581102940165,5.501924253147893,4.307825968558625,-13.634246238686588,18.51801854766167
6.356871053013015,1.6924156479071506,5.545002512833479,4.493006154035242,-14.4507862310721,18.617320620634516
6.373795209492087,1.5479077855964296,5.589932574373831,4.679179360241587,-15.258803530593497,18.760412033770493
6.3892742873480515,1.3953197502904946,5.636724367976247,4.866783480579292,-16.047822177658112,18.947983258599788
6.403227484850956,1.2348415285139134,5.685392202782039,5.05626331316529,-16.803384754499,19.175436888191605
6.415575900136095,1.0668076809689233,5.7359548359136925,5.248017682047205,-17.50505995090566,19.430084099903898
6.426243976945784,0.8917570814598668,5.788435012734165,5.442318523046245,-18.123658813825944,19.68725542687967
6.435161547760383,0.7105204933216074,5.8428581979646275,5.639191077315042,-18.617527354963293,19.90510686532827
6.442266752693599,0.5243452197719745,5.899250108737778,5.838242145968325,-18.927962759340936,20.018120010644505
6.447510204891318,0.33506559217856513,5.957632530197461,6.03842334607477,-18.974262735719893,19.929891499624663
6.450860860813104,0.1453229648213662,6.018016763658209,6.237722261071016,-18.64987808013286,19.507083406886473
6.452314090461318,-0.04117581597996242,6.080393986268919,6.432793095139881,-17.822797004855897,18.57865295421263
6.451902332301518,-0.2194037860285214,6.144721917220318,6.618579624682007,-16.345499585293997,16.94753054661775
6.449708294441233,-0.3828587818814614,6.210907713467138,6.788054930148184,-14.081343109029753,14.424123838420433
6.445879706622419,-0.5236722129717589,6.278788262768621,6.932296168532388,-10.951845671324625,10.888015634575785
6.440642984492701,-0.6331906696850051,6.348111224453945,7.041176324878146,-6.998474199562833,6.369753478194718
6.434311077795851,-0.7031754116806335,6.418522987702726,7.104873859660093,-2.4328399410493207,1.1180787922962403
6.427279323679045,-0.7275038110911267,6.489571726299327,7.116054647583056,2.365936635883278,-4.402554124234874
6.420004285568133,-0.7038444447322939,6.560732272775158,7.072029106340707,6.932842123938024,-9.618965121427763
6.41296584112081,-0.6345160234929137,6.631452563838565,6.975839455126429,10.851429666976887,-14.025162979445836
6.406620680885881,-0.5260017268231448,6.7012109583898285,6.83558782533197,13.868138741327614,-17.329426203279503
6.40136066361765,-0.38732033940986865,6.769566836643148,6.662293563299175,15.92637475951584,-19.49371451925027
6.397487460223552,-0.22805659181471025,6.83618977227614,6.4673564181066725,17.121831469254456,-20.669961474454116
6.395206894305405,-0.05683827712216569,6.900863336457206,6.2606568033621315,17.625928018417678,-21.097335139652415
6.3946385115341835,0.11942100306201109,6.963469904490828,6.049683451965607,17.621285115593537,-21.018501223307524
6.395832721564804,0.29563385421794647,7.023966739010484,5.839498439732532,17.26572783357038,-20.63517328859859
6.398789060106983,0.4682911325536503,7.082361723407809,5.633146706846546,16.680459416574823,-20.095679993285234
6.40347197143252,0.6350957267193985,7.138693190476275,5.432189906913694,15.9518625454208,-19.49982092995321
6.409822928699714,0.7946143521736065,7.193015089545412,5.237191697614161,15.13850658032745,-18.909731238468364
6.41776907222145,0.945999417976881,7.245387006521553,5.0480943852294775,14.278755543490519,-18.360835633628774
6.427229066401218,1.088786973411786,7.2958679503738475,4.8644860288931895,13.397141224503477,-17.8707045137586
6.438116936135336,1.222758385656821,7.3445128106627795,4.685778983755603,12.509111009736682,-17.445496436031306
6.450344519991905,1.3478494957541878,7.391370600500336,4.51132401939529,11.624339616830275,-17.084373333163878
6.463823014949447,1.4640928919224905,7.436483840694288,4.340480286063651,10.748943737752018,-16.782417932424003
6.478463943868672,1.5715823293000106,7.479888643554925,4.172656106739411,9.88691733834535,-16.532516496824645
6.494179767161672,1.670451502683464,7.521615204622319,4.007330941771165,9.041035696595623,-16.326554100971144
6.510884282188506,1.7608618596494203,7.56168851404003,3.8440654007614534,8.213406467974313,-16.156163662359358
6.528492900785,1.8429959243291634,7.600129168047645,3.6825037641378597,7.405790508132195,-16.013189162340908
6.546922860028292,1.9170538294104853,7.636954205689023,3.5223718725144506,6.61977502135331,-15.889966890814748
6.566093398322397,1.9832515796240184,7.672177924414168,3.363472203606303,5.856853941194803,-15.77949070522218
6.585925914118637,2.0418201190359664,7.705812646450231,3.2056772965540814,5.118451862373184,-15.675502721915466
6.606344115308997,2.093004637659698,7.737869419415772,3.048922269334927,4.405915486044114,-15.57253523276994
6.627274161685594,2.1370637925201392,7.7683586421091215,2.8931969170072276,3.7204883351192652,-15.465919877907885
6.648644799610795,2.174268675871332,7.797290611279194,2.738537718228149,3.063279015438033,-15.351774113214157
6.670387486369509,2.2049014660257122,7.824675988461475,2.5850199770960076,2.4352295979230556,-15.226971405438938
6.692436501029766,2.2292537620049426,7.850526188232435,2.4327502630416182,1.8370881644893526,-15.089099467299851
6.714729038649815,2.247624643649836,7.874853690862851,2.2818592683686196,1.269387805308464,-14.936409629068653
6.737205285086313,2.2603185217029207,7.897672283546537,2.1324951720779333,0.7324331284371838,-14.767759759949692
6.7598084703033425,2.2676428529872927,7.918997235267317,1.9848175744784364,0.22629448639110364,-14.582552767035331
6.782484898833215,2.269905797851204,7.938845411012101,1.8389920468080831,-0.2491904643579136,-14.380672465936566
6.805183956811727,2.2674138932076247,7.957235331480182,1.6951853221487174,-0.6944086437839009,-14.162418447985928
6.827858095743803,2.2604698067697857,7.974187184701669,1.553561137668858,-1.1099578777565287,-13.928441415107525
6.850462793811501,2.2493702279922205,7.9897227960783574,1.4142767235177829,-1.496628804409442,-13.679680290783152
6.872956496091423,2.234403939948126,8.003865563313536,1.2774799206099514,-1.855383513706153,-13.417302235489068
6.895300535490905,2.2158501048110644,8.016640362519635,1.1433068982550607,-2.187332036984919,-13.142646498517797
6.917459036539015,2.1939767844412152,8.028073431502186,1.0118804332698828,-2.49370771481591,-12.857172831426956
6.939398804383427,2.1690397072930563,8.038192235834885,0.8833087049556132,-2.7758423502819025,-12.562414979926679
6.961089201456358,2.1412812837902373,8.04702532288444,0.7576845551563465,-3.0351419144888085,-12.25993956957387
6.98250201429426,2.110929864645349,8.054602168436004,0.6350851594606077,-3.273063423048676,-11.951310513973674
7.003611312940714,2.0781992304148624,8.06095302003061,0.5155720543208709,-3.491093455501098,-11.638058908425274
7.024393305244862,2.0432882958598513,8.066108740573819,0.3991914652366182,-3.6907286510190738,-11.321658231255974
7.04482618820346,2.0063810093496603,8.070100655226184,0.2859748829240585,-3.8734583881466773,-11.003504561654882
7.064889998296957,1.9676464254681936,8.072960404055426,0.17593983730750967,-4.0407497468102935,-10.684901437039443
7.084566462551639,1.9272389280000906,8.0747198024285,0.06909082293711524,-4.1940347589746905,-10.367048913762098
7.10383885183164,1.8852985804103437,8.075410710657872,-0.03457966620050573,-4.334699880375964,-10.051036360044526
7.1226918376357435,1.8419515816065841,8.075064913995867,-0.13509002980095097,-4.464077559090132,-9.737838496386415
7.14111135345181,1.7973108060156828,8.073714013697858,-0.2324684147648151,-4.583439735939089,-9.428314202864264
7.159084461511966,1.751476408656292,8.07138932955021,-0.32675155679345774,-4.693993085102057,-9.123207631089954
7.17659922559853,1.7045364778052714,8.068121813982275,-0.41798363310435727,-4.796875788768484,-8.823151187594428
7.193644590376582,1.6565677199175866,8.06394197765123,-0.5062151449803015,-4.893155635150769,-8.528669991748277
7.210210267575758,1.607636163566079,8.058879826201428,-0.5915018448977842,-4.98382923265423,-8.240187452103005
7.226286629211419,1.5577978712395366,8.052964807752451,-0.6739037194188143,-5.069822142611587,-7.958031647743071
7.241864607923814,1.5070996498134208,8.046225770558262,-0.753484035896245,-5.151989747077295,-7.682442243844887
7.256935604421948,1.455579752342648,8.0386909301993,-0.8303084583346939,-5.231118685325598,-7.413577711560786
7.271491401945375,1.403268565489392,8.030387845615953,-0.9044442354503017,-5.307928711728035,-7.151522660426072
7.285524087600269,1.3501892783721117,8.02134340326145,-0.9759594620545624,-5.383074847649048,-6.896295125951906
7.29902598038399,1.2963585298956213,8.011583808640905,-1.0449224133140815,-5.457149720137082,-6.647853685486944
7.311989565682946,1.2417870326942504,8.001134584507765,-1.111400950168951,-5.530685999911567,-6.406104301671904
7.3244074360098885,1.1864801726951346,7.990020575006076,-1.17546199318567,-5.6041588699857225,-6.170906814997217
7.33627223773684,1.1304385839952773,7.978265955074219,-1.2371710613356421,-5.67798847383926,-5.942081025443191
7.347576623576793,1.0736586992568846,7.965894244460863,-1.2965918715900742,-5.752542308034355,-5.719412318453949
7.358313210569362,1.0161332761765411,7.952928325744962,-1.3537859947746136,-5.828137538247898,-5.502656803235193
7.368474543331128,0.9578519007940621,7.939390465797215,-1.4088125628069654,-5.905043229575616,-5.291545942340657
7.3780530623390685,0.898801468498306,7.925302340169146,-1.461728022230372,-5.983482491359187,-5.085790661550951
7.387041077024052,0.8389666435847142,7.910685059946842,-1.5125859288458814,-6.0636345434206795,-4.885084938983631
7.395430743459899,0.7783302981505074,7.895559200658384,-1.5614367782357177,-6.14563671423089,-4.68910888297305
7.403214046441404,0.7168739310081984,7.879944832876027,-1.6083278670654482,-6.229586382046251,-4.497531320150303
7.4103827857514855,0.6545780671877359,7.863861554205372,-1.6533031802669511,-6.3155428674168705,-4.31001192874293
7.416928566423363,0.5914226385135672,7.8473285224027025,-1.6964032995543805,-6.403529279880176,-4.126202967505412
7.422842792808498,0.5273873457147655,7.830364489407159,-1.7376653292294346,-6.493534313528952,-3.9457506676282477
7.4281166662656455,0.462452002579476,7.812987836114864,-1.7771228359057172,-6.585513976156265,-3.76829637280812
7.43274118629144,0.39659686281791334,7.795216607755807,-1.8148057996337983,-6.679393225760914,-3.5934775303723883
7.4367071549196195,0.3298029305603042,7.77706854975947,-1.850740574937522,-6.775067477475663,-3.4209286526160354
7.440005184225223,0.2620522557855476,7.758561144010095,-1.8849498614636824,-6.872403934696739,-3.250282380837013
7.442625706783078,0.1933282164385802,7.739711645395458,-1.9174526852720526,-6.971242691566195,-3.0811707934687447
7.444558988947463,0.12361578952291825,7.720537118542738,-1.94826439320674,-7.0713975510326765,-2.913227102951718
7.445795146842692,0.05290181401259149,7.70105447461067,-1.9773966642362573,-7.172656504202489,-2.746087882734998
7.446324164982818,-0.0188247510294334,7.6812805079683075,-2.0048575430636073,-7.2747818228437975,-2.579395955824278
7.446135917472524,-0.09157256925787138,7.661231932537672,-2.03065150262185,-7.377509727434514,-2.412804060053633
7.445220191779945,-0.16534766653221653,7.640925417511453,-2.0547795432223865,-7.480549607223798,-2.2459793838811075
7.443566715114622,-0.24015316260445452,7.620377622079229,-2.0772393370611977,-7.583582785119269,-2.0786090416726655
7.441165183488578,-0.3159889904556472,7.599605228708618,-2.0980254274779244,-7.68626083722476,-1.910406531146028
7.4380052935840215,-0.3928515988278948,7.578624974433838,-2.1171294927893847,-7.788203492840938,-1.7411191899392926
7.434076777595743,-0.47073363375630417,7.557453679505945,-2.1345406846887776,-7.888996154139467,-1.5705366449208582
7.42936944125818,-0.5496235952976989,7.536108272659057,-2.150246051137986,-7.988187084306397,-1.3985002280952976
7.423873205305203,-0.6295054661407629,7.514605812147677,-2.164231053418939,-8.085284318006103,-1.2249133172625415
7.417578150643795,-0.7103583093208239,7.492963501613487,-2.1764801865915646,-8.179752348437832,-1.0497525475763618
7.410474567550587,-0.7921558328052022,7.471198699747571,-2.1869777120673284,-8.27100864156769,-0.873079830592418
7.402553009222535,-0.8748659192208791,7.449328922626898,-2.1957085103732528,-8.358420021443138,-0.6950551082985912
7.393804350030326,-0.9584501194353104,7.427371837523165,-2.2026590614562385,-8.441298962463192,-0.5159497583794874
7.384219848835973,-1.0428631090599423,7.405345246908603,-2.2078185590400334,-8.518899817115244,-0.33616055055577126
7.3737912177453735,-1.1280521072310947,7.383267061318203,-2.211180164545591,-8.59041500331537,-0.1562240289919053
7.362510696673063,-1.2139562572642484,7.361155259672747,-2.21274240483551,-8.654971176618613,0.023168840865184264
7.3503711341004205,-1.3005059690304346,7.3390278356243925,-2.2125107164268583,-8.711625421832029,0.20115797436439967
7.337366074410117,-1.387622223248755,7.316902728460124,-2.210499136683214,-8.75936151866602,0.3766997019146204
7.323489852177629,-1.4752158384354153,7.294797737093292,-2.206732139664068,-8.797086369690987,0.5485529096718348
7.308737693793275,-1.5631867021323251,7.2727304156966515,-2.20124661056735,-8.823626728611105,0.7152662752542988
7.293105826771952,-1.6514229694184361,7.250717949590978,-2.1940939478148067,-8.837726435019047,0.8751672264276736
7.2765915970777675,-1.7398002337686267,7.22877701011283,-2.18534227555053,-8.838044450050655,1.0263534153072353
7.259193594740081,-1.8281806782691332,7.206923587357324,-2.1750787413974573,-8.823154096338026,1.166687688800765
7.24091178795739,-1.9164122192325135,7.1851727999433495,-2.1634118645094498,-8.791544034218957,1.2937977430470433
7.221747665765064,-2.0043276595747033,7.163538681298255,-2.1504738870789795,-8.741621650461202,1.4050818664018827
7.201704389169317,-2.0917438760793154,7.1420339424274655,-2.1364230684149605,-8.671719688118298,1.4977223869874197
7.180786950408524,-2.1784610729604985,7.120669711743316,-2.1214458445450863,-8.580107093712376,1.568708624024186
7.159002339678919,-2.2642621438976223,7.099455253297865,-2.1057587583048445,-8.465005181467784,1.6148712646500052
7.136359718239943,-2.3489121957123,7.078397665714816,-2.0896100456583446,-8.324610287122047,1.6329301065525577
7.11287059628282,-2.4321582985835204,7.057501565258233,-2.073280744592819,-8.157124071665885,1.6195569678128567
7.088549013296984,-2.5137295393001793,7.036768757812305,-2.0570851749146906,-7.960792497632435,1.5714552069967507
7.063411717903983,-2.5933374642765035,7.016197906063158,-2.041370622844723,-7.733954193788989,1.485456654375702
