th1 (rad),w1 (rad/s),th2 (rad),w2 (rad/s),a1 (rad/s^2),a2 (rad/s^2)
0.8777614184667304,-1.9305264274361829,0.6647440487447838,2.1593547313097186,-10.458359409893609,4.9646793474019635
0.8584561541923685,-2.035110021535119,0.6863375960578809,2.209001524783738,-9.957884408906816,4.309750885125469
0.8381050539770174,-2.134688865624187,0.7084276113057183,2.252099033634993,-9.331604015374124,3.4662473972311476
0.8167581653207755,-2.2280049057779285,0.7309486016420682,2.2867615076073045,-8.577895613011055,2.4295240405926277
0.7944781162629962,-2.313783861908039,0.7538162167181413,2.3110567480132307,-7.704560832697657,1.208444263354292
0.7713402776439159,-2.3908294702350155,0.7769267841982735,2.3231411906467736,-6.730217546838479,-0.17251499226261266
0.7474319829415658,-2.4581316457034004,0.8001581961047413,2.3214160407241473,-5.6840499015918295,-1.6734648351780976
0.7228506664845318,-2.5149721447193185,0.8233723565119827,2.304681392372366,-4.603519619361923,-3.242192322783693
0.6977009450373386,-2.561007340912938,0.8464191704357064,2.272259469144529,-3.530219090650395,-4.819904119190708
0.6720908716282092,-2.596309531819442,0.8691417651271517,2.224060427952622,-2.5046955556332455,-6.348478057595098
0.6461277763100148,-2.6213564873757744,0.8913823694066779,2.160575647376671,-1.5614813848131894,-7.7774930450674935
0.6199142114362571,-2.636971301223906,0.9129881258804446,2.082800716925996,-0.725501006406629,-9.06938419045347
0.593544498424018,-2.6442263112879725,0.9338161330497046,1.9921068750214614,-0.01051778574058074,-10.201771058102807
0.5671022353111383,-2.644331489145378,0.9537372017999192,1.8900891644404334,0.5803983315636486,-11.16696052910328
0.5406589204196846,-2.6385275058297415,0.9726380934443235,1.7784195591494005,1.052939092954892,-11.96938288456223
0.5142736453613871,-2.6279981149001927,0.9904222890358175,1.6587257303037783,1.4189335601498714,-12.62202868207325
0.48799366421238516,-2.613808779298694,1.0070095463388553,1.5325054434830458,1.6937162293468004,-13.142841834234257
0.46185557641939823,-2.596871617005226,1.0223346007736858,1.4010770251407032,1.8939265952740074,-13.5516862269503
0.435886860249346,-2.5779323510524863,1.0363453710250927,1.2655601628712,2.0359186961749702,-13.868142391944362
0.4101075367388211,-2.5575731640907367,1.0490009726538048,1.1268787389517565,2.134769167352674,-14.11012591211459
0.38453180509791374,-2.5362254724172097,1.0602697600433224,0.9857774798306106,2.203772107820104,-14.293178375733463
0.35916955037374165,-2.5141877513390085,1.0701275348416286,0.842845696073276,2.2542797891152784,-14.430239304539406
0.33402767286035157,-2.4916449534478557,1.0785559918023613,0.6985433030278819,2.2957604402671223,-14.531722950989835
0.309111223325873,-2.4686873490451844,1.08554142483264,0.5532260735179836,2.335973518289563,-14.605763241806224
0.28442434983542114,-2.445327613862289,1.0910736855678198,0.40716844109992134,2.381193957488642,-14.658532496417138
0.2599710736967983,-2.421515674287402,1.095145369978819,0.26058311613574997,2.436442901109055,-14.69457510615203
0.23575591695392425,-2.3971512452763117,1.0977512011401764,0.11363736507422967,2.505701452797775,-14.717123408377741
0.21178440450116115,-2.372094230748334,1.0988875747909188,-0.033533869009547745,2.5920966391291795,-14.728380295741324
0.1880634621936778,-2.3461732643570423,1.0985522361008233,-0.180817671966961,2.6980565106067704,-14.729763649891849
0.16460172955010738,-2.3191926992509746,1.0967440593811537,-0.3281153084658795,2.825435629033707,-14.722113536731628
0.14140980255759764,-2.2909383429606374,1.093462906296495,-0.4753364438331958,2.9756143144344285,-14.705865923204636
0.11850041912799127,-2.261182199816293,1.088709541858163,-0.6223951030652422,3.149575833373684,-14.681197685192815
0.09588859712982833,-2.2296864414825563,1.0824855908275106,-0.7692070799171703,3.3479657858224017,-14.648147680242559
0.07359173271500277,-2.196206783624332,1.074793520028339,-0.9156885567195959,3.571137652591042,-14.606718164192634
0.051629664878759446,-2.1604954070984217,1.065636634461143,-1.0617557383615224,3.819188011962443,-14.556960137516832
0.030024710807775228,-2.122303526978797,1.0550190770775278,-1.2073253397366908,4.091984437688583,-14.499045482472784
0.008801675537987257,-2.081383682601911,1.042945823680161,-1.3523157945614186,4.389188606834335,-14.433328081323811
-0.012012161288031856,-2.0374917965335677,1.0294226657345469,-1.4966490753746566,4.71027669634805,-14.360395526026544
-0.032387079253367534,-1.9903890295700872,1.0144561749808003,-1.6402530306349221,5.054558733856873,-14.281112550257896
-0.05229096954906841,-1.9398434422315185,0.9980536446744511,-1.7830641561375011,5.421198183132372,-14.196656929229837
-0.0716894039713836,-1.8856314604001947,0.9802230031130761,-1.9250307254297996,5.809232674996441,-14.108548285819323
-0.09054571857538554,-1.8275391336502302,0.9609726958587781,-2.0661162082879927,6.217596424381625,-14.018669990877875
-0.10882110991188784,-1.765363169406414,0.9403115337758982,-2.2063029081967716,6.645144485659804,-13.929284122512787
-0.12647474160595198,-1.698911724549816,0.9182485046939305,-2.3455957494218995,7.090678569593691,-13.843039216966865
-0.14346385885145013,-1.628004938853879,0.8947925471997115,-2.4840261415915683,7.552973648912841,-13.762970254533965
-0.15974390823998894,-1.5524752023647506,0.8699522857837958,-2.621655844136908,8.030803978476705,-13.692489913487938
-0.17526866026363644,-1.4721671625799835,0.8437357273424267,-2.7585807432717875,8.522966397832432,-13.635369505289571
-0.18999033188943626,-1.3869374986016592,0.8161499199097089,-2.8949344383246833,9.028297792844581,-13.595707052999172
-0.20385970687545285,-1.2966545206732134,0.787200575526462,-3.0308915088546753,9.545682258394669,-13.577878520014995
-0.21682625208218498,-1.2011976980892667,0.7568916604379153,-3.1666702940548253,10.074041665295498,-13.58646599568746
-0.22883822906307766,-1.1004572814363116,0.725224957497367,-3.3025349540117,10.612300760794389,-13.626153357103872
-0.23984280187744078,-0.9943342738283677,0.69219960795725,-3.4387964875827386,11.159314298007304,-13.70157507725987
-0.24978614461572446,-0.8827411308482946,0.6578116430814226,-3.5758122383553372,11.713738549641395,-13.817096790019493
-0.25861355592420743,-0.7656037453518807,0.6220535206978692,-3.713983206255532,12.273822332521513,-13.97649609815984
-0.2662695933777262,-0.6428655220266656,0.5849136886353139,-3.8537481672371303,12.837082649546797,-14.182497875971888
-0.27269824859799285,-0.5144946955311976,0.5463762069629426,-3.995573145996849,13.399816535521373,-14.436098867272868
-0.27784319555330483,-0.38049653017598395,0.5064204755029742,-4.139934134669578,13.956383290302014,-14.735590979565343
-0.28164816085506467,-0.2409326972729638,0.46502113415627844,-4.287290044465231,14.498170752321268,-15.075162041424074
-0.28405748782779433,-0.09595098974975111,0.42214823371162613,-4.438041664879472,15.012139270008392,-15.44292148318411
-0.2850169977252918,0.05417040295033282,0.3777678170628314,-4.592470879711312,15.478827678345558,-15.818179681537462
-0.2844752936957885,0.2089586797337884,0.3318431082657183,-4.750652676526687,15.869729904170192,-16.167834498745435
-0.2823857068984506,0.36765597877549033,0.2843365815004514,-4.912331021514141,16.14405505077844,-16.44184989763403
-0.2787091471106957,0.5290965292832748,0.23521327128530997,-5.076749520490481,16.245149980041493,-16.568162601623676
-0.273418181817863,0.6915480290836897,0.18444577608040516,-5.242431146506718,16.09741352918855,-16.44809408200255
-0.2665027015270261,0.8525221643755753,0.13202146461533798,-5.406912087326743,15.605490175922968,-15.954655221142858
-0.25797747988327036,1.008577066134805,0.07795234374207055,-5.566458639538172,14.658874460760993,-14.937990751948199
-0.2478917092219223,1.155165810742415,0.022287757346688836,-5.715838547057654,13.146257338470313,-13.243912027173744
-0.23634005111449816,1.286628384127118,-0.034870628123887706,-5.848277667329391,10.983460665002832,-10.750905158965873
-0.223473767273227,1.3964629907771464,-0.09335340479718163,-5.95578671891905,8.15405731917794,-7.4246235321208065
-0.2095091373654555,1.4780035639689257,-0.15291127198637214,-6.030032954240259,4.7511405638639115,-3.374407065456038
-0.19472910172576624,1.525514969607565,-0.21321160152877472,-6.063777024894819,0.996395947588304,1.1204628593641148
-0.1794739520296906,1.535478929083448,-0.2738493717777229,-6.052572396301177,-2.7882898529561664,5.648365924031064
-0.16411916273885613,1.5075960305538865,-0.33437509574073465,-5.996088737060867,-6.258883613436685,9.769641437076668
-0.14904320243331726,1.4450071944195195,-0.3943359831113433,-5.8983923226901,-9.143321046407625,13.141802239018983
-0.13459313048912205,1.3535739839554433,-0.4533199063382443,-5.76697430029991,-11.302711870711367,15.5995096984723
-0.12105739064956762,1.2405468652483296,-0.5109896493412434,-5.610979203315186,-12.734452386871693,17.156134388363867
-0.10865192199708433,1.1132023413796126,-0.5670994413743953,-5.439417859431548,-13.531123584658594,17.946773414344793
-0.0975198985832882,0.9778911055330266,-0.6214936199687108,-5.2599501252881,-13.827551777001249,18.156915308374067
-0.08774098752795793,0.8396155877630141,-0.6740931212215918,-5.078380972204359,-13.760033962119582,17.968744642030607
-0.0793448316503278,0.7020152481418183,-0.7248769309436354,-4.8986935257840525,-13.44462378356628,17.533613227882302
-0.07232467916890961,0.5675690103061555,-0.7738638662014758,-4.723357393505229,-12.970461507162444,16.964645711500395
-0.06664898906584805,0.437864395234531,-0.8210974401365282,-4.5537109363902255,-12.401462639436122,16.340190483869176
-0.06227034511350275,0.3138497688401698,-0.8666345495004304,-4.390309031551534,-11.78122916235604,15.711173510230743
-0.059131847425101046,0.1960374772166094,-0.9105376398159457,-4.233197296449227,-11.138345063317658,15.108626186387168
-0.05717147265293495,0.08465402658343284,-0.952869612780438,-4.082111034585355,-10.490879691304077,14.549918374411702
-0.056324932387100624,-0.02025477032960793,-0.9936907231262916,-3.9366118508412384,-9.849817313386218,14.043412433103406
-0.0565274800903967,-0.11875294346347011,-1.033056841634704,-3.7961777265102046,-9.221511289555403,13.591736221314838
-0.057715009525031405,-0.21096805635902416,-1.0710186188998059,-3.660260364297056,-8.609373250529902,13.193998614888558
-0.059824690088621645,-0.2970617888643232,-1.1076212225427764,-3.5283203781481705,-8.01500516316471,12.84724999054744
-0.06279530797726487,-0.37721184049597034,-1.142904426324258,-3.399847878242696,-7.438942517703896,12.547425528153331
-0.06656742638222458,-0.4516012656730093,-1.176902905106685,-3.274373622961163,-6.881133007283238,12.289943522373502
-0.07108343903895467,-0.5204125957458416,-1.2096466413362967,-3.1514741877374277,-6.34123827841519,12.070077708320126
-0.0762875649964131,-0.5838249785299936,-1.241161383213671,-3.0307734106542266,-5.818818720221876,11.883183551439064
-0.08212581478171303,-0.6420131657322123,-1.2714691173202133,-2.911941575139836,-5.313441684759504,11.724831231626922
-0.08854594643903516,-0.6951475825798074,-1.3005885330716116,-2.7946932628235666,-4.824740088741519,11.590879648563707
-0.09549742226483322,-0.7433949834672225,-1.3285354656998472,-2.6787844663379294,-4.35243928536726,11.477513566247149
-0.10293137209950545,-0.7869193763208951,-1.3553233103632265,-2.564009330675458,-3.896364049237642,11.38125801531019
-0.1108005658627144,-0.8258830168132716,-1.3809634036699812,-2.4501967505223563,-3.4564335042155414,11.298978877905169
-0.11905939603084711,-0.860447351855427,-1.4054653711752048,-2.3372069617433047,-3.0326491638800337,11.227875233965134
-0.1276638695494014,-0.8907738434942273,-1.4288374407926379,-2.2249282094036533,-2.6250794882759876,11.165466909603591
-0.13657160798434367,-0.9170246383769871,-1.4510867228866744,-2.1132735403076173,-2.2338431839113233,11.109579315832093
-0.14574185436811354,-0.9393630702161003,-1.4722194582897505,-2.0021777471492963,-1.8590926852758338,11.058326821563064
-0.15513548507027455,-0.9579539970688586,-1.4922412357612436,-1.8915944789336656,-1.500998723650098,11.01009538785407
-0.16471502504096314,-0.9729639843053596,-1.5111571805505801,-1.781493525055125,-1.1597365264127821,10.963524882254719
-0.17444466488401672,-0.9845613495694874,-1.5289721158011313,-1.6718582762325778,-0.8354739411507571,10.91749131577489
-0.1842902783797116,-0.9929160889809949,-1.545690698563457,-1.562683363074829,-0.5283616068799443,10.871089150138697
-0.19421943926952154,-0.9981997050497944,-1.5613175321942054,-1.453972471573442,-0.2385251755514657,10.82361377699195
-0.20420143632001947,-1.0005849568053091,-1.5758572569099398,-1.3457363338035224,0.03394049506679629,10.774544252561753
-0.21420728588807256,-1.0002455518546411,-1.589314620247975,-1.237990891277905,0.2889753115817217,10.723526367549274
-0.22420974140661898,-0.997355798738824,-1.601694529160754,-1.1307556276024122,0.5265562487697193,10.67035613446045
-0.23418329939400723,-0.9920902362511268,-1.6130020854367781,-1.0240520662578076,0.7466981790304708,10.614963778184888
-0.2441042017565185,-0.9846232544608221,-1.6232426060993561,-0.9179024284759587,0.9494534300233292,10.557398317668293
-0.25395043430112674,-0.9751287201605888,-1.6324216303841157,-0.8123284452992758,1.134910275016562,10.497812825673513
-0.26370172150273263,-0.9637796174104232,-1.6405449148371085,-0.7073503170425407,1.3031905560308534,10.436450449490486
-0.27333951767683684,-0.9507477118501146,-1.647618418007534,-0.6029858125476358,1.4544466305642285,10.373631268193629
-0.282846994795338,-0.9362032455444723,-1.6536482761330102,-0.49924949986569955,1.5888578198769625,10.309740052129216
-0.2922090272507827,-0.9203146673457027,-1.6586407711316673,-0.39615209934440737,1.7066265216151981,10.245214978362688
-0.3014121739242397,-0.9032484021295507,-1.6626022921251113,-0.2936999495607805,1.8079741329196102,10.180537342479786
-0.3104446579455352,-0.8851686608003546,-1.6655392916207192,-0.19189457613598263,1.8931369129218223,10.116222293026134
-0.3192963445535388,-0.8662372916711364,-1.667458237382079,-0.09073235320572129,1.962361896380187,10.052810600509329
-0.3279587174702501,-0.8466136727073346,-1.6683655609141361,0.009795752799372004,2.015902953750841,9.990861458676969
-0.3364248541973235,-0.8264546431698262,-1.6682676033861423,0.1097043673861417,2.0540170777471576,9.930946301987653
-0.34468940062902176,-0.8059144723923546,-1.667170559712281,0.20901383040601823,2.076960962861683,9.873643609925928
-0.3527485453529453,-0.7851448627637377,-1.6650804214082209,0.3077502665052775,2.0849879328127563,9.819534656037835
-0.3605999939805827,-0.7642949834356102,-1.6620029187431682,0.4059456130656558,2.078345261813894,9.769200147080962
-0.3682429438149388,-0.7435115308174712,-1.6579434626125116,0.5036376145364654,2.0572719293327366,9.723217685119478
-0.3756780591231135,-0.7229388115241439,-1.652907086467147,0.6008697913876602,2.021996845030959,9.682159972192087
-0.3829074472383549,-0.7027188430738343,-1.6468983885532702,0.697691391109581,1.9727375813572692,9.646593662566668
-0.38993463566909325,-0.6829914672602616,-1.6399214746421744,0.7941573277352477,1.9096996564281774,9.61707875054764
-0.3967645503416959,-0.6638944706959798,-1.631979901364822,0.8903281152407241,1.8330764201846559,9.594168360992091
-0.4034034950486557,-0.6455637064941333,-1.6230766202124147,0.986269798850645,1.7430496134221707,9.578408783406374
-0.40985913211359704,-0.6281332103599115,-1.6132139222239084,1.0820538866847087,1.6397906935679505,9.570339556534888
-0.41614046421719614,-0.611735303424232,-1.6023933833570612,1.1777572822500575,1.523463054891446,9.57049336588347
-0.42225781725143846,-0.5965006728753175,-1.5906158105345607,1.2734622159088922,1.394225316649808,9.579395457991682
-0.4282228239801916,-0.5825584197088194,-1.5778811883754718,1.369256170488809,1.2522359137298544,9.59756219777209
-0.4340484081772798,-0.5700360605715209,-1.5641886266705836,1.46523179246653,1.0976593048776948,9.625498292804316
-0.439748768782995,-0.5590594675227439,-1.5495363087459182,1.5614867753945731,0.9306742190712814,9.663692073309424
-0.44533936345822245,-0.5497527253320311,-1.5339214409919724,1.6581236961276673,0.7514844979827947,9.712608038674459
-0.45083689071154276,-0.5422378803522032,-1.5173402040306956,1.755249776514412,0.5603332706214316,9.772675648241522
-0.4562592695150648,-0.536634547645989,-1.4997877062655514,1.852976532996827,0.35752142607156,9.844273029904379
-0.46162561499152466,-0.5330593333852733,-1.481257940935583,1.951419263295871,0.1434316449150336,9.927703885716605
-0.4669562083253774,-0.531625016936123,-1.4617437483026243,2.050696302153037,-0.08144037533095946,10.023165366684188
-0.4722724584947386,-0.5324394206894325,-1.441236785281094,2.150927955819879,-0.31644539422143747,10.130704044211416
-0.47759685270163293,-0.5356038746316469,-1.419727505722895,2.2522349962619934,-0.5607281122279093,10.250156298449292
-0.4829528914479494,-0.541211155753926,-1.3972051557602752,2.3547365592464864,-0.813159270029114,10.381068455063273
-0.48836500300548863,-0.5493427484542172,-1.3736577901678102,2.458547243797119,-1.0722481467344727,10.522590829739492
-0.4938584304900308,-0.5600652299215619,-1.349072317729839,2.563773152094514,-1.3360303352740963,10.67333851973313
-0.49945908278924644,-0.5734255332743029,-1.3234345862088939,2.6705065372918453,-1.601924775748433,10.83121042303792
-0.5051933381219895,-0.5894447810317872,-1.2967295208359755,2.7788186415222245,-1.8665533299566988,10.993156810757798
-0.5110877859323074,-0.6081103143313542,-1.2689413344207532,2.8887502096298023,-2.1255160458292273,11.154885298133465
-0.517168889075621,-0.6293654747896464,-1.2400538323244552,3.0002990626111368,-2.3731163279048366,11.310496097850349
-0.5234625438235174,-0.6530966380686948,-1.2100508416983438,3.11340402358964,-2.602033557343913,11.452041410898982
-0.5299935102042044,-0.6791169736421339,-1.1789168014624474,3.22792443769863,-2.8029479409250992,11.569012944162917
-0.5367846799406257,-0.7071464530513849,-1.146637557085461,3.3436145671402593,-2.964135898978652,11.64777909738387
-0.5438561444711396,-0.7367878120411714,-1.1132014114140585,3.460092358114098,-3.0710772304882945,11.671023617968462
-0.5512240225915513,-0.7674985843460543,-1.0786004878329174,3.5768025942937824,-3.106150949310414,11.617285152822154
-0.5588990084350118,-0.7985600938391585,-1.0428324618899796,3.692975445822004,-3.0485471175396146,11.460765176574197
-0.5668846093734035,-0.8290455650145546,-1.0059027074317595,3.807583097587746,-2.8745846775777526,11.17165718409875
-0.575175065023549,-0.8577914117903321,-0.9678268764558821,3.9192996694287334,-2.5586873232120055,10.717335750872081
-0.5837529791414523,-0.8833782850224522,-0.9286338797615947,4.026473026937454,-2.0752999366976965,10.064788453256046
-0.5925867619916768,-0.9041312843894291,-0.8883691494922202,4.127120911470015,-1.4019725113944224,9.184602650379631
-0.6016280748355711,-0.9181510095033734,-0.8470979403775201,4.218966937973811,-0.5236253506381678,8.056535252335118
-0.6108095849306049,-0.923387263009755,-0.804908270997782,4.299532290497162,0.5624147159680981,6.676123437024568
-0.6200434575607024,-0.9177631158500741,-0.7619129480928103,4.366293524867407,1.8416152955614242,5.060987603611852
-0.6292210887192032,-0.8993469628944598,-0.7182500128441363,4.416903400903526,3.279245577945311,3.2547219871966386
-0.6382145583481479,-0.8665545071150067,-0.674080978835101,4.449450620775492,4.820891451717762,1.326095688052239
-0.6468801034192979,-0.8183455925978291,-0.629586472627346,4.462711577656014,6.397499876432189,-0.6377804894051499
-0.6550635593452762,-0.7543705938335072,-0.5849593568507858,4.456333772761963,7.9344648935684905,-2.5436155264489937
-0.6626072652836112,-0.6750259448978223,-0.5403960191231661,4.430897617497473,9.362544543964045,-4.306401149490934
-0.6693575247325895,-0.5814004994581818,-0.4960870429481914,4.387833606002563,10.627462795800968,-5.861924813107294
-0.6751715297271713,-0.47512587150017216,-0.4522087068881658,4.32921435787149,11.6955585148467,-7.173827941233053
