th1 (rad),w1 (rad/s),th2 (rad),w2 (rad/s),a1 (rad/s^2),a2 (rad/s^2)
1.6916533854376272,-2.089919101210242,1.001244620019884,-1.081715547230946,-11.371711759910866,3.2960478745937887
1.6707541944255249,-2.2036362188093506,0.9904274645475745,-1.0487550684850082,-11.605529244396191,3.8810661300712015
1.6487178322374314,-2.3196915112533123,0.9799399138627244,-1.0099444071842962,-11.84977885729123,4.494902266200886
1.6255209171248983,-2.4381892998262247,0.9698404697908815,-0.9649953845222874,-12.104751060716417,5.136148922739322
1.6011390241266361,-2.5592368104333887,0.9601905159456586,-0.9136338952948941,-12.370540511802053,5.802626401658683
1.5755466560223021,-2.6829422155514093,0.9510541769927097,-0.8556076312783073,-12.646893249534378,6.491113007033118
1.548717233866788,-2.809411148046753,0.9424981006799266,-0.7906965012079761,-12.93298954479278,7.196983202075887
1.5206231223863205,-2.9387410434946806,0.9345911356678468,-0.7187266691872172,-13.22714132415804,7.913724689021491
1.4912357119513737,-3.071012456736261,0.9274038689759746,-0.6395894222970022,-13.526378568918478,8.632299775609601
1.460525587384011,-3.206276242425446,0.9210079747530046,-0.5532664245409062,-13.825895688283492,9.340312647277775
1.4284628249597566,-3.3445351993082806,0.9154753105075955,-0.4598632980681285,-14.118329046531315,10.020946151512744
1.3950174729666738,-3.4857184897735936,0.9108766775269141,-0.35965383655300104,-14.39284522204684,10.651646287222269
1.3601602880689379,-3.629646941994062,0.9072801391613842,-0.2531373736807784,-14.634044136387804,11.20257139626508
1.3238638186489973,-3.77598738335794,0.9047487654245764,-0.14111165971812756,-14.820734249659292,11.634903914740294
1.286103944815418,-3.924194725854533,0.9033376488273951,-0.02476262057072462,-14.924735179004186,11.899269171925063
1.2468619975568727,-4.073442077644574,0.9030900226216878,0.09423007114852601,-14.910023224894113,11.934741678925366
1.206127576780427,-4.222542309893515,0.9040323233331731,0.21357748793777967,-14.732761687825866,11.66924921902176
1.1639021536814917,-4.3698699267717735,0.9061680982125508,0.33026998012799724,-14.343014351101413,11.022553976313713
1.120203454413774,-4.513300070282788,0.9094707980138308,0.4404955198911344,-13.6891061805837,9.91321988571571
1.0750704537109461,-4.650191132088625,0.9138757532127422,0.5396277187482915,-12.725424816100597,8.270708689894118
1.02856854239006,-4.777445380249631,0.9192720304002251,0.6223348056472326,-11.4236131746796,6.052495804354176
0.9807940885875636,-4.891681511996427,0.9254953784566974,0.6828597636907744,-9.785378316814482,3.263559847820729
0.9318772734675993,-4.989535295164572,0.9323239760936052,0.7154953621689817,-7.8529000078845925,-0.027691486304280272
0.8819819205159536,-5.068064295243418,0.939478929715295,0.7152184473059389,-5.711389285594499,-3.685118295330416
0.8313012775635195,-5.125178188099363,0.9466311141883544,0.6783672643526347,-3.4795986783401873,-7.518448781058084
0.7800494956825258,-5.159974174882764,0.9534147868318807,0.6031827765420539,-1.2887773045233253,-11.314254234917476
0.7284497539336982,-5.172861947927998,0.9594466145973013,0.4900402341928791,0.7434190584691768,-14.874944440397893
0.6767211344544182,-5.165427757343306,0.9643470169392301,0.34129078978890015,2.534445768954514,-18.051718417615284
0.6250668568809851,-5.14008329965376,0.967759924837119,0.1607736056127473,4.046626027491194,-20.76070537687081
0.5736660238844474,-5.099617039378848,0.9693676608932466,-0.0468334481559608,5.284108228369138,-22.980358325073798
0.522669853490659,-5.046775957095156,0.968899326411687,-0.2766370314066988,6.281367742061257,-24.736074586452197
0.4722020939197074,-4.983962279674544,0.96613295609762,-0.5239977772712208,7.089285374016771,-26.080695554738572
0.422362471122962,-4.913069425934376,0.9608929783249077,-0.7848047328186065,7.763278198511576,-27.077488917184077
0.37323177686361825,-4.83543664394926,0.9530449309967216,-1.0555796219904474,8.355339993572972,-27.78851626811595
0.32487741042412566,-4.75188324401353,0.9424891347768172,-1.333464784671607,8.909858727571406,-28.2683918829284
0.27735857798399033,-4.6627846567378155,0.929154486930101,-1.616148703500891,9.462184372705783,-28.562073965712468
0.23073073141661216,-4.568162813010757,0.9129929998950922,-1.9017694431580157,10.038826642964374,-28.70511949389538
0.1850491032865046,-4.467774546581114,0.893975305463512,-2.1888206380969697,10.658426393537013,-28.72516106252322
0.14037135782069343,-4.361190282645744,0.8720870990825423,-2.4760722487222018,11.332968156684657,-28.643801149126645
0.096759454994236,-4.247860601078897,0.8473263765953203,-2.7625102602134683,12.068956813929443,-28.478475874012936
0.054280848983447025,-4.127171032939603,0.8197012739931856,-3.047295018953598,12.868444460730055,-28.244074993095666
0.013009138654050997,-3.998486588332302,0.7892283238036496,-3.3297357688845546,13.729881476173635,-27.95423778214022
-0.026975727229272023,-3.861187773570566,0.755930966114804,-3.609278146705957,14.648803819654132,-27.622309148556305
-0.06558760496497767,-3.7146997353740248,0.7198381846477445,-3.88550123819152,15.618376859941705,-27.261964452789787
-0.10273460231871792,-3.558515966774608,0.6809831722658293,-4.158120882719418,16.629807579167398,-26.887513020732424
-0.138319761986464,-3.3922178909829337,0.6394019634386351,-4.426996012926742,17.6726188212046,-26.51387862106772
-0.17224194089629336,-3.215491702770888,0.5951320033093677,-4.69213479913742,18.734754315834312,-26.15623367573327
-0.20439685792400225,-3.0281441596125447,0.5482106553179935,-4.953697135894752,19.802451820378995,-25.829232050478822
-0.2346782995201277,-2.830119641408755,0.498673683959046,-5.21198945639954,20.859782627314765,-25.545739801818968
-0.26297949593421527,-2.621521815135607,0.4465537893950506,-5.46744685441773,21.887707208093214,-25.31490016824484
-0.28919471408557135,-2.4026447430546747,0.3918793208508733,-5.720595856100179,22.862438916207104,-25.13928625128465
-0.3132211615161181,-2.1740203538926037,0.3346733622898715,-5.971988718613025,23.752847035562194,-25.010798540225778
-0.33496136505504415,-1.9364918835369818,0.27495347510374124,-6.222096704015282,24.516591000689083,-24.90488404209509
-0.354326283890414,-1.691325973530091,0.21273250806358843,-6.471145544436233,25.09472274013527,-24.772671837931366
-0.3712395436257149,-1.4403787461287383,0.1480210526192261,-6.718872262815546,25.404765917146783,-24.530926774916264
-0.3856433310870023,-1.1863310869572705,0.08083232999107064,-6.9641815305647095,25.333054121910198,-24.05069408193103
-0.397506641956575,-0.9330005457381685,0.011190514685423536,-7.20468847138402,24.72881755939523,-23.147746345927224
-0.40683664741395664,-0.6857123701442162,-0.060856370028416665,-7.4361659348432925,23.405575946715583,-21.582072715341244
-0.4136937711153988,-0.4516566106770603,-0.1352180293768496,-7.6519866619967045,21.15951365967054,-19.079328877114406
-0.4182103372221694,-0.2400614740803549,-0.21173789599681664,-7.842779950767849,17.81690391803609,-15.390729532831362
-0.42061095196297293,-0.06189243489999399,-0.2901656955044951,-7.996687246096163,13.316108206565344,-10.399586047811049
-0.4212298763119729,0.07126864716565945,-0.37013256796545674,-8.100683106574273,7.805192778401436,-4.250222541402354
-0.4205171898403163,0.14932057494967382,-0.4511393990311995,-8.143185331988297,1.6980884490173878,2.5761042767580156
-0.41902398409081953,0.1663014594398477,-0.5325712523510825,-8.117424289220716,-4.381988800208665,9.332855816637467
-0.41736096949642104,0.12248157143776105,-0.6137454952432897,-8.024095731054341,-9.784468145351465,15.24347029397954
-0.41613615378204344,0.024636889984246402,-0.6939864525538331,-7.871661028114546,-14.044186278530727,19.77386548101704
-0.41588978488220096,-0.11580497280106086,-0.7727030628349785,-7.673922373304375,-16.992377177469024,22.767908801838935
-0.41704783461021155,-0.2857287445757511,-0.8494422865680222,-7.446243285285986,-18.720778742950422,24.39096220109369
-0.4199051220559691,-0.4729365320052553,-0.923904719420882,-7.2023336632750485,-19.463836306729355,24.971700395455084
-0.4246344873760216,-0.6675748950725489,-0.9959280560536325,-6.952616659320498,-19.48676908236093,24.858075497720495
-0.4313102363267471,-0.8624425858961582,-1.0654542226468375,-6.704035904343293,-19.02070072184711,24.338464572067995
-0.43993466218570865,-1.0526495931146294,-1.1324945816902705,-6.460651258622613,-18.24112676693779,23.619782897961315
-0.45046115811685494,-1.2350608607840072,-1.1971010942764966,-6.224453429642999,-17.270711566855372,22.83592124599404
-0.46281176672469504,-1.407767976452561,-1.2593456285729265,-5.9960942171830585,-16.190852194028214,22.065857127814393
-0.47688944648922066,-1.569676498392843,-1.319306570744757,-5.775435645904914,-15.053842167473897,21.351158789199225
-0.49258621147314907,-1.720214920067582,-1.3770609272038064,-5.561924058012922,-13.89267433229156,20.709529765015585
-0.5097883606738249,-1.8591416633904976,-1.4326801677839356,-5.354828760362766,-12.728053489116334,20.144238537284682
-0.5283797773077299,-1.986422198281661,-1.4862284553875633,-5.153386374989919,-11.573090221896488,19.650306387136315
-0.5482439992905465,-2.102153100500626,-1.5377623191374625,-4.956883311118556,-10.436310335412548,19.218423343827318
-0.5692655302955527,-2.2065162038547514,-1.5873311522486482,-4.764699077680283,-9.32352125730021,18.837366017974627
-0.5913306923341002,-2.2997514164277537,-1.634978143025451,-4.576325417500537,-8.238932854557234,18.49546048041818
-0.6143282064983777,-2.382140744973326,-1.6807413972004563,-4.391370812696355,-7.185804759106464,18.181447516348953
-0.638149613948111,-2.4539987925643905,-1.72465510532742,-4.209556337532866,-6.166799870060986,17.88497688262414
-0.6626896018737549,-2.515666791265,-1.7667506687027486,-4.030706568706624,-5.184160386837964,17.596871270418106
-0.687846269786405,-2.56750839513338,-1.8070577343898149,-3.8547378560024432,-4.239780869548901,17.30924634503606
-0.7135213537377387,-2.609906203828869,-1.8456051129498392,-3.6816453925520825,-3.3352255793502255,17.015539739736912
-0.7396204157760274,-2.643258459622371,-1.88242156687536,-3.5114899951547134,-2.471719688890358,16.710481606881228
-0.7660530003722511,-2.667975656511275,-1.9175364668269073,-3.344385179085901,-1.650132468609564,16.390027234948775
-0.7927327569373639,-2.6844769811973705,-1.9509803186177663,-3.1804849067364134,-0.8709630442091988,16.051265100444333
-0.8195775267493376,-2.6931866116394625,-1.9827851676851305,-3.01997225573197,-0.13433438729602795,15.692309522926733
-0.8465093928657322,-2.6945299555124227,-2.0129848902424503,-2.8630491605027024,0.56000203325395,15.312184588731999
-0.8734546924208565,-2.688929935179883,-2.0416153818474774,-2.7099273146153826,1.212650602003926,14.910704454645572
-0.9003439917726553,-2.676803429159844,-2.0687146549936313,-2.560820270068927,1.8245458751517833,14.488354094815357
-0.9271120260642538,-2.658557970408326,-2.0943228576943205,-2.4159367291207734,2.396918582442764,14.046173762041795
-0.9536976057683371,-2.6345887845838987,-2.118482224985528,-2.2754749915003556,2.9312553905003886,13.585649765279978
-0.9800434936141761,-2.6052762306788946,-2.1412369749005316,-2.1396184938475558,3.4292545941989063,13.108613556313056
-1.006096255920965,-2.5709836847369054,-2.162633159839007,-2.008532358284425,3.8927798062248127,12.617150548129382
-1.0318060927683341,-2.5320558866746574,-2.1827184834218514,-1.8823608528031313,4.323813499697444,12.113519554902716
-1.0571266516350808,-2.488817751677683,-2.2015420919498827,-1.761225657254104,4.724411975846697,11.600083257342945
-1.0820148291518576,-2.441573631919216,-2.219154348522424,-1.6452248246806747,5.096663017168407,11.079249668445126
-1.1064305654710498,-2.390607001747532,-2.2356065967692307,-1.5344323279962233,5.442647174797806,10.553424212414665
-1.1303366354885251,-2.336180529999554,-2.250950920049193,-1.4288980858720766,5.76440334695484,10.024971739240357
-1.1536984407885207,-2.278536496530006,-2.2652399009079134,-1.328648368479673,6.063899045814744,9.496187580352148
-1.1764838057538207,-2.2178975060718584,-2.27852638459271,-1.2336864926761515,6.3430055296762635,8.969276604568936
-1.1986627808145394,-2.154467450775096,-2.2908632495194716,-1.143993726630462,6.603477797807184,8.446339152609864
-1.2202074553222904,-2.088432672797024,-2.3023031867857764,-1.0595303351043635,6.846939305375262,7.929362705179949
-1.2410917820502605,-2.0199632797432714,-2.31289849013682,-0.9802367080525639,7.074871151636215,7.420218165170524
-1.2612914148476932,-1.9492145682269093,-2.3227008572173458,-0.9060345264008587,7.288605420924882,6.920659699462935
-1.2807835605299625,-1.8763285140176604,-2.3317612024813545,-0.8368279294062293,7.489322307331684,6.432327180887161
-1.2995468456701391,-1.8014352909443436,-2.340129481775417,-0.7725046575973576,7.678050624711671,5.9567503872193335
-1.3175611985795825,-1.7246547846972269,-2.3478545283513905,-0.7129371537251643,7.855671288917475,5.495354243540672
-1.3348077464265549,-1.6460980718080522,-2.354983899888642,-0.6579836112897576,8.022923354802966,5.0494645294536245
-1.3512687271446353,-1.5658688382600225,-2.3615637360015396,-0.6074889659952213,8.180412193570934,4.62031360701621
-1.3669274155272355,-1.4840647163243132,-2.367638625661492,-0.5612858299250592,8.328619404435312,4.209045853107504
-1.3817680626904787,-1.40077852227996,-2.3732514839607424,-0.5191953713939841,8.467914067268802,3.8167225964248765
-1.3957758479132782,-1.316099381607272,-2.378443437674682,-0.4810281454297353,8.598564959586554,3.444326460484414
-1.4089368417293509,-1.2301137320114064,-2.3832537191289793,-0.4465848808248912,8.720753382037293,3.09276509687233
-1.421237979049465,-1.1429061981910336,-2.387719567937228,-0.4156572298561679,8.83458626190195,2.7628743556753164
-1.4326670410313753,-1.0545603355720141,-2.3918761402357895,-0.3880284862994147,8.940109234226263,2.455420981774469
-1.4432126443870954,-0.9651592432297514,-2.3957564250987837,-0.36347427648167,9.03731943510883,2.171104947038836
-1.452864236819393,-0.8747860488786632,-2.3993911678636004,-0.34176322701128165,9.126177780803706,1.9105615311706126
-1.4616120973081796,-0.783524271070626,-2.4028088001337133,-0.3226576116995755,9.206620548564928,1.6743632509752118
-1.4694473400188859,-0.6914580655849768,-2.406035376250709,-0.3059139791898234,9.278570118872402,1.463021713080942
-1.4763619206747356,-0.5986723643962528,-2.4090945160426074,-0.29128376205901396,9.341944781683111,1.2769894332328222
-1.4823486443186982,-0.5052529165794217,-2.4120073536631974,-0.27851386772668574,9.39666754923021,1.1166616311648416
-1.4874011734844923,-0.41128624108711964,-2.4147924923404642,-0.26734725141503735,9.44267395221808,0.9823779785237057
-1.4915140358953636,-0.31685950156493886,-2.4174659648546144,-0.25752347162980027,9.479918822883974,0.8744242526114735
-1.494682630911013,-0.2220603133360991,-2.4200411995709126,-0.24877922910368555,9.508382085720482,0.7930338340867685
-1.496903234044374,-0.12697649247889428,-2.4225289918619493,-0.24084889076281787,9.52807358386298,0.7383889841526552
-1.498172998969163,-0.03169575664026447,-2.4249374807695774,-0.23346500092129133,9.539036966361442,0.7106218465837514
-1.4984899565355656,0.06369461302334994,-2.4272721307787903,-0.22635878245545382,9.541352649874383,0.7098151410557915
-1.497853010405332,0.1591081395220938,-2.429535718603345,-0.2192606310448959,9.53513984976288,0.7360025440267194
-1.4962619290101111,0.2544595380197226,-2.4317283249137938,-0.2119006056046287,9.520557652889584,0.7891687880770868
-1.4937173336299139,0.3496651145486184,-2.43384733096984,-0.20400891772385782,9.497805080892181,0.8692495455534096
-1.4902206824844277,0.4446431653575402,-2.4358874201470786,-0.19531642226832371,9.467120071708655,0.976131192679122
-1.4857742508308522,0.5393143660746268,-2.437840584369762,-0.1855551103415325,9.42877729188488,1.109650571355361
-1.480381107170106,0.6336021389934756,-2.439696135473177,-0.17445860462797888,9.383084685342322,1.2695948737906158
-1.4740450857801712,0.7274329858468989,-2.441440721519457,-0.16176265589007272,9.33037866762122,1.4557017672302404
-1.4667707559217023,0.8207367725231111,-2.443058348078358,-0.1472056382177703,9.271017888880142,1.6676598513271697
-1.4585633881964712,0.9134469514119125,-2.4445304044605356,-0.1305290397044986,9.205375513710905,1.9051094997719122
-1.4494289186823521,1.0055007065490216,-2.4458356948575806,-0.11147794470677949,9.13382999959772,2.1676440830794332
-1.439373911616862,1.0968390065449989,-2.446950474304648,-0.08980150387598515,9.056754396158476,2.4548115048394332
-1.428405521551412,1.1874065505065836,-2.447848489343408,-0.06525338882759082,8.974504231066364,2.7661159143610234
-1.4165314560463462,1.2771515928172472,-2.448501023231684,-0.037592229683980585,8.887404092410954,3.101019390242908
-1.4037599401181737,1.3660256337413568,-2.4488769455285238,-0.006582035781551504,8.795733058018909,3.458943327861968
-1.3900996837807602,1.4539829643215458,-2.4489427658863394,0.028007397497068175,8.699709157258326,3.839269214573637
-1.3755598541375447,1.5409800558941291,-2.4486626919113688,0.06640008964280454,8.599473078312394,4.2413384441707676
-1.3601500535786033,1.626974786677253,-2.4479986910149405,0.10881347408451222,8.495071353134817,4.664450810282932
-1.3438803057118307,1.7119255002086011,-2.4469105562740956,0.15545798218734155,8.386439263780687,5.107861329008988
-1.3267610507097447,1.795789892846408,-2.4453559764522224,0.20653659547743142,8.273383719161949,5.570775074939587
-1.3088031517812806,1.8785237300380275,-2.443290610497448,0.2622443462268273,8.15556635307829,6.052339771481015
-1.2900179144809003,1.9600793935688103,-2.4406681670351795,0.32276774394163743,8.032487095866072,6.55163595481916
-1.2704171205452122,2.040404264527471,-2.437440489595763,0.388284103489829,7.903468476755621,7.0676646292292675
-1.2500130778999374,2.119438949295027,-2.433557648560865,0.45896074978212165,7.767640925542242,7.599332447821854
-1.2288186884069872,2.1971153585504495,-2.428968041063044,0.5349540742603401,7.6239293635361625,8.145434585372623
-1.2068475348214827,2.273354652185811,-2.4236185003204405,0.6164084201140664,7.471041407257602,8.704635616992888
-1.1841139882996246,2.348065066258387,-2.4174544161192997,0.7034547762839952,7.307457555191023,9.275448876665745
-1.1606333376370408,2.421139641810297,-2.4104198683564597,0.7962092650506527,7.131423787960661,9.856214941794768
-1.1364219412189378,2.492453879689904,-2.4024577757059533,0.8947714144686004,6.940947083820568,10.445080072369315
-1.1114974024220388,2.5618633505281094,-2.393510061561267,0.9992222151922936,6.733794430900886,11.039975624004876
-1.0858787689167577,2.6292012948371184,-2.383517839409344,1.1096219714323423,6.507495999861055,11.638599649710542
-1.0595867559683865,2.694276254835729,-2.3724216196950207,1.2260079679294478,6.259353218123165,12.238402100862803
-1.032643993420029,2.7568697870169605,-2.360161540015726,1.3483919889380758,5.986452550312176,12.83657522647074
-1.0050752955498594,2.816734312520082,-2.3466776201263455,1.4767577412027832,5.685685827534562,13.430050941789208
-0.9769079524246586,2.873591170795428,-2.3319100427143176,1.6110582506206754,5.353777967465265,14.015507080265474
-0.9481720407167042,2.9271289504700806,-2.315799460208111,1.75121332142333,4.987322873157539,14.589384541496896
-0.9189007512120034,2.977002179201656,-2.2982873269938775,1.897107166838299,4.58282817535822,15.147917384688398
-0.8891307294199868,3.022830460955238,-2.2793162553254946,2.048586340685183,4.136769275098571,15.687177872673683
-0.8589024248104344,3.0641981537062235,-2.258830391918643,2.2054581194119196,3.645652835675457,16.20313832603696
-0.8282604432733722,3.100654682062978,-2.2367758107245237,2.367489502672289,3.106089453644135,16.691751381566302
-0.7972538964527425,3.1317155765994196,-2.213100915697801,2.534407016487952,2.5148746993754223,17.149049848909893
-0.7659367406867483,3.1568643235931737,-2.1877568455329213,2.705897514977051,1.8690770580391425,17.571266814692205
