th1 (rad),w1 (rad/s),th2 (rad),w2 (rad/s)
1.8845997823136935,-0.12182551031597746,1.8097908953034796,1.360215328060825
1.8833815272105336,-0.21418390075713223,1.823393048584088,1.3571120007351172
1.8812396882029623,-0.3067654954924265,1.836964168591439,1.354664427383462
1.878172033248038,-0.39961194290063645,1.8505108128652736,1.3529125116287604
1.8741759138190317,-0.49274960388350997,1.8640399379815613,1.3518675479045519
1.8692484177801967,-0.586187290351705,1.8775586134606068,1.351508535352159
1.8633865448766795,-0.6799140907299914,1.8910736988141283,1.3517785502336013
1.8565874039693797,-0.7738974016750368,1.9045914843164644,1.3525813472849277
1.8488484299526293,-0.8680813137773724,1.9181172977893137,1.3537784051960613
1.8401676168148555,-0.9623855238102943,1.9316550818412743,1.3551866714055611
1.8305437615767526,-1.0567049621618618,1.9452069485553298,1.3565772895469337
1.819976711955134,-1.1509103255355868,1.958772721450799,1.3576756005950605
1.8084676086997782,-1.2448496856788127,1.9723494774567496,1.358162686984905
1.79601911184299,-1.33835129961232,1.9859311043265986,1.3576786699086938
1.7826355988468667,-1.4312276729973101,1.9995078910256856,1.3558278694112023
1.7683233221168937,-1.523280827627077,2.0130661697197976,1.3521857966603446
1.753090513840623,-1.6143086040121202,2.026588027686401,1.3463077778595232
1.7369474278005017,-1.7041117041408076,2.0400511054649964,1.3377388284232905
1.7199063107590937,-1.7925010660901632,2.0534284937492293,1.3260242301433263
1.701981300098192,-1.8793050814322212,2.0666887360506627,1.3107201420227634
1.68318824928387,-1.964376136011998,2.0797959374708905,1.2914035230124552
1.66354448792375,-2.047595985151004,2.092709972701015,1.267680677998107
1.64306852807224,-2.1288795654470456,2.105386779480996,1.2391938581127258
1.6217797324177694,-2.2081769852131514,2.117778718062123,1.2056255373238263
1.5996979625656378,-2.285473602817153,2.1298349734353614,1.1667002200936125
1.5768432265374663,-2.3607882706066574,2.1415019756362974,1.1221838734110134
1.5532353438313997,-2.434169966825626,2.1527238143704075,1.0718812855046338
1.5288936441631436,-2.5056931405674714,2.1634426272254537,1.0156318065861427
1.5038367127574688,-2.575452146616586,2.173598945291315,0.9533040107356702
1.478082191291303,-2.643555149208103,2.183131985398672,0.8847898330220149
1.4516466397992218,-2.7101178353594175,2.191979883728892,0.809998693714743
1.4245454614456277,-2.7752572130251174,2.20007987066604,0.7288520399528896
1.3967928893153765,-2.839085691331406,2.2073683910655686,0.6412786339219223
1.3684020324020625,-2.9017055621286043,2.2137811774047877,0.5472108124869823
1.3393849767807764,-2.963203933216618,2.2192532855296574,0.4465818487272589
1.3097529374486103,-3.0236481091999923,2.22371910401693,0.3393244680481959
1.2795164563566104,-3.083081378019381,2.2271123486974123,0.22537051295863136
1.2486856425764166,-3.141519139329861,2.2293660538269986,0.10465171013328128
1.217270451183118,-3.198945303116031,2.2304125709283316,-0.022898532180112757
1.1852809981519576,-3.2553088906646286,2.2301835856065306,-0.15734238321288752
1.1527279092453113,-3.310520782619592,2.2286101617744016,-0.29873400048993815
1.1196227014191154,-3.3644505779741594,2.225622821769502,-0.44711519376054654
1.0859781956393737,-3.416923551586687,2.221151669831897,-0.6025104502172841
1.0518089601235068,-3.4677177246303583,2.215126565329724,-0.7649214391710063
1.0171317828772033,-3.5165610911000007,2.207477350938014,-0.9343211291300493
0.9819661719662033,-3.563129073063263,2.198134139646714,-1.1106476706327224
0.9463348812355706,-3.60704230672635,2.1870276629403866,-1.293798224314732
0.9102644581683071,-3.6478648894164967,2.1740896806972394,-1.4836229449698495
0.8737858092741422,-3.685103242838709,2.1592534512475408,-1.6799193675111352
0.8369347768457551,-3.7182057686819094,2.1424542575724295,-1.8824274778142611
0.799752719158936,-3.74656348670074,2.123629982794287,-2.090825787823462
0.7622870842919286,-3.769511850311713,2.1027217249160524,-2.3047287668256082
0.7245919657888115,-3.786333927789973,2.0796744372477964,-2.5236860057613217
0.6867286265109117,-3.7962651155161335,2.0544375771901833,-2.747183504849824
0.6487659753557504,-3.7984995107252435,2.026965742141685,-2.974647472622861
0.610780980248498,-3.792198012628882,1.9972192674154565,-3.205451002977251
0.5728590001222092,-3.7764981412233665,1.965164757385684,-3.4389239531089997
0.5350940187099755,-3.7505254624226376,1.930775517854594,-3.6743662774935197
0.49758876408574915,-3.713406387923007,1.8940318550796589,-3.9110649815378737
0.4604547002065191,-3.6642819821007326,1.85492120526428,-4.148314745581236
0.42381188038551176,-3.6023222624171827,1.8134380578084677,-4.385442140720732
0.3877886577613399,-3.526740333103277,1.7695836364012603,-4.621833220590785
0.35252125443030713,-3.4368055558724935,1.7233653041953525,-4.856964138605119
0.3181531988715822,-3.3318548501595453,1.6747956628093013,-5.090434321218575
0.2848346503699868,-3.211301145198321,1.6238913195971154,-5.322001637906737
0.2527216389180036,-3.0746379954213703,1.570671303218048,-5.551618958915527
0.2219752589637899,-2.921439439871076,1.5151551136288925,-5.7794714866189825
0.19276086456507913,-2.751354360752543,1.4573603987627026,-6.006014275501056
0.1652473209575537,-2.564094911273009,1.3973002560076921,-6.232009383166637
0.1396063718448236,-2.359419096390365,1.3349801621760258,-6.4585620382611095
0.11601218088091995,-2.137108407150135,1.2703945417934146,-6.68715490829362
0.09464109680941861,-1.896942728873791,1.2035229927104785,-6.919678696702981
0.0756716695206807,-1.638676943680804,1.1343262057434487,-7.158455335080722
0.05928490008387266,-1.3620274385975568,1.0627416523926414,-7.406245944213901
0.04566462569789709,-1.0666834182397507,0.9886791929505023,-7.666227671255173
0.03499779151549958,-0.7523698397248899,0.9120169162379506,-7.941908183606029
0.02747409311825068,-0.41900990032568874,0.8325978344018903,-8.236918389939333
0.023283994114993795,-0.06707137812963171,0.750228650502497,-8.554574093280662
0.02261328033369748,0.3017602394551279,0.6646829095696903,-8.897015079009606
0.025630882728248757,0.6833581049614357,0.5757127587795943,-9.263613458985638
0.03246446377786311,1.0690902913161884,0.4830766241897379,-9.648238673782988
0.043155366691024995,1.4427323975840192,0.386594237451908,-10.035083410599134
0.05758269066686519,1.7768750966126254,0.2862434033459167,-10.393671380031076
0.07535144163299144,2.0313139576418573,0.18230668954560592,-10.676314482964935
0.09566458120941002,2.1588304987439315,0.07554354471595656,-10.825274432852481
0.11725288619684933,2.1230030024372484,-0.032709199612568254,-10.795912729139465
0.1384829162212218,1.9206349050281561,-0.14066832690396291,-10.585877232089134
0.15768926527150337,1.5871469644419889,-0.24652709922485427,-10.241394428934878
0.17356073491592325,1.1763054322999422,-0.3489410435142031,-9.829839248618352
0.18532378923892268,0.735108243894959,-0.4472394360003866,-9.407097706252085
0.19267487167787226,0.2934292252594393,-0.5413104130629075,-9.00529938120439
0.19560916393046665,-0.13362050629426125,-0.6313634068749514,-8.637138168980577
0.19427295886752405,-0.5399204925155963,-0.7177347885647571,-8.30405424215791
0.18887375394236808,-0.9238428756227183,-0.8007753309863362,-8.002274809660003
0.1796353251861409,-1.2856527284516375,-0.8807980790829363,-7.726159747227142
0.16677879790162453,-1.626212302897346,-0.9580596765552077,-7.469793545367594
0.15051667487265108,-1.9464037587800123,-1.0327576120088837,-7.227657055232341
0.13105263728485095,-2.2469109697411596,-1.1050341825612071,-6.994867016384458
0.10858352758743936,-2.5281709940245443,-1.1749828527250517,-6.767229159856715
0.08330181764719391,-2.790401521674177,-1.242655144323619,-6.541219174336568
0.05539780243045214,-3.033659132660862,-1.3080673360669846,-6.313941163609092
0.02506121110384352,-3.2579066836485486,-1.3712067477030754,-6.083082999530819
-0.007517855732641968,-3.4630792681448495,-1.4320375776983836,-5.846874422486814
-0.04214864841409047,-3.649143449218653,-1.4905063219232517,-5.6040480605622935
-0.078640082906277,-3.8161470107316653,-1.5465468025288747,-5.35380153735864
-0.11680155301359366,-3.964257817966555,-1.6000848179024612,-5.095758538668908
-0.1564441311932592,-4.093791216329755,-1.6510424032891502,-4.829927166187137
-0.19738204335655676,-4.205226027764801,-1.6993416749510215,-4.556654656522921
-0.23943430363420476,-4.299209739095978,-1.7449082215162508,-4.276578344366683
-0.28242640102516453,-4.376553937691222,-1.7876740049599176,-3.9905734678822222
-0.3261919404020768,-4.4382214255041665,-1.8275797396387399,-3.6996989801137348
-0.37057415465711846,-4.485306712641428,-1.8645767294398772,-3.405142907562794
-0.41542722178353275,-4.519011741261299,-1.8986281585155051,-3.1081689778375874
-0.4606173391961457,-4.540618715619974,-1.929709848293881,-2.810066234158116
-0.5060235263523455,-4.5514618216642075,-1.9578105106354622,-2.512103192249946
-0.5515381445689875,-4.552899426724592,-1.9829315425579617,-2.2154878118807004
-0.5970671388362334,-4.546288080472575,-2.0050864206767685,-1.9213341940399364
-0.6425300196409591,-4.532959319782279,-2.0242997626171677,-1.6306365202851594
-0.6878596128387819,-4.514199940098466,-2.0406061278200194,-1.3442503656019373
-0.7330016122397666,-4.491236059146362,-2.054048631476039,-1.0628811772425748
-0.7779139728312302,-4.465220984827957,-2.0646774432484647,-0.7870794485060846
-0.8225661826795098,-4.437226620401597,-2.0725482377335256,-0.5172419484080115
-0.8669384488835257,-4.408237901061191,-2.077720657217606,-0.253618307114935
-0.9110208278941376,-4.379149553305163,-2.0802568402887553,0.0036776926700300416
-0.9548123234271892,-4.350764291094709,-2.080220063362055,0.2546526064802529
-0.9983199663381364,-4.323791393676568,-2.0776735372972523,0.4994138176187797
-1.041557880274902,-4.298844427793983,-2.0726793991210646,0.7381458617632005
-1.0845463245528417,-4.276436659366796,-2.0652979405034326,0.9710819342383314
-1.1273106911465096,-4.256972428359743,-2.0555871211610492,1.1984693342977502
-1.169880415430107,-4.240732431796818,-2.0436024278180716,1.4205269226337873
-1.2122877397480751,-4.227850504406149,-2.029397158591734,1.637391967512924
-1.2545662447921366,-4.218279205878841,-2.0130232389166047,1.8490531871699105
-1.2967490368509251,-4.211741553814959,-1.9945327070449057,2.055266699130459
-1.3388664523890748,-4.207667047771054,-1.9739800400536012,2.255452615435697
-1.3809431228667852,-4.205112525150531,-1.9514255138992442,2.448573310739079
-1.4229942481182905,-4.202673599191676,-1.9269397807918534,2.6330016414292543
-1.4650209841102073,-4.198401893783196,-1.9006097643775608,2.8064005994882746
-1.5070050030480393,-4.1897577710382246,-1.8725457583826781,2.965656061001881
-1.5489025807584216,-4.173645654232058,-1.8428891977726594,3.106928421278262
-1.5906390373007422,-4.146590960785885,-1.8118199135598767,3.2259050831083282
-1.632104946908601,-4.105106943859489,-1.7795608627287933,3.3183198793551147
-1.673156016347196,-4.046246010603944,-1.7463776639352422,3.3807290728927644
-1.7136184764532354,-3.9682305380285507,-1.7125703732063144,3.4113931259032952
-1.753300781833521,-3.8709559534053217,-1.6784564419472814,3.4109703059068326
-1.792010341367574,-3.756140008725667,-1.6443467388882131,3.382703963019352
-1.8295717414548307,-3.627015644050124,-1.6105196992580195,3.3319622153454227
-1.865841897895332,-3.4876753022194036,-1.5772000771045653,3.2652873345903197
-1.900718650917526,-3.342323955175577,-1.544547203758662,3.1893224230392523
-1.9341418904692818,-3.1946871390940217,-1.5126539795282696,3.1099652842919747
-1.966088761860222,-3.0476896807167755,-1.48155432668535,3.0319125149507404
-1.9965656586673899,-2.9033847931758925,-1.4512352015358425,2.958563210853811
-2.025599506599149,-2.7630445717165153,-1.4216495694273044,2.8921542781977556
-2.053229952316314,-2.6273205675268603,-1.3927280266453268,2.8339963301701423
-2.079503157991583,-2.49641206746678,-1.3643880633436254,2.7847206467141077
-2.1044672786662506,-2.3702109211782085,-1.3365408568764843,2.744492351486828
-2.1281693878780326,-2.248413282733834,-1.309095933361616,2.713175804109872
-2.150653520705371,-2.1305998780916315,-1.281964175320517,2.690454366106172
-2.171959519486287,-2.016290696172628,-1.2550596316594553,2.6759129056429627
-2.1921224264480133,-1.9049806211368376,-1.2283005026030258,2.669092350266718
-2.2111722326593815,-1.7961616260298068,-1.2016095791003587,2.6695243489940377
-2.2291338489196795,-1.6893358583086426,-1.1749143356104184,2.6767522775324566
-2.246027207502766,-1.5840227492851304,-1.1481468128350938,2.690343109917558
-2.2618674349956174,-1.4797623247838094,-1.1212433817359182,2.709893309650986
-2.2766650582434553,-1.3761161909887922,-1.0941444486394083,2.7350308782499515
-2.290426220153343,-1.2726671747591873,-1.0667941398569087,2.7654149802635
-2.303152891900935,-1.1690182600504564,-1.0391399900542737,2.8007340690163307
-2.31484307450144,-1.0647912365001466,-1.0111326493641104,2.840703103131826
-2.3254909868664413,-0.9596253280540885,-0.9827256183327922,2.885060221168628
-2.335087240146982,-0.8531759736389924,-0.9538750161211058,2.933563094902506
-2.343618999883372,-0.7451138708125845,-0.9245393851720808,2.985985086080753
-2.351070138591498,-0.6351243550559398,-0.8946795343112732,3.0421112699809565
-2.357421382142057,-0.52290716379301,-0.8642584216114637,3.101734350529892
-2.3626504537799873,-0.4081766198347368,-0.8332410781061648,3.1646504686505783
-2.3667322199783345,-0.29066226000418605,-0.801594573419659,3.2306548930968946
-2.3696388425783765,-0.17010992860648388,-0.76928802448869,3.299537578260907
-2.3713399418644414,-0.04628335030779039,-0.736292648706081,3.371078574431606
-2.3718027753675193,0.08103380849441803,-0.702581862961765,3.445043281654161
-2.3709924372825752,0.21203538765223273,-0.6681314301452234,3.5211775480883762
-2.368872083406053,0.34688969764731725,-0.6329196546643396,3.5992026272830397
-2.3654031864295795,0.48573601955890444,-0.5969276283915093,3.678810025883732
-2.3605458262339902,0.6286806753535351,-0.560139528132672,3.75965629377795
-2.354259019480455,0.7757927224247528,-0.5225429651948925,3.8413578322190016
-2.3465010922562075,0.9270993491146617,-0.4841293868727025,3.9234858214716737
-2.337230098765061,1.082581073955123,-0.4448945286579858,4.005561397040753
-2.32640428802551,1.2421668797144598,-0.40483891468757827,4.087051231183143
-2.3139826192283652,1.4057294426382956,-0.36396840237574685,4.167363702271181
-2.299925324801982,1.5730806455744888,-0.32229476535303503,4.245845856280416
-2.2841945183462373,1.7439675884676575,-0.27983630679023086,4.321781379425607
-2.2667548424615607,1.9180693280558045,-0.2366184929959748,4.394389805761523
-2.247574149181003,2.094994587344457,-0.19267459493835956,4.462827175509412
-2.226624203307558,2.2742806715581634,-0.14804632318326544,4.526188336630726
-2.2038813965919766,2.455393808376984,-0.10278443981695817,4.583511042505005
-2.1793274585082067,2.6377310951305355,-0.05694932939190812,4.6337819428946485
-2.1529501475569015,2.820624184748478,-0.010611509962961632,4.675944496254386
-2.124743905709417,3.003344778334199,0.03614793499958223,4.708908753835571
-2.094710457926075,3.1851119202857863,0.08323702253793794,4.731562887214608
-2.062859338723217,3.365101019148228,0.13055265141008401,4.742786259802016
-2.029208328531735,3.5424544525224624,0.17798051400810416,4.741463789034697
-1.9937837840065102,3.7162935663083796,0.22539515189845113,4.726501317595499
-1.9566208483434264,3.885731854854475,0.27266016507440616,4.696841714183583
-1.9177635297948816,4.049889113525412,0.319628582216242,4.651481456847338
-1.8772646386596274,4.207906388143498,0.3661433967847154,4.58948750760097
-1.8351855747781924,4.358961599988701,0.4120382718607251,4.510014351385927
-1.7915959587783055,4.5022857875471,0.4571384153745844,4.412321124052738
-1.7465731009028345,4.637179958747898,0.5012616266151118,4.295788767209874
-1.7002013013153554,4.763032569027001,0.5442195142872105,4.1599370965493865
-1.6525709756250855,4.879337611210571,0.5858188852527043,4.00444153396308
-1.6037775995129797,4.985713208677506,0.6258633005923351,3.829149023449137
-1.5539204674262046,5.081920440091691,0.6641547908268265,3.6340923353857484
-1.5031012630252878,5.167881904000857,0.700495714180684,3.419501594535418
-1.4514224439852792,5.243699284468906,0.7346907301260381,3.185811499041451
-1.3989854511405901,5.309668951691302,0.7665488451164526,2.9336624051683438
-1.3458887616236772,5.366294483810913,0.7958854691681361,2.663893319216524
-1.292225816785568,5.414294990382314,0.8225244023603013,2.377524939679065
-1.238082866881745,5.454608305932892,0.846299651757092,2.075731275952484
-1.183536783822416,5.488388529998074,0.8670569645166168,1.7597990313088359
-1.1286528985224353,5.5169980061717085,0.8846549548297052,1.431074809793021
-1.0734829184607182,5.541994602932853,0.8989657029276354,1.090901157206423
-1.0180629724313897,5.565115993204956,0.9098747144996997,0.7405432963931595
-0.96241181249934,5.588263420040295,0.9172801474636313,0.3811089745917413
-0.9065291782989371,5.613488083105495,0.9210912372095487,0.013463943122620281
-0.8503942974678821,5.642983719514579,0.9212258766407748,-0.3618548562803076
-0.7939644602727363,5.679089167692227,0.9176073280779717,-0.7447273172582196
-0.737173568595814,5.724304725532008,0.9101600549053895,-1.1355397609163709
-0.6799305213404939,5.78132599106764,0.8988046572962258,-1.5352781157741378
-0.6221172614298175,5.853098598522917,0.8834518761384844,-1.945628263850491
-0.5635862754445883,5.94289663929104,0.8639955934999795,-2.369087988889656
-0.5041573090516779,6.054425927500477,0.8403047136110829,-2.8090939628307856
-0.4436130497766731,6.191948918925417,0.8122137739827751,-3.270161818540712
-0.38169356058741893,6.360416912481597,0.7795121557973679,-3.7580218027970687
-0.31808939146260296,6.565567605851178,0.7419319377693971,-4.279693465022776
-0.2524337154040912,6.813880328368088,0.6991350031191694,-4.84334987188352
-0.18429491212041033,7.112128975804385,0.6507015044003343,-5.457607355459427
-0.11317362236236647,7.465934414608105,0.59612543084574,-6.1294017830152745
-0.03851427821628542,7.876030336655356,0.5348314130155872,-6.858648261622497
0.04024602515026815,8.329856487047739,0.46624493039936227,-7.626342818216132
0.12354459002074554,8.785689702185518,0.38998150221720096,-8.372217331424718
0.21140148704260073,9.152656036904327,0.30625932890295376,-8.96672573565667
0.30292804741164403,9.294808706781382,0.21659207154638704,-9.217130119652236
0.39587613447945785,9.111211251754197,0.12442077034986468,-8.980780934251642
0.48698824699699983,8.649818988160309,0.03461296100734826,-8.325856835754125
0.5734864368786029,8.074018789062416,-0.04864560735019299,-7.484329170450104
0.6542266247692271,7.5176070956158965,-0.12348889905469403,-6.647496731077742
0.7294026957253861,7.0348212845819855,-0.18996386636547144,-5.89489643249369
0.7997509085712059,6.632467837563272,-0.24891283069040834,-5.23889219615655
0.8660755869468386,6.3009048552576825,-0.30130175265197384,-4.668106100644604
0.9290846354994154,6.027600826838546,-0.3479828136584199,-4.166590231826605
0.9893606437678009,5.8013484895511,-0.38964871597668593,-3.719907593966204
1.0473741286633118,5.61307612100629,-0.426847791916348,-3.316407993624048
1.1035048898733748,5.455653257949434,-0.46001187185258846,-2.947058127397626
1.1580614224528691,5.323489893165121,-0.48948245312656474,-2.604954448672197
1.2112963213845203,5.212161628159929,-0.5155319976132867,-2.2848524254553855
1.2634179376661197,5.118111188469741,-0.5383805218678406,-1.9827880469975108
1.314599049550817,5.038423782167264,-0.5582084023378157,-1.6957910517260169
1.3649832873724896,4.970661909679758,-0.5751663128550758,-1.4216711728056324
1.4146899064692873,4.912745377268005,-0.5893830245831321,-1.1588579473838692
1.4638173602419673,4.862865170575449,-0.6009716040569708,-0.9062782172787376
1.5124460119477219,4.819422755216458,-0.6100343862297581,-0.663259414791702
1.5606402394998864,4.780988626687053,-0.6166669803776752,-0.42945008482840497
