th1 (rad),w1 (rad/s),th2 (rad),w2 (rad/s),a1 (rad/s^2),a2 (rad/s^2)
5.594629155114539,-2.8137850094778645,5.617490110380056,1.7533168399479877,6.651063997838982,-0.7777700698793611
5.566491305019761,-2.7472743694994746,5.635023278779536,1.7455391392491941,7.6609156735052855,-2.2432962657679134
5.539018561324766,-2.6706652127644217,5.6524786701720275,1.723106176591515,8.56289685685095,-3.5361409256679095
5.5123119091971216,-2.585036244195912,5.669709731937942,1.6877447673348358,9.335916034677993,-4.625985019982821
5.486461546755162,-2.4916770838491322,5.686587179611291,1.6414849171350077,9.970490457064587,-5.4997405479936665
5.461544775916671,-2.3919721792784863,5.703002028782641,1.586487511655071,10.467835855792595,-6.1601530366908515
5.437625054123886,-2.2872938207205604,5.718866903899191,1.5248859812881626,10.837547857340233,-6.622380997569909
5.414752115916681,-2.178918342147158,5.734115763712073,1.4586621713124635,11.094692508506169,-6.909729779951808
5.392962932495209,-2.0679714170620964,5.748702385425198,1.3895648735129453,11.257012562931207,-7.04955673963607
5.372283218324588,-1.9554012914327843,5.762598034160328,1.3190693061165846,11.34268375826233,-7.0699732934485535
5.35272920541026,-1.841974453850161,5.775788727221493,1.248369573182099,11.368775279103495,-6.997567267586984
5.334309460871759,-1.728286701059126,5.788272422953314,1.1783939005062292,11.350369857094904,-6.856083062537573
5.317026593861168,-1.614783002488177,5.800056361958377,1.1098330698808534,11.30019993971273,-6.665854073658326
5.300878763836286,-1.50178100309105,5.811154692657185,1.0431745291442702,11.228634238123778,-6.443749071883803
5.285860953805376,-1.3894946607098122,5.8215864379486275,0.9787370384254321,11.143870092041052,-6.203423824531021
5.2719660071982775,-1.2780559597894017,5.831373808332882,0.916702800180122,11.052224166889534,-5.955722040701192
5.259185447600384,-1.1675337181205063,5.840540836334683,0.85714557977311,10.9584507846117,-5.709122419190529
5.247510110419179,-1.0579492102743893,5.849112292132414,0.8000543555812047,10.866046644540322,-5.470170963838932
5.236930618316435,-0.9492887438289861,5.857112835688226,0.7453526459428155,10.777521387639622,-5.243867665018064
5.227437730878145,-0.8415135299525899,5.864566362147654,0.6929139692926348,10.69462658643611,-5.033995757991826
5.219022595578619,-0.7345672640882288,5.87149550184058,0.6425740117127166,10.6185432743111,-4.843392837963801
5.211676922937737,-0.6283818313451178,5.877921241957707,0.5941400833330786,10.55003192278147,-4.6741687841512745
5.205393104624285,-0.5228815121173032,5.883862642791038,0.5473983954915658,10.489550276630865,-4.527877783258214
5.200164289503112,-0.4179860093509945,5.889336626745954,0.5021196176589836,10.437344663383037,-4.405652181275837
5.195984429409602,-0.31361256271716415,5.894357822922544,0.45806309584622523,10.3935199438382,-4.3083053532194375
5.192848303782431,-0.20967736327878214,5.898938453881006,0.41498004231403085,10.358092544234248,-4.236409815697062
5.190751530149643,-0.10609643783643966,5.903088254304146,0.37261594415706023,10.331030217913089,-4.1903557251513766
5.189690565771278,-0.002786135657308772,5.906814413745717,0.33071238690554644,10.31228142968089,-4.170393861077895
5.1896627044147055,0.10033667863950013,5.910121537614772,0.28900844829476746,10.301796582099607,-4.176666254513097
5.1906660712011,0.20335464446049623,5.91301162209772,0.24724178574963648,10.299542718229961,-4.2092268033104085
5.192699617645705,0.3063500716427958,5.915484039955216,0.2051495177165324,10.305512830516609,-4.268053506323058
5.195763118362134,0.4094051999479619,5.917535535132382,0.1624689826533018,10.319730462622934,-4.353053324655086
5.199857170361613,0.5126025045741912,5.919160224958915,0.11893844940675095,10.34224988836066,-4.464060109734523
5.2049831954073555,0.6160250034577979,5.920349609452983,0.07429784830940572,10.373151766101696,-4.600825492606433
5.211143445441934,0.7197565211188148,5.921092587936077,0.028289593383341388,10.412533774038641,-4.763002072679112
5.218341010653122,0.8238818588592013,5.921375483869911,-0.019340427343449734,10.460495306409108,-4.9501176422232165
5.226579829241714,0.9284868119232924,5.921182079596476,-0.06884160376568191,10.517114827491216,-5.16153849926196
5.235864697360946,1.0336579601982046,5.920493663558819,-0.1204569887583015,10.582417912525582,-5.3964190999216015
5.246201276962928,1.1394821393234604,5.919289093671236,-0.17442117975751753,10.65633332755534,-5.653634347948169
5.257596098356163,1.2460454725990138,5.917544881873661,-0.23095752323699922,10.738633693356174,-5.93168968821522
5.270056553082153,1.3534318095325755,5.915235306641291,-0.29027442011915144,10.828856335067933,-6.228602856926037
5.283590871177479,1.4617203728832548,5.9123325624401,-0.3525604486884118,10.926198859870073,-6.541749680042474
5.298208074906311,1.5709823614819556,5.908806957953216,-0.41797794548883654,11.029382905754371,-6.867664819672703
5.31391789852113,1.6812761905394993,5.904627178498327,-0.4866545936855636,11.136478539950321,-7.20178710620212
5.330730660426525,1.7926409759390025,5.899760632561471,-0.5586724647475848,11.244681300669203,-7.538138567669373
5.348657070185915,1.9050877889456945,5.894173907913996,-0.6340538504242785,11.350034491871524,-7.868927379913653
5.367707948075372,2.0185881338644096,5.887833369409753,-0.712743124223415,11.447092102826932,-8.184069219335464
5.387893829414017,2.133059054892679,5.880705938167519,-0.7945838164167697,11.52852427834191,-8.470631267178527
5.409224419962944,2.2483442976760983,5.872760100003351,-0.879290129088555,11.584680012820934,-8.712221820286619
5.431707862939705,2.3641910978043077,5.863967198712466,-0.9664123472914211,11.603143827220068,-8.888380579929043
5.455349773917748,2.4802225360765084,5.854303075239551,-1.0552961530907115,11.56835802273116,-8.974075031047821
5.480151999278513,2.59590611630382,5.843750113708644,-1.1450369034011896,11.46143187750271,-8.939479905651686
5.506111060441551,2.7105204350788474,5.832299744674632,-1.2344317024577065,11.260321583900991,-8.750306118430919
5.5332162647923395,2.823123650917857,5.819955427650055,-1.3219347636420158,10.940627446255775,-8.369034876783452
5.561447501301518,2.932529925380415,5.806736080013635,-1.4056251124098502,10.477288040443286,-7.757459042336822
5.590772800555322,3.037302805784848,5.792679828889536,-1.4831997028332184,9.847402256061768,-6.880862174250889
5.62114582861317,3.135776828345466,5.777847831861204,-1.5520083245757272,9.034211350164025,-5.713878699487012
5.652503596896625,3.226118941847106,5.762327748615447,-1.6091471115705973,8.03187431702135,-4.247504815208213
5.684764786315096,3.3064376850173196,5.746236277499741,-1.6516221597226795,6.850106857227389,-2.4959200600253637
5.717829163165269,3.3749387535895936,5.729720055902514,-1.6765813603229331,5.517224356637244,-0.5010155987084208
5.751578550701165,3.4301109971559662,5.7129542422992845,-1.6815915163100175,4.079992752794594,1.6676781315389206
5.785879660672725,3.470910924683912,5.696138327136184,-1.6649147349946283,2.599298571103745,3.919111596927309
5.820588769919564,3.4969039103949493,5.679489179786238,-1.6257236190253552,1.142014454104278,6.152382447800002
5.855557809023514,3.508324054935992,5.663231943595984,-1.5641997945473551,-0.22898937306660738,8.271185036672922
5.890641049572874,3.506034161205326,5.647589945650511,-1.481487944180626,-1.4638475177797088,10.196980803163248
5.925701391184927,3.491395686027529,5.632775066208705,-1.3795181361489934,-2.531265000527256,11.877347426598902
5.960615348045202,3.466083036022256,5.618979884847215,-1.2607446618830045,-3.4196453018242576,13.288009451729764
5.995276178405425,3.4318865830040135,5.606372438228385,-1.1278645673657068,-4.134419983697679,14.429392827340425
6.0295950442354656,3.3905423831670367,5.595093792554728,-0.9835706390923026,-4.693215267617723,15.31999064004513
6.063500468067136,3.3436102304908593,5.585258086163805,-0.8303707326918512,-5.1205836840727335,15.98899317209619
6.096936570372044,3.292404393650132,5.576954378836886,-0.6704808009708894,-5.44350627956875,16.46991817343242
6.129860614308545,3.2379693308544444,5.570249570827177,-0.5057816192365652,-5.688191651239074,16.79602310530562
6.16224030761709,3.1810874143420538,5.565191754634811,-0.337821388183509,-5.878176529051646,16.99753865652651
6.194051181760511,3.1223056490515373,5.561813540752976,-0.1678460016182439,-6.033461508128017,17.10036944785455
6.225274238251026,3.061971033970257,5.560135080736793,0.003157692860301625,-6.17034573044717,17.12579891075387
6.255893948590728,3.0002675766657854,5.5601666576653965,0.17441568196784032,-6.301666047125255,17.090786351603068
6.285896624357386,2.937250916194533,5.561910814485075,0.345323545483871,-6.437226761843668,17.008552952669447
6.315269133519331,2.872878648576096,5.565364049939914,0.5154090750105655,-6.584284474424971,16.88926152830929
6.343997920005092,2.8070358038318464,5.5705181406900195,0.6843016902936585,-6.7480128812742315,16.74067900268945
6.372068278043411,2.739555675019104,5.577361157592956,0.851708480320553,-6.931912738614828,16.568767455061142
6.399463834793602,2.6702365476329555,5.585878242396162,1.0173961548711645,-7.138156347689066,16.37818408893672
6.426166200269932,2.598854984156065,5.596052203944874,1.1811779957605317,-7.367868814803255,16.17268931874009
6.452154750111492,2.5251762960080324,5.607863983902479,1.3429048889479327,-7.621354171295805,15.955471115332806
6.477406513071572,2.4489627542950743,5.621293032791958,1.5024596001012607,-7.898276208464713,15.729396980363024
6.501896140614523,2.369979992210427,5.636317628792971,1.6597535699048909,-8.197803518445458,15.497205127869814
6.525595940536627,2.288001957025972,5.652915164492019,1.814725621183589,-8.518726877496578,15.261645248748303
6.548475960106887,2.2028146882510065,5.671062420703855,1.967342073671072,-8.859555390222475,15.025577503225591
6.5705041069893975,2.1142191343487817,5.690735841440565,2.117597848703328,-9.218596042361883,14.792036562537382
6.591646298332885,2.0220331739251627,5.711911819927598,2.2655182143287016,-9.594019611548273,14.564265771988945
6.611866630072137,1.92609297780968,5.734567002070886,2.411160872048591,-9.983914280705807,14.345724849178767
6.631127559850234,1.826253835002622,5.758678610791372,2.5546181205403786,-10.386326747843725,14.140072890142847
6.64939009820026,1.7223905675241848,5.784224791996776,2.696018849441807,-10.799289050561345,13.95112670280423
6.666614003875502,1.6143976770185713,5.811184980491194,2.835530116469849,-11.22082761421994,13.782792447814122
6.682757980645688,1.5021894008763719,5.839540281655893,2.9733580409479905,-11.648949049080722,13.638966025333797
6.697779874654452,1.3856999103855647,5.869273862065373,3.1097477012013286,-12.081594789138906,13.523394339228565
6.711636873758307,1.2648839624941757,5.9003713390773855,3.244981644593614,-12.516553574216076,13.439485184712758
6.7242857133832485,1.1397184267520148,5.932821155523322,3.3793764964407416,-12.951316792512236,13.390047690112782
6.7356828976507686,1.0102052588268924,5.9666149204877295,3.5132769733418696,-13.382856601259697,13.37693765371947
6.745784950239037,0.8763766928142954,6.001747690221148,3.6470463498790644,-13.807300414798593,13.400572539154746
6.7545487171671805,0.7383036886663095,6.038218153719939,3.781052075270612,-14.219467998792172,13.459269525293728
6.761931754053844,0.5961090086783878,6.076028674472645,3.9156447705235493,-14.612229991034203,13.548348037418544
6.767892844140627,0.44998670876804575,6.115185122177881,4.051128250897735,-14.97564169389263,13.658928898717981
6.772392711228308,0.3002302918291194,6.155696404686858,4.187717539884915,-15.295808934804974,13.776362978214031
6.775395014146599,0.14727220248106968,6.197573580085707,4.325481169667055,-15.553464385568525,13.87824753821312
6.776867736171409,-0.00826244137461557,6.240828391782378,4.464263645049186,-15.722291975826082,13.932064541228009
6.776785111757663,-0.1654853611328764,6.28547102823287,4.603584290461466,-15.767163996165685,13.892643774707672
6.775130258146334,-0.32315700109453327,6.331506871137484,4.742510728208543,-15.64268987612148,13.699970833073163
6.771898688135389,-0.47958389985574806,6.378931978419569,4.879510436539274,-15.292851642627854,13.278375828964059
6.7671028491368315,-0.6325124162820266,6.427727082784962,5.012294194828915,-14.653000921122667,12.538833839679056
6.7607777249740115,-0.7790424254932533,6.477850024733251,5.137682533225705,-13.65594947008571,11.386760115725668
6.752987300719079,-0.9156019201941104,6.529226850065508,5.251550134382962,-12.243851955822096,9.73768157922839
6.743831281517138,-1.0380404397523313,6.581742351409337,5.348926950175246,-10.386290328473317,7.541456153387092
6.733450877119615,-1.1419033430370644,6.63523162091109,5.424341511709117,-8.10172012177876,4.811309779190647
6.722031843689244,-1.222920544254852,6.689475036028181,5.472454609501024,-5.474694179062428,1.647476742122
6.709802638246695,-1.2776674860454764,6.7441995821231915,5.488929376922243,-2.6579706016729845,-1.7593371839367529
6.69702596338624,-1.3042471920622063,6.799088875892414,5.471336005082875,0.14853900846927057,-5.155625944375845
6.683983491465618,-1.3027618019775136,6.853802235943243,5.419779745639117,2.7391187016953227,-8.28003185066112
6.670955873445843,-1.2753706149605604,6.908000033399634,5.336979427132506,4.948101430626095,-10.92418338631741
6.6582021672962375,-1.2258896006542994,6.961369827670959,5.227737593269332,6.680463407281962,-12.972786826232722
6.645943271289695,-1.1590849665814797,7.013647203603652,5.098009725007005,7.916744439915264,-14.409191029502551
6.63435242162388,-1.0799175221823272,7.064627300853722,4.953917814711979,8.696473434466762,-15.29243232509251
6.623553246402056,-0.9929527878376595,7.114166479000842,4.800993491461054,9.092656392124512,-15.72288648987168
6.61362371852368,-0.9020262239164144,7.162176413915452,4.643764626562337,9.188682793911854,-15.811738652756354
6.604603456284516,-0.8101393959772959,7.208614060181075,4.4856472400347736,9.062997031928012,-15.661200945821003
6.596502062324743,-0.7195094256580158,7.253470532581423,4.329035230576563,8.781633519241936,-15.3553379406683
6.589306968068163,-0.6316930904655964,7.296760884887188,4.175481851169881,8.396306995312539,-14.958222837150815
6.5829900371635075,-0.547730020512471,7.338515703398887,4.025899622798373,7.945534291544986,-14.51596928191945
6.577512736958383,-0.4682746775970211,7.37877469962687,3.8807399299791783,7.4569646757785195,-14.060198949158272
6.572829990182413,-0.3937050308392359,7.417582098926662,3.7401379404875956,6.949882299867493,-13.611593394913431
6.56889293987402,-0.324206207840561,7.454983478331537,3.6040220065384614,6.43741036691367,-13.182943944752987
6.565650877795615,-0.25983210417142427,7.491023698396922,3.4721925670909317,5.928272278811915,-12.781543310873007
6.563052556753901,-0.20054938138330514,7.525745624067831,3.3443771339822015,5.428121108770716,-12.410961718836893
6.561047062940068,-0.14626817029559797,7.559189395407653,3.2202675167938324,4.940507582906722,-12.07231989868106
6.559584381237111,-0.09686309446653074,7.5913920705755915,3.099544317807022,4.467567797291553,-11.765179025537803
6.558615750292446,-0.05218741649361521,7.622387513753662,2.981892527551644,4.010503201910181,-11.488151187465059
6.55809387612751,-0.012082384474513402,7.652206439029178,2.8670110156769932,3.56991089697334,-11.239311435817868
6.557973052282764,0.023616724495220003,7.680876549185948,2.7546179013188143,3.1460080594591457,-11.016471527036654
6.558209219527717,0.05507680508981146,7.708422728199136,2.6444531860484477,2.738782458331212,-10.817358500214874
6.558759987578615,0.08246462967312358,7.73486726005962,2.536279601046299,2.348091875294456,-10.639728418755551
6.559584633875346,0.10594554842606814,7.760230056070084,2.4298823168587433,1.9737285015375312,-10.481436302654307
6.560644089359607,0.12568283344144346,7.784528879238671,2.3250679538322,1.6154595296317955,-10.340476691672693
6.561900917694021,0.14183742873776142,7.807779558776993,2.2216631869154733,1.2730517261154446,-10.215004689627213
6.563319291981398,0.15456794599891588,7.829996190646147,2.119513140019201,0.946285363289226,-10.103344174605583
6.564864971441387,0.16403079963180814,7.851191322046339,2.018479698273145,0.6349612108529197,-10.00398769256517
6.566505279437705,0.17038041174033733,7.871376119029071,1.9184398213474936,0.3389031218455196,-9.915591075380584
6.568209083555109,0.1737694429587925,7.8905605172425455,1.8192839105936878,0.05795793790939784,-9.836964822684468
6.569946777984697,0.1743490223378865,7.908753356348482,1.720914262366843,-0.20800612273533878,-9.76706360949221
6.571690268208076,0.1722689611105331,7.925962498972151,1.623243626271921,-0.45910182089685975,-9.704974825083061
6.573412957819181,0.16767794290156451,7.94219493523487,1.5261938780210904,-0.6954254921734779,-9.64990674199229
6.575089737248196,0.16072368797982972,7.95745687401508,1.4296948106011675,-0.9170595666860458,-9.60117670882562
6.576696974127994,0.15155309231296926,7.971753822121092,1.3336830435129114,-1.1240748259160531,-9.558199623960341
6.578212505051124,0.14031234405380874,7.985090652556221,1.238101047273308,-1.3165322985812316,-9.520476856635362
6.579615628491663,0.1271470210679964,7.997471663028954,1.1428962787069543,-1.4944847578270475,-9.487585722257947
6.580887098702343,0.11220217348972594,8.008900625816024,1.048020421484375,-1.6579778223212949,-9.459169579689405
6.58200912043724,0.09562239526651299,8.019380830030867,0.9534287256874808,-1.807050689998253,-9.434928592889012
6.582965344389905,0.07755188836653046,8.028915117287742,0.8590794397585907,-1.9417365493517853,-9.414611182948827
6.58374086327357,0.0581345228730126,8.037505911685328,0.7649333279291024,-2.0620627222550967,-9.39800618614427
6.5843222085023,0.037513895650461634,8.045155244964619,0.6709532660676597,-2.1680505963736576,-9.38493572710679
6.584697347458805,0.01583338968672506,8.051864777625296,0.5771039087965918,-2.2597154058265048,-9.37524881225086
6.5848556813556725,-0.006763764371539988,8.057635816713262,0.4833514206740832,-2.337065916905745,-9.368815646283899
6.584788043711957,-0.03013442354059744,8.062469330920003,0.3896632642112442,-2.400104072146057,-9.365522673430792
6.584486699476551,-0.05413546426205801,8.066365963562115,0.29600803747693627,-2.44882464138557,-9.365268344551437
6.583945344833931,-0.07862371067591371,8.069326043936885,0.2023553540314219,-2.4832149230539806,-9.367959611384927
6.583159107727172,-0.10345585990645352,8.071349597477198,0.10867575791757263,-2.5032545330182416,-9.373509149559824
6.582124549128108,-0.12848840523663593,8.072436355056373,0.014940666421974377,-2.5089153120753425,-9.38183331265406
6.580839665075741,-0.15357755835738934,8.072585761720593,-0.07887766670456622,-2.500161376700266,-9.392850820382792
6.579303889492167,-0.178579172124392,8.071796985053547,-0.17280617490839414,-2.476949330980024,-9.40648218486226
6.577518097770923,-0.20334866543419225,8.070068923304463,-0.26687099675701675,-2.439228650797508,-9.422649879771958
6.575484611116582,-0.2277409519421673,8.067400213336892,-0.36109749555473636,-2.386942244253797,-9.441279258048041
6.57320720159716,-0.2516103743847053,8.063789238381345,-0.45551028813521677,-2.3200271849997725,-9.462300224421153
6.570691097853313,-0.274810646234703,8.059234135499993,-0.5501332903794283,-2.238415607548953,-9.48564966959906
6.567942991390966,-0.2971948023101926,8.0537328025962,-0.6449897870754189,-2.14203574572785,-9.511274673130117
6.564971043367864,-0.31861515976747107,8.047282904725446,-0.7401025338067201,-2.0308130871667123,-9.539136481919504
6.5617848917701895,-0.3389232906391382,8.039881879387378,-0.8354938986259152,-1.904671608145045,-9.569215270966502
6.558395658863798,-0.35797000672058865,8.03152694040112,-0.9311860513355802,-1.7635350442204896,-9.601515692122684
6.554815958796592,-0.37560535716279353,8.022215079887765,-1.027201208256807,-1.6073281429718522,-9.636073215521522
6.551059905224964,-0.39167863859251206,8.011943067805197,-1.123561940412022,-1.4359778360250899,-9.672961266792713
