th1 (rad),w1 (rad/s),th2 (rad),w2 (rad/s),a1 (rad/s^2),a2 (rad/s^2)
2.094224421870455,-0.7683058855169856,2.5428779899310663,-1.1593935791473584,-9.414313111723347,2.703459666795453
2.0865413630152854,-0.8624490166342191,2.5312840541395927,-1.1323589824794038,-9.39993125248805,2.548929692378118
2.077916872848943,-0.9564483291590996,2.519960464314799,-1.1068696855556226,-9.380255987948233,2.380126943030708
2.068352389557352,-1.050250889038582,2.5088917674592426,-1.0830684161253155,-9.355049481574257,2.1965002152813007
2.0578498806669665,-1.1438013838543246,2.4980610832979893,-1.0611034139725024,-9.323946003686798,1.9972791241245094
2.0464118668284232,-1.2370408438911926,2.487450049158264,-1.0411306227312573,-9.286461661336084,1.7814963491179867
2.0340414583895114,-1.3299054605045535,2.4770387429309513,-1.0233156592400774,-9.242008663762752,1.5480174573667431
2.020742403784466,-1.422325547142181,2.4668055863385505,-1.00783548466641,-9.189913444856714,1.295577508788759
2.0065191483130445,-1.514224681590748,2.4567272314918864,-0.9948797095785223,-9.129437855535421,1.0228234931587374
1.991376901497137,-1.6055190601461022,2.446778434396101,-0.9846514746469349,-9.059802517672292,0.7283614641904326
1.975321710895676,-1.6961170853228251,2.4369319196496315,-0.9773678600050306,-8.980211300757245,0.41080702789723594
1.9583605400424478,-1.7859191983303977,2.427158241049581,-0.9732597897260583,-8.889875754019654,0.06883762639467836
1.9405013480591438,-1.8748179558705942,2.4174256431523204,-0.9725714134621115,-8.788038218019619,-0.29875514020760924
1.9217531685004379,-1.9626983380507903,2.4076999290176992,-0.9755589648641876,-8.673992272951079,-0.6930150595546457
1.90212618511993,-2.0494382607803012,2.397944339369057,-0.982489115459734,-8.547099179724768,-1.1147746893472659
1.881631802512127,-2.134909252577549,2.38811944821446,-0.9936368623532067,-8.406799055398329,-1.5646144912752553
1.8602827099863515,-2.2189772431315324,2.378183079590928,-1.0092830072659593,-8.252615711015519,-2.042829438490828
1.838092937555036,-2.3015034002416876,2.3680902495182683,-1.0297113016508677,-8.084154371125285,-2.5494044789549193
1.8150779035526192,-2.3823449439529405,2.3577931365017597,-1.0552053464404167,-7.901091880682841,-3.08399976327621
1.79125445411309,-2.4613558627597687,2.3472410830373556,-1.0860453440731788,-7.70315946334258,-3.6459459706802786
1.7666408954854922,-2.5383874573931946,2.336380629596624,-1.1225048037799816,-7.490118589920425,-4.234249441690322
1.7412570209115603,-2.6132886432923987,2.325155581558824,-1.164847298196885,-7.261731003724376,-4.847606214652598
1.7151241344786363,-2.6859059533296423,2.313507108576855,-1.2133233603434108,-7.01772438532174,-5.484423532922123
1.6882650749453398,-2.7560831971828597,2.3013738749734207,-1.2681675956726322,-6.757755482750942,-6.142847001748687
1.6607042429735113,-2.823660752010369,2.2886921990166944,-1.3295960656901191,-6.481372754757437,-6.820791374626879
1.6324676354534076,-2.888474479557943,2.2753962383597934,-1.397803979436388,-6.187980660085384,-7.515972961700254
1.6035828906578282,-2.950354286158797,2.2614181985654294,-1.4729637090533905,-5.876807677629063,-8.225941875856188
1.5740793477962403,-3.009122362935088,2.2466885614748953,-1.5552231278119524,-5.546879978006169,-8.94811273911003
1.5439881241668894,-3.0645911627151494,2.231136330196776,-1.6447042552030526,-5.197002415755468,-9.679793016781073
1.5133422125397378,-3.116561186872704,2.2146892876447453,-1.7415021853708634,-4.825748207459072,-10.41820877132143
1.4821766006710106,-3.164818668947295,2.1972742657910365,-1.8456842730840777,-4.431458339021864,-11.16052826837275
1.4505284139815378,-3.2091332523375136,2.1788174230601958,-1.9572895557678052,-4.0122514342735744,-11.903884464015835
1.4184370814581626,-3.2492557666802493,2.159244527502518,-2.0763284004079634,-3.566044537673087,-12.645397900974283
1.3859445237913601,-3.2849162120569804,2.1384812434984384,-2.202782379417706,-3.090585027312199,-13.382201899234909
1.3530953616707904,-3.3158220623301022,2.1164534197042615,-2.336604398410055,-2.5834936833647166,-14.11147210919706
1.3199371410474894,-3.3416569991637495,2.093087375720161,-2.4777191195020256,-2.042318789076419,-14.830462476294443
1.2865205710558518,-3.362080187054514,2.068310184525141,-2.62602374426497,-1.4646010332654218,-15.536549421652076
1.2528997691853068,-3.376726197387168,2.042049947082491,-2.781389238481491,-0.8479489173908856,-16.22728554902057
1.2191325072114352,-3.385205686561077,2.014236054697676,-2.9436620939716964,-0.1901243611022106,-16.900463412581576
1.1852804503458243,-3.387106930172099,1.984799433757959,-3.112666728097512,0.5108617174975695,-17.554188779068234
1.1514093810441033,-3.381998312997123,1.953672766476984,-3.2882086158881942,1.256643832844361,-18.18696132633084
1.117589397914132,-3.3694318746686798,1.920790680318102,-3.4700782291515027,2.0483858625852185,-18.797758743171823
1.0838950791674453,-3.3489480160428275,1.886089898026587,-3.6580558165832207,2.8866530509286994,-19.386117589220508
1.0504055990070171,-3.3200814855335405,1.8495093398607547,-3.8519169924754255,3.771269095187032,-19.952200825569356
1.0172047841516818,-3.28236879458167,1.8109901699360005,-4.051439000731119,4.701152794393098,-20.496837318569995
0.9843810962058651,-3.235357266637739,1.7704757799286892,-4.25640737391682,5.674124796201117,-21.021512379025307
0.9520275235394877,-3.178616018675728,1.727911706189521,-4.466622497707073,6.686669032618489,-21.528279839859504
0.9202413633527304,-3.111749328349543,1.6832454812124504,-4.681905296105668,7.73362471864644,-22.01955432528109
0.889123870069235,-3.0344130811630787,1.6364264282513938,-4.9021008393584795,8.807772357659013,-22.497725916616137
0.8587797392576042,-2.946335357586489,1.5874054198578091,-5.127078098524641,9.899260017248816,-22.964516770332
0.8293163856817393,-2.8473427574140007,1.5361346388725627,-5.356723266227961,10.994793367474559,-23.41996877836484
0.8008429581075993,-2.737394823739255,1.4825674062102832,-5.590922954011609,12.076484718202371,-23.860912343543113
0.7734690098702067,-2.6166299765572316,1.4266581766701671,-5.82953207744704,13.12022536095253,-24.278721114959396
0.7473027101046344,-2.485427722947706,1.3683628558956968,-6.072319288596634,14.093421129661488,-24.656116355391912
0.7224484328751574,-2.344493511651091,1.3076396630097304,-6.3188804521505535,14.951936115826944,-24.962775404847417
0.6990034977586465,-2.194974150492822,1.244450858488225,-6.568508206199028,15.636173189574594,-25.149584514775473
0.6770537562537182,-2.038612418597076,1.1787657764262347,-6.820004051346783,16.066476947281103,-25.141681969157407
0.6566676320677475,-1.8779476491242653,1.110565735912767,-7.071420871038357,16.13863266745399,-24.831176556058118
0.6378881555765048,-1.7165613224497254,1.0398515272023834,-7.319732636598938,15.721360769046527,-24.071888635156903
0.6207225423520075,-1.55934771475926,0.966654200836394,-7.560451522950507,14.659496760102765,-22.680845706741827
0.6051290652044149,-1.4127527471582324,0.8910496856068889,-7.787259980017926,12.788650491222405,-20.454152595000675
0.5910015377328326,-1.2848662422460084,0.8131770858067097,-7.991801505967933,9.967961200318925,-17.20617404677107
0.5781528753103725,-1.1851866302428191,0.7332590707470303,-8.163863246435644,6.133611527208746,-12.836066106276807
0.5663010090079443,-1.1238505149707316,0.6516204382826739,-8.292223907498412,1.3630377060900636,-7.409171850268518
0.555062503858237,-1.110220137909831,0.5686981992076898,-8.366315626001098,-4.0800037356134355,-1.2148311678918224
0.5439603024791386,-1.1510201752659655,0.48503504294767885,-8.378463937680017,-9.760463912300889,5.252399815150191
0.532450100726479,-1.2486248143889744,0.4012504035708787,-8.325939939528515,-15.166664745524496,11.412696232152555
0.5199638525825893,-1.4002914618442195,0.31799100417559356,-8.21181297720699,-19.85040531468543,16.77618786630245
0.5059609379641471,-1.5987955149910738,0.23587287440352367,-8.044051098543965,-23.538348156495186,21.076864207654715
0.48997298281423635,-1.8341789965560256,0.15543236341808403,-7.833282456467418,-26.160677620717017,24.297840622455315
0.4716311928486761,-2.095785772763196,0.07709953885340985,-7.590304050242865,-27.803883407672913,26.60137085125099
0.4506733351210441,-2.373824606839925,0.0011964983509812066,-7.324290341730355,-28.63460780720135,28.227131157469103
0.4269350890526449,-2.6601706849119386,-0.07204640506632234,-7.0420190301556636,-28.83604888008999,29.4118570003565
0.4003333822035255,-2.948531173712839,-0.14246659536787898,-6.747900460152098,-28.57202394063116,30.347375329556588
0.3708480704663971,-3.2342514131191504,-0.20994559996939996,-6.444426706856532,-27.974429499709768,31.16925860120953
0.3385055563352056,-3.5139957081162483,-0.2743898670379653,-6.132734120844437,-27.14408172181663,31.962018436857278
0.30336559925404316,-3.7854365253344144,-0.33571720824640966,-5.813113936475864,-26.156831909377292,32.77016158411579
0.26551123400069904,-4.047004844428187,-0.3938483476111683,-5.4854123206347065,-25.070396159908398,33.609450453535985
0.22504118555641717,-4.297708806027271,-0.4487024708175154,-5.149317816099346,-23.92997522519049,34.47619516748361
0.18206409749614447,-4.537008558279176,-0.5001956489785089,-4.80455586442451,-22.772162776661926,35.354155580838324
0.1366940119133527,-4.764730186045795,-0.548241207622754,-4.451014308616127,-21.627239446625232,36.21928254795967
0.08904671005289475,-4.9810025805120475,-0.5927513507089153,-4.08882148313653,-20.52012007477598,37.04264259140149
0.03923668424777427,-5.186203781259807,-0.6336395655402806,-3.7183950572225153,-19.470204044235437,37.791777956422926
-0.012625353564823805,-5.380905821702162,-0.6708235161125057,-3.340477277658286,-18.49029275816046,38.43060975776622
-0.06643441178184542,-5.565808749283766,-0.7042282888890885,-2.9561711800806236,-17.584637590024325,38.917860485146846
-0.12209249927468308,-5.74165512518401,-0.7337900006898948,-2.566992575229155,-16.74609601012287,39.20388812923985
-0.17950905052652316,-5.9091160852852385,-0.7594599264421863,-2.1749536939367564,-15.952339714100267,39.2258334175411
-0.23860021137937554,-6.068639482426241,-0.7812094633815538,-1.7826953597613455,-15.161146821001164,38.90117860726619
-0.29928660620363795,-6.220250950636253,-0.7990364169791673,-1.3936835736886837,-14.30515323103196,38.12038380122201
-0.3614891157100005,-6.3633024829465725,-0.8129732527160541,-1.0124797356764637,-13.287248958662534,36.74049902538318
-0.4251221405394662,-6.496174972533198,-0.8230980500728188,-0.6450747454226318,-11.979328043004667,34.583877693577044
-0.49008389026479815,-6.615968252963245,-0.8295487975270451,-0.29923596848686135,-10.229354497662499,31.449330849330416
-0.5562435727944306,-6.71826179793987,-0.8325411572119138,0.015257340006442799,-7.8838087129628445,27.145940461149028
-0.6234261907738293,-6.797099885069498,-0.8323885838118493,0.28671674461793306,-4.831689590443085,21.558164190083904
-0.6913971896245243,-6.845416780973928,-0.82952141636567,0.5022983865187721,-1.0674375382820869,14.737735745230358
-0.7598513574342636,-6.856091156356749,-0.8244984325004823,0.6496757439710757,3.249378347338865,6.989324565705834
-0.828412268997831,-6.82359737288336,-0.8180016750607715,0.7195689896281341,7.780212649763039,-1.112660461910453
-0.8966482427266647,-6.74579524638573,-0.8108059851644901,0.7084423850090296,12.076397018008132,-8.829992223914541
-0.964106195190522,-6.6250312762056485,-0.8037215613143998,0.6201424627698842,15.717199613591154,-15.469340762689692
-1.0303565079525785,-6.467859280069737,-0.797520136686701,0.46544905514298723,18.44290484787544,-20.58462403154009
-1.095035100753276,-6.283430231590983,-0.7928656461352711,0.2596028148275863,20.206045035851957,-24.05875238989385
-1.1578694030691858,-6.081369781232463,-0.7902696179869952,0.019015290928647788,21.128743088325958,-26.044711466142893
-1.2186831008815104,-5.870082350349204,-0.7900794650777088,-0.24143182373278116,21.415763892690737,-26.83736195820625
-1.2773839243850025,-5.655924711422297,-0.7924937833150366,-0.5098054433148437,21.27824525636132,-26.75743438612525
-1.3339431714992254,-5.443142258858684,-0.7975918377481851,-0.7773797871760961,20.89149526397308,-26.084156980262804
-1.3883745940878123,-5.234227306218953,-0.805365635619946,-1.0382213569787242,20.382670657332856,-25.03220485010027
-1.440716867150002,-5.030400599645624,-0.8157478491897332,-1.288543405479727,19.8350847815432,-23.754356082475855
-1.4910208731464583,-4.832049751830192,-0.8286332832445304,-1.5260869663044854,19.298366243737483,-22.354067480163472
-1.5393413706647603,-4.639066089392817,-0.8438941529075753,-1.74962764110612,18.79871076206769,-20.899198471033785
-1.5857320315586885,-4.451078981772141,-0.8613904293186365,-1.9586196258164579,18.34710658782992,-19.43340795628735
-1.63024282137641,-4.267607915893842,-0.8809766255768011,-2.1529537053793315,17.945247342507336,-17.98452321780123
-1.6729189005353484,-4.088155442468768,-0.9025061626305945,-2.3327989375573437,17.58952250850826,-16.570274239841005
-1.713800454960036,-3.912260217383685,-0.9258341520061679,-2.4985016799557536,17.27360273790034,-15.202052469628777
-1.752923057133873,-3.7395241900046816,-0.9508191688057255,-2.650522204652041,16.990063804282684,-13.88729689400765
-1.7903182990339197,-3.569623551961855,-0.9773243908522459,-2.7893951735921174,16.73137662983102,-12.630968960588246
-1.8260145345535383,-3.4023097856635447,-1.0052183425881671,-2.915704863198,16.490487801892797,-11.436441575270416
-1.8600376324101737,-3.2374049076446165,-1.0343753912201472,-3.0300692789507044,16.261138399637947,-10.306021171933358
-1.8924116814866199,-3.074793523648237,-1.0646760840096543,-3.133129490670038,16.03801647761143,-9.241246220580239
-1.9231596167231022,-2.914413358872123,-1.0960073789163547,-3.2255419528758407,15.816804177355541,-8.2430541094215
-1.9523037503118235,-2.7562453170985672,-1.128262798445113,-3.307972493970056,15.594158487405405,-7.311874209457829
-1.9798662034828092,-2.6003037322245133,-1.1613425233848136,-3.381091236064634,15.367650839892253,-6.4476825927214705
-2.0058692408050542,-2.446627223825591,-1.1951534357454598,-3.4455680619918487,15.13568204224257,-5.650039381836278
-2.03033551304331,-2.295270403403165,-1.2296091163653784,-3.5020684558102113,14.89738353997411,-4.918120380054213
-2.0532882170773417,-2.146296568003424,-1.2646298009234804,-3.5512496596107535,14.652512448504565,-4.250748693113819
-2.074751182757376,-1.9997714435183782,-1.300142297519588,-3.5937571465418916,14.401345407475866,-3.646428342251783
-2.09474889719256,-1.8557579894436196,-1.3360798689850069,-3.6302214299644096,14.144574633148965,-3.103379615562266
-2.1133064770869963,-1.71431224311213,-1.372382083284651,-3.661255226120032,13.883208296710517,-2.619574605372201
-2.1304495995181174,-1.5754801601450248,-1.4089946355458514,-3.687450972173754,13.618476380787513,-2.192770693846068
-2.146204401119568,-1.4392953963371498,-1.445869145267589,-3.7093786791122145,13.351742377379937,-1.8205394518910223
-2.160597355082939,-1.3057779725633503,-1.482962932058711,-3.7275840736311245,13.084420546717581,-1.5002883608560482
-2.173655134808573,-1.1749337670961744,-1.5202387727950222,-3.742586957239685,12.817897946229344,-1.229272865438616
-2.1854044724795347,-1.046754787633881,-1.557664642367419,-3.754879685894071,12.553460071711573,-1.0045964824284388
-2.1958720203558735,-0.9212201869167652,-1.5952134392263597,-3.7649256507183555,12.292218758989897,-0.8231970327183452
-2.2050842222250413,-0.7982979993268663,-1.6328626957335433,-3.773157621045539,12.035041026346567,-0.6818175899897997
-2.2130672022183098,-0.6779475890634006,-1.6705942719439986,-3.779975796945437,11.782477874227485,-0.5769615551490974
-2.2198466781089436,-0.5601228103211258,-1.708394029913453,-3.785745412496928,11.534692806088765,-0.5048325282150051
-2.225447906212155,-0.4447758822602381,-1.7462514840384222,-3.790793737779078,11.291391124153083,-0.461261559843186
-2.2298956650347574,-0.3318619710187073,-1.784159421416213,-3.79540635337751,11.05175302530958,-0.44162714246411644
-2.2332142847449443,-0.2213444407656115,-1.8221134849499883,-3.799822624802151,10.814376280906444,-0.44077712627092036
-2.2354277291526006,-0.11320067795654705,-1.8601117111980097,-3.8042303960648605,10.577237824100338,-0.4529666502173174
-2.236559735932166,-0.007428299715543665,-1.8981540151586582,-3.8087600625670337,10.337687648342696,-0.4718318722872191
-2.2366340189293217,0.09594857676788329,-1.9362416157843285,-3.813478381289906,10.09249239498256,-0.4904249156926707
-2.2356745331616428,0.1968735007177089,-1.9743763995972277,-3.8183826304468327,9.837948651218895,-0.5013393549598655
-2.2337057981544657,0.29525298722989785,-2.012560225901696,-3.8233960239964313,9.570085396916758,-0.4969551357677398
-2.2307532682821667,0.3909538411990654,-2.0507941861416605,-3.8283655753541086,9.28496883301644,-0.4698237081935946
-2.226843729870176,0.4838035295292298,-2.0890778418952016,-3.8330638124360443,8.979108735166314,-0.41319514291581994
-2.2220056945748836,0.573594616880893,-2.1274084800195623,-3.8371957638652026,8.6499426352055,-0.32165774874744574
-2.2162697484060745,0.660094043232948,-2.1657804376582144,-3.840412341352677,8.29634476938866,-0.19182011673578872
-2.209668807973745,0.7430574909268346,-2.204184561071741,-3.8423305425200347,7.919077594510208,-0.022924737575194587
-2.2022382330644765,0.8222482668719366,-2.2426078664969418,-3.8425597898957866,7.521085842317409,0.18274339973156162
-2.1940157503957574,0.8974591252951107,-2.2810334643959,-3.840732355898471,7.107538864251051,0.4197834540961783
-2.185041159142806,0.9685345139376212,-2.3194407879548846,-3.8365345213575095,6.685563906635915,0.6800217871101557
-2.1753558140034297,1.0353901530039804,-2.35780613316846,-3.8297343034864078,6.263677158069919,0.9532656971086502
-2.16500191247339,1.0980269245846797,-2.396103476203324,-3.8202016465153212,5.85099345955409,1.2283610986479319
-2.154021643227543,1.1565368591802205,-2.4343054926684773,-3.807918035528842,5.456353615842585,1.4943676793289296
-2.142456274635741,1.2111003953386463,-2.4723846730237655,-3.792974358735553,5.087527883889128,1.7416374204656253
-2.1303452706823545,1.2619756741775376,-2.510314416611121,-3.7755579845308964,4.750628166274684,1.9626169575252088
-2.117725513940579,1.3094819558402846,-2.5480699964564297,-3.755931814955644,4.449801354788973,2.1522753012468465
-2.1046306943821764,1.3539799693881742,-2.585629314605986,-3.734409061943176,4.1872060230055155,2.308153414366639
-2.091090894688295,1.3958520296182293,-2.6229734052254177,-3.7113275277995093,3.9632179546672885,2.430108756049365
-2.0771323743921126,1.4354842091649023,-2.660086680503413,-3.6870264402390154,3.7767803005203855,2.519867857144618
-2.062777532300464,1.473252012170106,-2.696956944905803,-3.661827761667569,3.6258120453380935,2.5805025962254025
-2.0480450121787626,1.509510132623487,-2.7335752225224788,-3.636022735705315,3.5076054957995653,2.615922668579169
-2.0329499108525275,1.5445861875814826,-2.769935449879532,-3.6098635090195232,3.419168530289029,2.630442930676494
-2.0175040489767126,1.5787778728843729,-2.806034084969727,-3.5835590797127583,3.357491403907564,2.6284520039188557
-2.001716270247869,1.6123527869234484,-2.841869675766855,-3.5572745596735698,3.3197360776381966,2.614184289297026
-1.9855927423786346,1.6455501476998304,-2.8774424213635905,-3.5311327167805997,3.303357110423548,2.591582951596596
-1.9691372409016363,1.678583718804066,-2.9127537485313963,-3.5052168872646337,3.3061681355963075,2.5642350269714895
-1.9523514037135956,1.711645400160029,-2.9478059174040427,-3.4795745369949187,3.3263687155239405,2.5353590115809723
-1.9352349497119954,1.7449090873152684,-2.982601662773992,-3.454220946879109,3.3625447606700183,2.507827615102081
-1.9177858588388428,1.7785345349219686,-3.0171438722427832,-3.4291426707280883,3.4136530925990893,2.484211951436933
-1.9000005134896232,1.8126710658479595,-3.051435298950064,-3.4043005512137188,3.4789979912468887,2.4668371335809556
