th1 (rad),w1 (rad/s),th2 (rad),w2 (rad/s)
1.45209507083349,-1.1196852392963161,2.951559432557592,0.1793885860245566
1.440898218440527,-1.2159744106356412,2.9533533184178378,0.15523482146363946
1.4287384743341707,-1.3122271231344569,2.9549056666324742,0.12774765335027272
1.415616203102826,-1.4084647214067332,2.956183143165977,0.09664973560176363
1.4015315558887587,-1.5047117206881966,2.957149640521995,0.061663908881009595
1.3864844386818767,-1.6009950736434868,2.957766279610805,0.02251319502106379
1.3704744879454418,-1.6973432559513653,2.9579914115610157,-0.021079127758421703
1.3535010553859281,-1.793785157136749,2.9577806202834314,-0.06938933633807669
1.3355632038145606,-1.8903487626861812,2.9570867269200507,-0.12269292437392776
1.3166597161876987,-1.9870596131122553,2.9558597976763115,-0.18126407388646126
1.2967891200565762,-2.083939025446612,2.9540471569374467,-0.24537489314581803
1.27594972980211,-2.1810020628013316,2.9515934080059885,-0.31529437450977993
1.2541397091740967,-2.278255238343501,2.948440464260891,-0.39128702401065485
1.2313571567906616,-2.3756939415130183,2.9445275940207845,-0.47361111378872445
1.2076002173755314,-2.4732995768479937,2.9397914828828973,-0.5625165092836906
1.1828672216070515,-2.571036409659978,2.9341663177900603,-0.6582420258228814
1.1571568575104516,-2.6688481183312036,2.9275838975318313,-0.7610122743301623
1.1304683763271395,-2.7666540604933147,2.91997377478853,-0.8710339637930065
1.1028018357222062,-2.8643452700702654,2.9112634351506,-0.9884916393363972
1.0741583830215036,-2.9617802143495164,2.901378518757236,-1.1135428496907125
1.0445405808780084,-3.0587803550161614,2.890243090260329,-1.2463127568458043
1.0139527773278467,-3.1551255744443316,2.877779962691871,-1.386888223944092
0.9824015215834034,-3.250549548318922,2.86391108045243,-1.5353114449545215
0.9498960261002142,-3.3447351674819776,2.848557966002885,-1.6915732110792256
0.9164486744253943,-3.437310135153948,2.8316422338920924,-1.8556059435351915
0.8820755730738549,-3.5278428895221072,2.8130861744567404,-2.027276659321611
0.8467971441786338,-3.615839025042087,2.792813407863524,-2.20638007447275
0.8106387539282129,-3.7007384074032474,2.7707496071187965,-2.3926320864488675
0.7736313698541805,-3.7819131955827436,2.746823286254308,-2.5856639118824774
0.735812237898353,-3.8586669983340522,2.720966647135483,-2.7850171859791777
0.6972255679150126,-3.930235400437719,2.6931164752756915,-2.9901403537084406
0.6579232139106354,-3.995788094786527,2.663215071738607,-3.2003866990419074
0.6179653329627701,-4.054432848665059,2.631211204748188,-3.415014365831639
0.5774210044761195,-4.105221515184613,2.597061061089872,-3.633188721772657
0.5363687893242735,-4.147158272324384,2.5607291738721454,-3.8539874047653417
0.4948972066010296,-4.179210230536206,2.522189299824492,-4.076408368230454
0.4531051042956675,-4.200320492810805,2.4814252161421875,-4.299381207237875
0.4111018993675595,-4.209423675033668,2.4384314040698087,-4.521781998251705
0.3690076626172228,-4.205463795182293,2.3932135840872917,-4.742451817962524
0.3269530246653999,-4.187414313033284,2.3457890659076663,-4.960219015798039
0.28507888153506705,-4.1542999440714725,2.296186875749686,-5.173925194413607
0.24353588209435234,-4.105219681367036,2.24444762380555,-5.382454697948763
0.20248368528068197,-4.039370241235821,2.1906230768260624,-5.584767217803727
0.16208998286832377,-3.956068913410483,2.134775404648025,-5.779932905398594
0.12252929373421895,-3.8547745636195025,2.076976075594039,-5.967169145564696
0.08398154809802391,-3.7351053338701807,2.0173043841383924,-6.145877918996386
0.04663049475932211,-3.5968514477141476,1.9558456049484285,-6.315682504850956
0.010661980282180628,-3.4399814901534334,1.892688779899919,-6.476462190419347
-0.023737834619353707,-3.264640624488108,1.8279241579957255,-6.628383710700191
-0.05638424086423478,-3.071139446512076,1.7616403208887237,-6.7719283762527995
-0.08709563532935555,-2.8599325526343744,1.6939210371261957,-6.907914285360808
-0.11569496085569929,-2.6315863782595175,1.6248418942725875,-7.037513653679248
-0.14201082463829445,-2.386736386013445,1.5544667577357951,-7.162266099551497
-0.1658781884984289,-2.126034173504448,1.48284409674028,-7.284089636953827
-0.18713853023347338,-1.8500854510534717,1.410003200370742,-7.405292069421154
-0.20563938474400809,-1.5593800601237917,1.3359502796765304,-7.528586348457515
-0.221233185345246,-1.254215270646458,1.2606644161919551,-7.65711413469193
-0.23377533805171058,-0.9346136260715738,1.184093274845036,-7.794482091447505
-0.2431214743124263,-0.6002369100322997,1.1061484539305608,-7.9448149915185216
-0.24912384341274932,-0.2502990691885005,1.0267003040153757,-8.112827759748479
-0.2516268341046343,0.11651543207934029,0.945572026417891,-8.303913393451866
-0.25046167978384093,0.5021123515438588,0.8625328924833723,-8.524231499612062
-0.24544055626840233,0.9089914253163531,0.7772905774872516,-8.780754648051337
-0.2363506420152388,1.340111797398662,0.6894830310067382,-9.081169043276164
-0.22294952404125218,1.7984414102754327,0.5986713405739766,-9.433395407458951
-0.20496510993849784,2.2858160391728615,0.5043373864993871,-9.844225997472007
-0.18210694954676923,2.8003663724050103,0.405895126524667,-10.316061865204903
-0.15410328582271912,3.3312281311819043,0.302734507872618,-10.839959994490973
-0.12079100451090008,3.849037112983754,0.1943349079277083,-11.382836116780242
-0.08230063338106254,4.293217058218079,0.08050654675990589,-11.86998595674377
-0.03936846279888175,4.567752253173058,-0.03819331280753181,-12.178647624211319
0.006309059732848829,4.573712601463624,-0.159979789049645,-12.181111121131131
0.052046185747485076,4.285232995005773,-0.2817909002609563,-11.846374004073022
0.0948985156975428,3.786181018611617,-0.40025464030168656,-11.287451311626619
0.132760325883659,3.2008409566529643,-0.5131291534179527,-10.666111084998667
0.16476873545018864,2.6147886895694805,-0.6197902642679394,-10.088333785309036
0.19091662234588344,2.0640339141806376,-0.7206736021210297,-9.59333481275082
0.21155696148768982,1.5563446011781594,-0.8166069502485379,-9.184034874709674
0.2271204074994714,1.0884302221177842,-0.9084472989956347,-8.850239941904094
0.23800470972064924,0.6540792333334311,-0.9969496984146756,-8.579089616294109
0.24454550205398357,0.247206400714175,-1.0827405945776167,-8.358657460955323
0.24701756606112532,-0.13723151832885472,-1.16632716918717,-8.178814126702775
0.24564525087783678,-0.5030971594028928,-1.2481153104541978,-8.031167207888045
0.24061427928380785,-0.8531810263282376,-1.3284269825330781,-7.908759247354598
0.23208246902052548,-1.1893666258146145,-1.407514575006624,-7.805754391800733
0.22018880276237934,-1.5127907421134843,-1.4855721189246314,-7.717179675117172
0.2050608953412445,-1.82398382598563,-1.5627439156758032,-7.638730770174306
0.1868210570813882,-2.1229909120224413,-1.6391312233775461,-7.566634938038403
0.16559114796116378,-2.4094774812629516,-1.71479757275793,-7.49756013090752
0.14149637314853428,-2.682824635853902,-1.7897731740670053,-7.428559536098043
0.11466812678999526,-2.9422166200038427,-1.8640587694279858,-7.357042120242898
0.08524596058995683,-3.1867221563387864,-1.9376291906304148,-7.28076099865556
0.053378739026568964,-3.4153696837609924,-2.0104368006169704,-7.197812552215443
0.01922504218895904,-3.6272155606983665,-2.082414926139125,-7.106640226054765
-0.017047113418024624,-3.821403714147771,-2.1534813283996725,-7.00603799009742
-0.055261150559502335,-3.9972150844962475,-2.2235417083006466,-6.895149594931113
-0.09523330140446482,-4.1541054959130825,-2.2924932042499577,-6.773461019364656
-0.13677435636359564,-4.291731176783316,-2.360227814443604,-6.640784812009727
-0.1796916681314288,-4.40996193009641,-2.4266356625637013,-6.497236267223581
-0.2237912874323929,-4.508882760588383,-2.491608025235937,-6.343202423378384
-0.26888011503827675,-4.588785466983554,-2.555040049469721,-6.179305628733141
-0.31476796970811227,-4.650152203851359,-2.6168331057570526,-6.006363834278709
-0.36126949174662587,-4.69363325914555,-2.6768967440998397,-5.8253498477146906
-0.4082058243380814,-4.7200212831085935,-2.7351502425769865,-5.637351573101168
-0.45540603716916733,-4.730223986176755,-2.7915237583079984,-5.443534855280324
-0.5027082770309349,-4.725236966531197,-2.8459591068608017,-5.245110047002409
-0.5499606466962469,-4.706117906834659,-2.8984102073308255,-5.043302911222002
-0.5970218257645935,-4.67396296047603,-2.9488432364430457,-4.839330030081041
-0.6437614553693538,-4.629885778441645,-2.997236536743856,-4.634378556046117
-0.6900603131537703,-4.57499933604887,-3.0435803223043174,-4.429589922652374
-0.7358103065142589,-4.5104005125573385,-3.0878762215308413,-4.226047024086149
-0.7809143116398323,-4.437157250160595,-3.130136691771703,-4.024764352669792
-0.8252858841414382,-4.356298057384591,-3.170384335298401,-3.826680623613932
-0.8688488647152841,-4.268803607216956,-3.2086511415345402,-3.6326534898728458
-0.9115369007874536,-4.175600194424369,-3.2449776764332685,-3.443456033588429
-0.9532929027316973,-4.077554844356965,-3.279412236769153,-3.259774797771876
-0.994068451175267,-3.9754718959510695,-3.312009984746872,-3.082209182591103
-1.0338231701347778,-3.8700909076490895,-3.342832076572783,-2.9112720709224402
-1.0725240792112687,-3.762085753250546,-3.371944797282007,-2.747391568322021
-1.1101449367437741,-3.652064784802716,-3.399418712965227,-2.5909137469522063
-1.1466655845918012,-3.5405719429054434,-3.425327850434749,-2.4421062764733694
-1.1820713040208557,-3.428088693580163,-3.4497489131994827,-2.3011628129781694
-1.2163521909566573,-3.3150366677118916,-3.4727605413292646,-2.1682080045801864
-1.2495025576337762,-3.201780876308072,-3.4944426213750663,-2.043302962984656
-1.2815203663968568,-3.0886333741402523,-3.514875651004913,-1.92645104660075
-1.3124067001382593,-2.9758572467565925,-3.5341401614709205,-1.8176038035000515
-1.3421652726058253,-2.863670801717453,-3.552316199505921,-1.7166669316601633
-1.3708019806229998,-2.7522518540037337,-3.5694828688225226,-1.623506128515198
-1.3983244991630372,-2.6417420072814712,-3.5857179301076747,-1.5379527204363945
-1.424741919235852,-2.532250846262561,-3.6010974573120387,-1.4598089837639534
-1.4500644276984775,-2.4238599699004286,-3.615695547149678,-1.3888530908264383
-1.4743030273974818,-2.31662680977126,-3.6295840780579427,-1.3248436356439486
-1.4974692954951943,-2.210588192013868,-3.642832514414382,-1.267523713640551
-1.519575177415333,-2.1057636140999363,-3.6555077515507874,-1.2166245469437937
-1.5406328135563323,-2.0021582191244076,-3.6676739970202252,-1.171868661293411
-1.5606543957475765,-1.899765460052051,-3.6793926836331594,-1.1329726320592157
-1.579652050348097,-1.7985694543799804,-3.6907224099537514,-1.0996494254372329
-1.5976377448918968,-1.6985470360348753,-3.701718904208124,-1.0716103667663157
-1.6146232152522455,-1.599669516151928,-3.7124350078757873,-1.0485667713968916
-1.6306199104137649,-1.5019041678605576,-3.7229206755897564,-1.0302312750126088
-1.6456389520923704,-1.405215452531903,-3.7332229883398824,-1.0163189001320443
-1.6596911066176894,-1.3095660063297954,-3.7433861773412027,-1.006547894066111
-1.6727867666809872,-1.214917406544027,-3.7534516562818636,-1.0006403712119631
-1.6849359407464275,-1.121230737246425,-3.763458059993983,-0.9983227895207136
-1.6961482481188916,-1.0284669734464371,-3.7734412878891903,-0.9993262875350502
-1.706432917853356,-0.9365872022580922,-3.783434550764541,-1.00338690476136
-1.7157987898759368,-0.8455526987241516,-3.793468419812154,-1.0102457044864306
-1.7242543168631783,-0.7553248729536748,-3.8035708768570187,-1.0196488146026599
-1.731807565592715,-0.6658651041749329,-3.8137673650030455,-1.0313473986691644
-1.7384662166344642,-0.5771344762304744,-3.824080838989737,-1.045097566385593
-1.7442375613967689,-0.4890934279779888,-3.834531814653593,-1.0606602299477839
-1.7491284956765487,-0.40170133103513067,-3.845138416953071,-1.077800910432186
-1.7531455089869,-0.3149160063409346,-3.855916426057393,-1.0962894964520637
-1.7562946690503092,-0.22869319012327882,-3.866879321021914,-1.1158999558704874
-1.758581600951542,-0.14298595908683603,-3.8780383205806186,-1.1364100003696356
-1.7600114605424104,-0.05774412400142104,-3.889402420584315,-1.1576007021930468
-1.7605889017824246,0.02708639958148136,-3.9009784276062454,-1.1792560624351824
-1.7603180377866097,0.11156423497142982,-3.912770988230597,-1.2011625309019855
-1.7592023954368954,0.19575319373645383,-3.924782613539617,-1.2231084788764701
-1.7572448634995308,0.27972292176237723,-3.9370136983283817,-1.244883628188773
-1.754447634281907,0.3635495318850569,-3.9494625346102694,-1.2662784429358838
-1.7508121389630564,0.44731621136516814,-3.9621253190396284,-1.2870834941863973
-1.7463389768494046,0.5311137900220707,-3.9749961539814924,-1.3070888132499763
-1.741027838949184,0.61504125138011,-3.9880670421139923,-1.3260832558523707
-1.734877426435383,0.6992061644758919,-4.001327874672516,-1.3438539081549916
-1.727885364790624,0.7837250077652648,-4.0147664137540655,-1.3601855763719413
-1.7200481147129714,0.8687233485650865,-4.0283682695177845,-1.374860415198279
-1.7113608812273204,0.9543358313671668,-4.042116873669768,-1.387657766836836
-1.7018175229136487,1.0407059158852907,-4.055993451338136,-1.3983543025604468
-1.6914104637547958,1.1279852906169763,-4.06997699436374,-1.4067245828678832
-1.680130610848626,1.216332869928824,-4.084044240192419,-1.4125421806068563
-1.6679672821493379,1.3059132623598555,-4.0981696619984875,-1.4155815438299635
-1.6549081495257394,1.39689457553403,-4.112325477436787,-1.415620810924674
-1.6409392037703991,1.4894453999534891,-4.126481685546034,-1.4124458281071133
-1.6260447497708643,1.5837307920858699,-4.140606143827106,-1.405855655721536
-1.6102074418500056,1.6799070598965333,-4.154664700384322,-1.3956698800561422
-1.5934083712510403,1.7781151462926357,-4.168621399184883,-1.3817380641318042
-1.575627219788114,1.8784724148461336,-4.182438779826201,-1.363951663520208
-1.5568424956396527,1.981062676916506,-4.196078296461403,-1.342258687438315
-1.5370318688704876,2.0859243713536912,-4.209500883335786,-1.3166812832479984
-1.5161726251569507,2.193036930283668,-4.222667696168266,-1.2873362434260667
-1.494242255854114,2.302305549895175,-4.235541058602526,-1.2544581570347275
-1.4712192003551623,2.41354484342507,-4.2480856401728735,-1.218424535710542
-1.4470837519209117,2.5264621869019863,-4.260269885529979,-1.1797817311348016
-1.4218191300518919,2.640641965416624,-4.272067702841327,-1.1392698410845403
-1.3954127103977256,2.755532357506783,-4.283460401252173,-1.0978441197570517
-1.3678573868226578,2.8704367010016614,-4.294438842449743,-1.056689750934357
-1.3391530198126411,2.984511781653382,-4.305005739959086,-1.0172263401321087
-1.3093079019961074,3.0967754709180904,-4.3151780033604075,-0.9810983023018446
-1.2783401472869265,3.206125900200301,-4.324988986383426,-0.9501476479752426
-1.2462788882849234,3.3113737045949576,-4.334490462863179,-0.9263666603534079
-1.2131651512389738,3.411287761355724,-4.343754129466713,-0.9118296865667158
-1.1790522736254165,3.504653333167475,-4.35287242633238,-0.9086056812676248
-1.1440057402937418,3.5903397536083026,-4.361958483145056,-0.9186560104046352
-1.1081023427576588,3.6673730115462444,-4.371145043249102,-0.9437249440026901
-1.0714286126421964,3.735007120154764,-4.380582292689129,-0.9852327088034888
-1.0340785414406488,3.7927873235171496,-4.390434619777165,-1.0441823724131165
-0.9961506682054773,3.8405982685885776,-4.4008764435012955,-1.1210917222627415
-0.9577446855195915,3.878691391698208,-4.412087360723923,-1.2159594428355678
-0.9189577716026094,3.907687890907703,-4.424246955152279,-1.3282713697145259
-0.8798808926935323,3.92855652306615,-4.437529668849424,-1.4570478666464015
-0.8405953274628708,3.942568633205899,-4.452100147515888,-1.6009282139661827
-0.8011696411308118,3.951235736620518,-4.46810942965555,-1.758283272381819
-0.7616572837646066,3.9562370848327517,-4.485692262379368,-1.927344503872551
-0.7220949129162791,3.9593455663941266,-4.504965707418093,-2.106336303154242
-0.6825014572523379,3.96235990365009,-4.526029070449636,-2.293599656717033
-0.642877858215837,3.9670495949363676,-4.548965067016806,-2.4876980333713408
-0.6032073622664733,3.975116848316451,-4.57384204735052,-2.687500377698407
-0.5634561937833088,3.988177392925254,-4.600717051127504,-2.8922402519785884
-0.5235744198540563,4.007760022621631,-4.6296394536472905,-3.1015538034159804
-0.48349681962783997,4.035323347362619,-4.66065499168145,-3.315501869331162
-0.4431435861542138,4.072287623160911,-4.6938100103747615,-3.534583065064613
-0.4024207099226047,4.120079653134439,-4.729155841025408,-3.759745299461826
-0.3612199133912603,4.18018944696177,-4.766753294020027,-3.9924031601195145
-0.3194180189216426,4.254238402947958,-4.806677325621222,-4.234468361991237
-0.27687563489216305,4.344060042547994,-4.849022009241135,-4.488400233913082
-0.2334350344666831,4.45179556705358,-4.893906011580266,-4.7572831207905555
-0.1889170787961473,4.5800073770391885,-4.941478842788172,-5.044937360586758
-0.14311700502575542,4.731813448904071,-4.991928216394039,-5.356069228024778
-0.09579887053671471,4.911042296153637,-5.045488908674287,-5.696460461917636
-0.046688447575178336,5.122397767907241,-5.102453513293463,-6.073183643766684
0.004535530103894077,5.371594559946558,-5.163185349731131,-6.4947910946023635
0.05825147570335966,5.665353751589917,-5.228133260677154,-6.971326991832287
0.11490501321925883,6.010973998699697,-5.297846530595477,-7.513772950215406
0.1750147532062558,6.414789019424636,-5.372984260097631,-8.131975609196017
0.23916264340050217,6.877948957483197,-5.4543040161895915,-8.828887732155026
0.3079421329753341,7.38643939586295,-5.5425928935111415,-9.586818492671432
0.3818065269339636,7.891330101491542,-5.638461078437856,-10.340066617910328
0.460719827948879,8.282885988299961,-5.741861744616959,-10.938910038329844
0.5435486878318786,8.396745982749959,-5.851250845000258,-11.15813619626383
0.6275161476593782,8.122830038025697,-5.962832206962896,-10.848419545542825
0.7087444480396352,7.544080958030549,-6.071316402418325,-10.128123689513782
0.7841852576199407,6.862120217660495,-6.172597639313462,-9.277942041302246
0.8528064597965457,6.216734680182328,-6.265377059726485,-8.490595350378026
0.9149738065983689,5.65324849629521,-6.350283013230265,-7.82764611251102
0.9715062915613211,5.170788429401879,-6.428559474355375,-7.287376257658551
1.02321417585534,4.7555057800838085,-6.501433236931961,-6.8507873957544705
1.070769233656178,4.392774081470393,-6.569941110889506,-6.498261646925483
1.114696974470882,4.0703035744581815,-6.6349237273587605,-6.213696817907832
1.1554000102154638,3.778396804834281,-6.6970606955378384,-5.984752114908975
1.1931839782638065,3.5095061416865616,-6.756908216686928,-5.802168761175485
1.2282790396806722,3.2577297674713965,-6.814929904298683,-5.659024147743814
1.2608563373553863,3.018400374971698,-6.871520145776121,-5.550118679469015
1.2910403411051032,2.7877824675541154,-6.927021332570812,-5.471508119840061
1.3189181657806444,2.5628610144302386,-6.981736413769212,-5.420151021206843
1.3445467759249468,2.341201038691364,-7.0359379239812805,-5.393637814195707
1.3679587863118603,2.1208616394127575,-7.0898743021232375,-5.3899745385516455
1.389167402705988,1.900352336089011,-7.143774047508754,-5.407401498715544
1.408170926066878,1.678622749146045,-7.197848062495909,-5.444233508138028
1.4249571535583385,1.4550781621786413,-7.25229039757729,-5.498713944447357
1.439507935180125,1.2296134643597354,-7.307277537021763,-5.568880089481606
1.4518040698237222,1.0026564680569245,-7.362966337916579,-5.652442604889842
1.4618306345042915,0.7752089217944904,-7.419490763965478,-5.746687589083104
1.4695827237222365,0.5488703098748539,-7.476957639856309,-5.848415015214574
1.475071426820985,0.32582688120403,-7.535441790008455,-5.95393127099449
1.4783296956330254,0.1087879855254669,-7.5949811027184,-6.059114084121686
1.4794175754882801,-0.09914428442034023,-7.655572243559616,-6.159563070982159
1.4784261326440766,-0.29467641882257767,-7.717167874269438,-6.250836923022796
