th1 (rad),w1 (rad/s),th2 (rad),w2 (rad/s)
6.235752141302186,-1.0476464336673872,3.6259852597574174,1.447450744169614
6.225275676965512,-1.0136024458094688,3.6404597671991135,1.5279942450220152
6.215139652507418,-0.9796612092737105,3.6557397096493336,1.6091246029945179
6.2053430404146805,-0.9460656102192132,3.6718309556792788,1.6906584535854268
6.195882384312489,-0.9130529901909028,3.6887375402151332,1.7724291509633536
6.18675185441058,-0.8808538968263453,3.706461831724767,1.854288286131033
6.177943315442317,-0.8496910845349187,3.725004714586077,1.936106853852543
6.169446404596967,-0.8197787693911935,3.7443657831246027,2.0177760849786117
6.161248616903055,-0.7913221350068942,3.764543543974389,2.0992079722190184
6.153335395552986,-0.7645170799184434,3.785535623696579,2.1803355266431153
6.1456902247538014,-0.7395501922627843,3.8073389789630103,2.26111280908104
6.138294722831174,-0.7165989343083904,3.8299501070538207,2.341514785176312
6.13112873348809,-0.6958320177514666,3.853365254905584,2.42153705528948
6.124170413310575,-0.6774099504845699,3.877580625458479,2.5011955110772957
6.11739631380573,-0.6614857366405666,3.9025925805692516,2.5805259697581566
6.110781456439325,-0.6482057139174433,3.9283978402668334,2.6595838352506385
6.10429939930015,-0.6377105152949039,3.95499367861934,2.738443832975564
6.097922294147201,-0.6301361460649758,3.9823781169490955,2.817199862564812
6.091620932686552,-0.6256151714411881,4.010550115574744,2.8959650104096006
6.08536478097214,-0.6242780147414752,4.03950976567884,2.974871762250923
6.079122000824725,-0.6262543711526807,4.06925848330135,3.054072455161146
6.072859457113198,-0.6316747473096748,4.0997992078529615,3.1337400085371616
6.0665427096401014,-0.6406721423210089,4.131136607938333,3.2140689753256018
6.060135988216891,-0.6533838914271035,4.1632772976915895,3.2952769577884458
6.053602149302621,-0.669953699169316,4.196230067269474,3.377606436801835
6.0469026123109275,-0.6905338947346488,4.230006131637492,3.4613270700030325
6.039997273363581,-0.7152879479036731,4.264619402337523,3.546738521994246
6.032844393884544,-0.7443932895034715,4.300086787557466,3.63417389902855
6.02540046098951,-0.7780444849203643,4.336428526547751,3.724003870573591
6.017620016140306,-0.8164568120609031,4.373668565253487,3.8166415697444926
6.009455448019697,-0.8598702943733842,4.411834980950932,3.912548371717461
6.000856745075963,-0.9085542320275651,4.450960464668106,4.012240650102592
5.991771202755688,-0.962812254719887,4.491082871169132,4.1162975992162325
5.9821430802084885,-1.0229878786692417,4.5322458471612945,4.225370173686218
5.971913201421796,-1.0894704726853202,4.574499548898157,4.340191115905906
5.961018496694943,-1.1627013975265021,4.617901460057215,4.461585882309681
5.949391482719678,-1.2431798349103087,4.662517318880312,4.590483982763042
5.936959684370575,-1.3314673930084566,4.7084221587079425,4.72792971378611
5.923645010440491,-1.4281898388766838,4.755701455845804,4.875090326451275
5.909363112051724,-1.5340330559451734,4.804452359110317,5.033258037905565
5.894022781492272,-1.649728211418148,4.854784939489373,5.203839495818045
5.877525499378091,-1.7760175883020828,4.906823334447553,5.388321563962532
5.85976532349507,-1.9135867343604502,4.9607065500871785,5.588194411420825
5.840629456151466,-2.0629393079908502,5.016588494201387,5.804800147986478
5.820000063071557,-2.2241769354491576,5.0746364956812515,6.039055704462766
5.797758293717066,-2.3966271805683967,5.135027052725879,6.290971578116713
5.773792021911381,-2.578242499960446,5.197936768507046,6.558858733657476
5.748009596911777,-2.7646894963783137,5.263525355843621,6.83810815871279
5.720362701947994,-2.948110424400509,5.3319064374307485,7.119509074178285
5.690881597703989,-3.1157706184439333,5.403101528172531,7.387384668794228
5.659723891519549,-3.2493341717917605,5.476975374860473,7.618546973968135
5.627230549801632,-3.3262552831554557,5.553160844600154,7.784098408218916
5.593967996970077,-3.324899499240288,5.631001828682344,7.856288914064891
5.560719001977675,-3.2328775449445972,5.7095647178229925,7.819715391521917
5.528390226528229,-3.0537994203254826,5.787761871738212,7.6803004376158555
5.497852232324974,-2.8064123045536733,5.864564876114371,7.463859802495941
5.469788109279437,-2.5162172612250506,5.9392034741393305,7.204557449647666
5.444625936667187,-2.2063390519478183,6.011249048635807,6.932606415049855
5.4225625461477085,-1.8930311358509857,6.080575112786305,6.668454880449363
5.403632234789199,-1.5856796481365656,6.147259661590799,6.423080638776615
5.387775438307833,-1.2887196251923225,6.211490467978566,6.2007711139050725
5.37488824205591,-1.0036117154177042,6.273498179117617,6.001875420868407
5.3648521249017325,-0.7302561778451158,6.333516933326301,5.824725488702674
5.357549563123281,-0.4678512990325961,6.391764188213328,5.666773968615211
5.352871050132955,-0.2153667617019535,6.44843192789948,5.5252025332028705
5.350717382515936,0.02821414264695496,6.5036839532315085,5.3972196241997565
5.350999523942406,0.26378109094704205,6.557656149473506,5.28019030455159
5.353637334851876,0.4920518248880529,6.610458052519022,5.171680833179535
5.3585578531007565,0.713562411083897,6.662174860850818,5.0694629522643995
5.365693477211596,0.9286748888485165,6.712869490373461,4.971501416809976
5.374980226100081,1.1375931102129284,6.762584504541561,4.875936616641451
5.38635615720221,1.3403821640693483,6.811343870707975,4.78106794583358
5.399759978842903,1.5369891671218474,6.859154550166311,4.685340341129676
5.4151298705141215,1.727264409168696,6.906007953577608,4.587334744377451
5.432402514605808,1.910982412065068,6.951881301021382,4.4857623964146205
5.4515123387264595,2.087862700224634,6.996738924985529,4.379462447470189
5.472390965728706,2.257590148446851,7.040533549460231,4.2674021679775
5.494966867213174,2.4198347594208824,7.083207571140006,4.14867895995456
5.519165214807383,2.5742706780707065,7.124694360739552,4.022523351341036
5.54490792158809,2.7205942008675517,7.164919594252963,3.8883021791281176
5.5721138635967655,2.8585405008968494,7.203802616044244,3.745521220039035
5.600699268605734,2.9878987719541166,7.241257828244634,3.5938266039724436
5.630578256325275,3.108525500624422,7.277196094284358,3.4330044415623293
5.661663511331519,3.2203556043383483,7.311526138699981,3.262978209538118
5.693867067374903,3.3234112237845967,7.344155920795362,3.083803562251681
5.727101179612749,3.417808026366688,7.374993956417879,2.895660370450088
5.7612792598764155,3.5037589593400615,7.40395056012238,2.698841924364283
5.796316849469816,3.581575482134066,7.430938979366022,2.493741372375259
5.832132604291157,3.6516664022358407,7.455876393089775,2.2808355935727285
5.868649268313516,3.7145345329100015,7.478684749025502,2.0606668169098574
5.905794613642616,3.77077147896773,7.499291417194601,1.833822395817622
5.943502328432293,3.821050933865875,7.517629641152777,1.6009132197992861
5.981712837770952,3.8661209328847326,7.53363877335077,1.3625512892530653
6.020374047099799,3.9067955486459223,7.5472642862433,1.1193269937822823
6.059442002586258,3.9439465329770065,7.558457556181123,0.8717866173642741
6.098881467916028,3.978495399870437,7.567175422354766,0.6204105494409782
6.138666421914732,4.0114064050491285,7.573379527849176,0.36559261752424455
6.178780485965223,4.0436808048246355,7.5770354540244185,0.10762088859564983
6.21921729401347,4.076352664431679,7.578111662910375,-0.15333976441876013
6.259980820657787,4.110486322101795,7.576578265266187,-0.4172630355371685
6.301085683878805,4.147175377171426,7.572405634910815,-0.6842741037282032
6.342557437650519,4.187542716617298,7.565562893873533,-0.9546594288084826
6.3844328648166915,4.2327405500742925,7.5560162995854485,-1.2288721932890558
6.426760270317434,4.28394856033998,7.543727577652558,-1.507531113616139
6.469599755920834,4.342366879639277,7.528652266516397,-1.791408515691424
6.513023424717227,4.40919832126702,7.510738181359482,-2.081400469472818
6.557115407929897,4.4856105827418125,7.489924176664754,-2.378466646114539
6.601971513757316,4.572663186224064,7.466139510203609,-2.6835192876306833
6.6476981456195565,4.67117471359977,7.439304317327302,-2.997227855465969
6.694409892755554,4.781492591924747,7.409332038772642,-3.3196874111482146
6.742224818674802,4.903111118135632,7.37613516466116,-3.649875782209816
6.791255929856158,5.034070219482287,7.339636406839062,-3.984806441884569
6.8415966320509805,5.170079587464646,7.299788342420216,-4.318301633998712
6.893297427925627,5.303403739376751,7.256605326080229,-4.639438581122601
6.946331465319394,5.421807547380504,7.210210940269003,-4.931092712600457
7.000549540793199,5.508372786191672,7.1609000131429985,-5.1697185745358905
7.055633268655115,5.5435439268468185,7.10920282739764,-5.328273617586775
7.111068707923583,5.510434558745739,7.055920091221772,-5.383719577967482
7.166173053511041,5.40203076783258,7.002082895442097,-5.327156668545461
7.2201933611893665,5.22558586834614,6.948811328756642,-5.169950233161981
7.272449219872828,4.999997197598162,6.897111826425022,-4.939938538662864
7.32244919184881,4.747895395106057,6.847712441038394,-4.67019652354759
7.369928145799871,4.488437456175085,6.801010475802918,-4.388820051371923
7.414812520361622,4.234358943374902,6.757122275289198,-4.114740992099202
7.4571561097953705,3.9924950995231634,6.7159748653682065,-3.8584517846470647
7.497081060790602,3.765578877532782,6.677390347521736,-3.6245432338455092
7.53473684956593,3.5539346292513185,6.641144915183281,-3.4141029548607125
7.570276195858443,3.356653532908443,6.607003885634674,-3.226386386553264
7.603842731187528,3.172295537932065,6.574740021769141,-3.0598203963307262
7.635565686566848,2.9992700231451677,6.544141817805834,-2.912552411377243
7.6655583867983,2.8360253507079474,6.515016293692062,-2.7827280213816996
7.693918640305379,2.681132956868119,6.487189013478245,-2.6686177790722563
7.720729969874061,2.533316354154155,6.460502835687523,-2.568664456981453
7.7460631334156025,2.3914529652131815,6.434816191117708,-2.481490434189299
7.769977663067734,2.254563678581043,6.410001286775815,-2.40588650561102
7.792523299853545,2.1217978058778866,6.3859424217197045,-2.340793198041967
7.813741277912324,1.9924172401493068,6.362534489739285,-2.285280158850191
7.833665450313816,1.8657815714441162,6.339681688150783,-2.238526257790616
7.852323266028257,1.7413348633401402,6.317296425572877,-2.1998015220976943
7.869736614661659,1.6185942695013085,6.2952984103519,-2.1684512566222955
7.885922557356672,1.4971404220660571,6.273613897785677,-2.143882330408019
7.900893961577332,1.376609419624678,6.252175074481597,-2.125551448518682
7.914660055773579,1.2566862104163967,6.23091955999641,-2.11295517145658
7.927226917877743,1.137099168554088,6.2097900082818445,-2.1056214401655766
7.938597909563284,1.0176156780072798,6.188733793880188,-2.103102384032583
7.948774066343357,0.8980385608211465,6.167702770039862,-2.104968217854835
7.957754451951568,0.7782032078153653,6.146653087861314,-2.1108020641192136
7.965536484029722,0.6579752896750851,6.125545067220123,-2.1201955656989964
7.972116236926473,0.5372489431866495,6.104343111563133,-2.132745179770651
7.977488726358339,0.41594534134479033,6.083015659765427,-2.1480490659495697
7.981648179771787,0.29401156745155704,6.061535169105931,-2.1657045003729816
7.9845882954463026,0.17141972255792642,6.039878124102201,-2.1853057629521415
7.986302492671882,0.04816620311759562,6.0180250664726795,-2.2064424575669115
7.9867841547030585,-0.07572890803722766,5.99596064189701,-2.2286982348765334
7.986026865622686,-0.2002223889344967,5.973673659548245,-2.2516498949426738
7.984024641733341,-0.3252484106488661,5.951157160598818,-2.274866852256424
7.980772157626852,-0.45071909664525617,5.928408492076254,-2.2979109492723357
7.976264966660399,-0.5765251470412542,5.90542938258353,-2.32033660642695
7.970499715189987,-0.7025365610522435,5.882226016519261,-2.3416912971222072
7.963474349579464,-0.8286034862839475,5.8588091035480385,-2.361516335578919
7.955188314716624,-0.954557218861986,5.83519394019225,-2.379347964136386
7.945642742528004,-1.080211373733138,5.811400460550886,-2.3947187248413435
7.934840628790672,-1.2053632399938157,5.787453273302472,-2.407159098394069
7.922786996390734,-1.3297953319943465,5.763381682318531,-2.4161993920501117
7.90948904307079,-1.4532771434452316,5.73921968839803,-2.4213718572148677
7.894956271636338,-1.5755671090093126,5.7150059698258815,-2.4222130174310883
7.879200600546245,-1.6964147760443804,5.69078383965157,-2.418266188332952
7.862236452785801,-1.8155631883156598,5.666601177768241,-2.409084172840327
7.8440808209026445,-1.932751483551767,5.642510336039837,-2.3942321171051177
7.824753306067127,-2.047717707442298,5.618568014868786,-2.3732905149875725
7.804276128992703,-2.160201847673644,5.59483510971891,-2.345858350405128
7.782674110515967,-2.269949092313069,5.571376526214859,-2.311556366844385
7.759974619592836,-2.3767133165872925,5.548260962546415,-2.2700304506218734
7.736207486426963,-2.480260800091175,5.525560658040196,-2.2209551080648007
7.711404878426051,-2.5803741719414894,5.503351106959548,-2.1640370057166796
7.685601136706636,-2.676856573712606,5.481710736902381,-2.099018526287954
7.65883257096951,-2.7695360187516997,5.460720551639502,-2.0256812711540992
7.6311372107819935,-2.8582699116473522,5.440463738927962,-1.9438494131627402
7.60255451166552,-2.9429496737018193,5.4210252447963345,-1.853392772522031
7.573125014928502,-3.023505400324891,5.402491317071115,-1.7542294556239835
7.542889960925253,-3.099910456068628,5.384949022514875,-1.6463278646535897
7.511890856364567,-3.172185894917123,5.368485743868339,-1.5297078582705337
7.4801689974153955,-3.240404580278347,5.353188665285634,-1.4044408244271085
7.447764951612612,-3.304694873984298,5.3391442570413625,-1.2706484193318244
7.414718002872769,-3.3652437694815176,5.3264377728480445,-1.1284997348572996
7.381065565177954,-3.422299363768608,5.315152775499471,-0.9782066821975681
7.346842571540268,-3.47617259706031,5.305370708677495,-0.8200174222617433
7.312080845569665,-3.5272382388851553,5.297170534454878,-0.6542077307217822
7.276808463180814,-3.5759351631048006,5.29062845714766,-0.481070252804053
7.241049111549765,-3.6227660294285857,5.28581775461962,-0.30090167240627963
7.204821451255479,-3.668296571411003,5.282808737895557,-0.11398788267147697
7.168138485541369,-3.713154775986382,5.2816688590688425,0.07941270940296005
7.131006937781505,-3.7580303226400793,5.282462986162872,0.27908759326729127
7.0934266345551045,-3.803674727406281,5.285253862095545,0.48489014576242284
7.055389887281041,-3.8509027054057015,5.290102763553169,0.6967611259609896
7.016880860226984,-3.9005953244663165,5.297070374812779,0.9147516970050025
6.977874906982321,-3.9537055713177005,5.306217891782829,1.1390481366860556
6.938337851269144,-4.011266989948248,5.31760837314969,1.3699985656144165
6.898225181369662,-4.07440607358962,5.331308358805834,1.6081421966082703
6.857481120633765,-4.144359080663284,5.347389780771916,1.8542417525123884
6.816037529827132,-4.222493859429515,5.36593219829704,2.1093197387020766
6.773812591232837,-4.310337014442637,5.387025395684061,2.3746990497751597
6.730709221088411,-4.409606139096439,5.410772386181812,2.652047660631031
6.686613159697447,-4.5222454847390265,5.437292862788123,2.943425353316772
6.641390704850057,-4.650460562340282,5.466727116321291,3.2513264785756344
6.594886099226654,-4.796741239707311,5.499240381107048,3.5787045004068387
6.5469186868295814,-4.963850890151105,5.535027426111116,3.928947316410052
6.49728017792807,-5.154735278457721,5.574316899275217,4.305739002963805
6.4457328251434935,-5.372258531673229,5.617374289304855,4.712678877862239
6.392010239826761,-5.618587320622869,5.664501078083477,5.1524082368458775
6.335824366620533,-5.8938975618444305,5.716025160451935,5.624789801596054
6.2768853910020885,-6.1938778767557245,5.772273058467896,6.123405118573178
6.214946612234531,-6.5054134334406655,5.8335071096536275,6.6295091773834445
6.149892477900124,-6.800518029339635,5.899802201427462,7.103543373810218
6.081887297606728,-7.031614001010114,5.970837635165564,7.478565333250874
6.011571157596626,-7.137492411999747,6.0456232884980725,7.668700499166705
5.9401962334766285,-7.070679116478594,6.12231029348974,7.607644554295882
5.869489442311843,-6.834095517041733,6.198386739032698,7.300126585600446
5.801148487141425,-6.484707895205086,6.271388004888703,6.826910232540442
5.736301408189375,-6.094048815209195,6.339657107214107,6.2892744980616975
5.675360920037283,-5.712466381175768,6.402549852194724,5.7588133364700225
5.618236256225526,-5.363507333189558,6.460137985559425,5.269524587949864
5.56460118289363,-5.053514269956844,6.512833231438924,4.831226274305445
5.514066040194061,-4.7808382498721675,6.561145494181978,4.442448011684957
5.46625765769534,-4.541022674568428,6.605569974298827,4.097696159852436
5.420847430949656,-4.329123208583856,6.6465469358973515,3.7907174296811808
5.377556198863817,-4.140583184826604,6.684454110194164,3.515741931428624
5.336150367015551,-3.9714814803654965,6.71961152950845,3.2678459743162525
5.296435552211896,-3.8185355446410245,6.752289989251612,3.0429691167780315
5.258250196765486,-3.6790228822559787,6.782719680419393,2.8378139549504615
5.221459967942926,-3.550686115280782,6.811097819968897,2.6497201168358897
5.185953106790119,-3.431645229388666,6.837595021137257,2.476545902762369
5.151636654496232,-3.320323777897274,6.86236048016488,2.3165674279284754
5.118433416717259,-3.215389397287184,6.885526154444165,2.1683960784666487
5.0862795227443875,-3.1157068430591646,6.907210115228831,2.0309120371150575
5.055122454313796,-3.020301297788054,6.9275192355999815,1.9032109562942499
5.024919441335916,-2.928329858246489,6.946551345162924,1.7845610504415488
4.995636142753451,-2.8390594399169813,6.96439695566734,1.6743683335309907
4.967245548354281,-2.751849678456478,6.98114063900265,1.5721482048392785
4.939727051569716,-2.6661397033185246,6.996862121051042,1.4775020048017462
4.913065654536531,-2.5814378976728527,7.01163714109906,1.39009750408176
4.8872512755598025,-2.4973139460426035,7.025538116139877,1.3096525566137842
4.862278136099376,-2.413392616342903,7.0386346417060155,1.2359213521739416
4.838144209935947,-2.3293488359692796,7.050993855227755,1.1686828575186117
4.814850721576254,-2.244903710508434,7.062680683802942,1.107731147522644
4.792401684471169,-2.159821204988243,7.073757995278168,1.0528674075246434
4.770803472421287,-2.0739052661322885,7.084286669353414,1.0038934421817374
4.750064419759964,-1.986997213210408,7.094325603775231,0.9606065602664658
4.730194447627859,-1.8989732670384785,7.1039316693778956,0.9227957238004025
4.711204714957474,-1.8097421228960149,7.113159626615899,0.890238857803665
4.693107293728514,-1.7192425044212127,7.122062015193936,0.8627012172596826
4.675914868684302,-1.6274406623431827,7.130689027366532,0.8399347036461768
4.65964046206087,-1.5343278044331228,7.139088374402994,0.8216780170628437
4.644297184016539,-1.4399174614222583,7.147305154573623,0.8076575235916724
4.629898009402316,-1.34424280796784,7.155381729809539,0.7975887125584856
4.616455581322637,-1.247353968230345,7.163357616935124,0.7911781158450437
4.603982041640334,-1.1493153425203522,7.171269398093575,0.788125561906568
4.59248888821513,-1.0502029951334806,7.17915065371264,0.7881266408680556
4.581986858263796,-0.9501021443387098,7.187031920121321,0.7908752638750765
4.572485836820409,-0.8491047939882903,7.1949406727600715,0.7960662093932649
4.563994788880526,-0.7473075428636728,7.202901334854004,0.8033975608591895
4.55652171345189,-0.6448096031402505,7.210935310462596,0.8125729533726794
4.550073617420487,-0.5417110536920936,7.219061039996323,0.8233035613545068
4.544656506883567,-0.4381113477666861,7.227294075609867,0.8353097736697708
4.5402753934059,-0.33410808818161747,7.235647173346565,0.8483225170976879
4.5369343125240835,-0.22979607691030066,7.244130398517542,0.8620842027626568
4.534636351754981,-0.1252666399488596,7.252751240545169,0.8763492828804396
4.533383685355492,-0.020607222847272955,7.261514733373973,0.8908844166728972
4.53317761312702,0.08409875265613583,7.2704235775407025,0.9054682544227292
