th1 (rad),w1 (rad/s),th2 (rad),w2 (rad/s),a1 (rad/s^2),a2 (rad/s^2)
4.207005407691371,1.2993495806976159,1.1517566316395798,0.12218031516854357,8.31296853375292,-0.5245107190156258
4.219998903498347,1.382479266035145,1.1529784347912653,0.1169352079783873,8.433717526886591,-0.4042977805350588
4.233823696158698,1.466816441304011,1.1541477868710492,0.1128922301730367,8.55296727580264,-0.29190421812440187
4.248491860571738,1.5523461140620374,1.1552767091727796,0.10997318799179269,8.668530287731226,-0.1911635638352421
4.264015321712359,1.6390314169393496,1.1563764410526975,0.10806155235344027,8.777976506142547,-0.10631680092153906
4.280405635881752,1.726811182000775,1.1574570565762319,0.10699838434422487,8.878640772392814,-0.04200073243900286
4.29767374770176,1.8155975897247032,1.1585270404196741,0.10657837701983484,8.96764147813183,-0.00321880459479977
4.315829723599006,1.9052740045060215,1.1595928241898725,0.10654618897388685,9.04191264639218,0.004709176092439503
4.334882463644067,1.9956931309699433,1.1606582860796113,0.10659328073481124,9.098251564067546,-0.02377820821293076
4.354839394953766,2.086675646610619,1.1617242188869594,0.10635549865268193,9.133383788414328,-0.09438193198645016
4.375706151419872,2.178009484494762,1.1627877738734862,0.10541167933281742,9.144046825952753,-0.21281123810238403
4.39748624626482,2.2694499527542895,1.1638418906668144,0.10328356695179358,9.12709300133337,-0.38462255069476853
4.420180745792363,2.360720882767623,1.1648747263363324,0.0994373414448459,9.079610976827103,-0.6150298733284552
4.443787954620039,2.451516992535894,1.1658690997507808,0.09328704271156134,8.999064050140833,-0.908690292165278
4.468303124545399,2.5415076330373023,1.1668019701778964,0.08420013978990856,8.883441776374639,-1.2694709721820037
4.4937182008757715,2.630342050801049,1.1676439715757956,0.07150543006808853,8.731419691131139,-1.70020711582668
4.520021621383782,2.7176562477123603,1.1683590258764764,0.054503358909821734,8.542520060507853,-2.202463547911381
4.547198183860905,2.803081448317439,1.1689040594655746,0.03247872343070792,8.317264802921475,-2.776315609989153
4.5752289983440795,2.8862540963466534,1.1692288466998817,0.004715567330816392,8.05731022146085,-3.420167516648377
4.604091539307546,2.966827198561262,1.1692760023731898,-0.02948610783566738,7.765552204558435,-4.130627798274592
4.633759811293158,3.0444827206068465,1.1689811412948332,-0.0707923858184133,7.446190379424588,-4.9024614486037
4.664204638499227,3.1189446244010925,1.168273217436649,-0.11981700030445029,7.104740619597588,-5.728636458812442
4.695394084743238,3.1899920305970686,1.1670750474336045,-0.17710336489257472,6.747987549197984,-6.600478221771412
4.727294005049209,3.2574719060890485,1.1653040137846786,-0.24310814711028883,6.38387237217008,-7.507938732246314
4.759868724110099,3.3213106298107493,1.1628729323135758,-0.31818753443275194,6.021316418983467,-8.43997883969919
4.793081830408206,3.381523794000584,1.1596910569692482,-0.40258732282974385,5.669986933104852,-9.385051708028492
4.826897068348212,3.4382236633316325,1.1556651837409508,-0.49643783991002877,5.3400182307550565,-10.331665221834067
4.861279304981529,3.4916238456391833,1.1507008053418506,-0.5997544921283694,5.041707640947918,-11.26899182226646
4.89619554343792,3.5420409220486624,1.144703260420567,-0.712444410351034,4.785210626719717,-12.187487765225637
4.931615952658407,3.5898930283158594,1.1375788163170566,-0.8343192880032904,4.5802623182866675,-13.079481506311124
4.967514882941566,3.635695651498726,1.1292356234370238,-0.9651141030664017,4.435952740720427,-13.93969375307151
5.0038718394565525,3.6800551789059304,1.1195844824063597,-1.1045110405971168,4.360580138471454,-14.76565982029695
5.040672391245612,3.723660980290645,1.1085393720003884,-1.2521676388000862,4.361601394516817,-15.558037513957352
5.077909001048519,3.767276994235813,1.0960176956123875,-1.4077480139396596,4.44569155417547,-16.320799303747947
5.115581770990877,3.8117339097775678,1.081940215472991,-1.570956006977139,4.618917203382504,-17.06132401569028
5.1536991100886524,3.8579230818113928,1.0662306554032195,-1.7415692471340418,4.887022341677529,-17.79041868153563
5.192278340906767,3.906793305228168,1.048814962931879,-1.9194734339493982,5.25582169123531,-18.522313984333966
5.231346273959049,3.9593515221405213,1.029620228592385,-2.104696573792738,5.731695974363077,-19.274686200236506
5.270939789180454,4.016668481884152,1.0085732628544577,-2.297443435795103,6.322186962044856,-20.068764818869155
5.3111064739992955,4.079890351504601,0.9855988284965067,-2.4981310839837945,7.03669693626973,-20.929589040745295
5.351905377514342,4.150257320867299,0.9606175176566688,-2.7074269743912476,7.887307035075947,-21.886479348296604
5.393407950723015,4.2291303912180584,0.9335432479127563,-2.9262917678742135,8.889740606266827,-22.97379320200693
5.435699254635195,4.318027797280727,0.9042803302340142,-3.1560296998942827,10.064508967748173,-24.232035915307073
5.478879532608002,4.418672886958208,0.8727200332350714,-3.3983500590473534,11.43828316906104,-25.709394286562524
5.5230662614775845,4.533055718648819,0.8387365326445979,-3.655444001912979,13.045525829867598,-27.46373808502092
5.568396818664072,4.663510976947495,0.8021820926254681,-3.930081382763188,14.930367192754352,-29.565059305416018
5.615031928433547,4.8128146488750385,0.7628812787978363,-4.225731975817348,17.148561667273682,-32.09811141392547
5.663160074922297,4.984300265547775,0.7206239590396628,-4.5467130899566035,19.76898176804226,-35.16448448122119
5.713003077577775,5.1819900832281975,0.6751568281400968,-4.898357934768815,22.87318584727094,-38.882075213062734
5.764822978410057,5.410721941700907,0.6261732487924087,-5.287178686899442,26.549421382363278,-43.376887486604865
5.818930197827066,5.67621615552454,0.5733014619234142,-5.720947561765491,30.872387558982606,-48.75507756848236
5.875692359382311,5.984940031114366,0.5160919863057594,-6.208498337450314,35.84874799297673,-55.02732813614115
5.935541759693455,6.343427511044133,0.45400700293125623,-6.758771618811726,41.28454344970189,-61.92426163663129
5.9989760348038965,6.756272945541152,0.38641928674313897,-7.378014235178039,46.48887469370136,-68.48297116851568
6.066538764259308,7.221161692478166,0.3126391443913586,-8.062843946863197,49.69603317607632,-72.23919914501684
6.1387503811840896,7.718122024238929,0.23201070492272663,-8.785235938313365,47.267053045895715,-68.1093864793775
6.215931601426479,8.190792554697886,0.14415834553959297,-9.46632980310714,33.77517434792271,-48.50907496549672
6.2978395269734575,8.528544298177113,0.04949504750852157,-9.951420552762107,6.17160871943255,-9.18638887742917
6.383124969955229,8.590260385371439,-0.050019158019099494,-10.043284441536398,-27.78983341513047,38.99235766767005
6.469027573808943,8.312362051220134,-0.1504520024344635,-9.653360864859698,-51.65762032431256,73.03370340990894
6.552151194321144,7.795785847977008,-0.24698561108306047,-8.92302383076061,-58.43198985888746,83.20521563056202
6.630109052800915,7.211465949388133,-0.33621584939066657,-8.09097167445499,-54.31379612087787,78.18601266482742
6.7022237122947965,6.668327988179354,-0.41712556613521645,-7.309111547806715,-46.688671957970975,68.26405343924418
6.76890699217659,6.201441268599645,-0.4902166816132836,-6.626471013414274,-39.118890698971256,58.387778084206765
6.830921404862586,5.810252361609932,-0.5564813917474263,-6.042593232572206,-32.658323884197394,50.01779616801788
6.889023928478686,5.483669122767958,-0.6169073240731483,-5.542415270892027,-27.399901101186455,43.28219329655028
6.943860619706365,5.209670111756094,-0.6723314767820686,-5.109593337926524,-23.168660466289168,37.938000192182336
6.995957320823926,4.977983507093202,-0.7234274101613338,-4.730213336004701,-19.75556206459511,33.694394257665586
7.045737155894859,4.780427886447251,-0.7707295435213808,-4.393269393428046,-16.981381591015722,30.3005739496217
7.093541434759331,4.6106140705370935,-0.8146622374556612,-4.090263653931829,-14.706469968785235,27.558936627499055
7.139647575464702,4.4635493708492415,-0.8555648739949795,-3.8146742876568385,-12.825717802165366,25.31796238544231
7.184283069173194,4.335292192827588,-0.8937116168715479,-3.5614946638024154,-11.260999923947328,23.46172843658658
7.22763599110147,4.222682193588114,-0.929326563509572,-3.32687737943655,-9.954482641498409,21.90070668803347
7.269862813037351,4.12313736717313,-0.9625953373039375,-3.1078703125562153,-8.863406796490409,20.564692450028687
7.311094186709083,4.034503299208226,-0.9936740404294997,-2.9022233880559285,-7.956183926356243,19.397654314926477
7.351439219701165,3.9549414599446635,-1.022696274310059,-2.7082468449066637,-7.209492015352636,18.354092927165333
7.390988634300611,3.8828465397911374,-1.0497787427591256,-2.5247059156350105,-6.606085355190475,17.39653417887571
7.429817099698522,3.8167856862392324,-1.0750258019154757,-2.3507405738462532,-6.133099124912664,16.49386608794879
7.467984956560914,3.7554546949901058,-1.0985332076539382,-2.1858019129667654,-5.780692943676774,15.620302191609655
7.505539503510816,3.697647765553338,-1.1203912267836058,-2.029598891050669,-5.540930158948675,14.754805984565927
7.542515981166349,3.642238463963851,-1.1406872156941126,-1.8820508312050095,-5.4068312886289736,13.880842490522786
7.578938365805987,3.5881701510775614,-1.1595077240061626,-1.7432424062997816,-5.371572628944966,12.98633991764304
7.614820067316763,3.5344544247881116,-1.1769401480691604,-1.6133790071233511,-5.427825664152922,12.06375274691354
7.650164611564644,3.480176168146582,-1.1930739381403939,-1.4927414796542158,-5.567249634171038,11.110123669890577
7.68496637324611,3.424503671804872,-1.208001352936936,-1.38164024295531,-5.78015787183715,10.127050984727395
7.719211409964158,3.3667020930865004,-1.221817755366489,-1.2803697331080361,-6.0553778331163555,9.12048443184478
7.752878430895024,3.3061483147553368,-1.2346214526975694,-1.1891648887895883,-6.380315455079331,8.10029784468407
7.785939914042577,3.2423451602045437,-1.2465131015854654,-1.1081619103427476,-6.741218279203148,7.079620446864488
7.818363365644622,3.1749329774125123,-1.2575947206888929,-1.0373657058741026,-7.123611796264157,6.073946380008774
7.850112695418747,3.1036968594498706,-1.2679683777476338,-0.9766262420740148,-7.512863812855511,5.100078308302098
7.881149664013246,3.0285682213213154,-1.277734640168374,-0.9256254589909938,-7.894816519168215,4.17498936709014
7.911435346226459,2.9496200561296333,-1.286990894758284,-0.8838755653200924,-8.25641863804056,3.3147031195932284
7.9409315467877555,2.867055869749228,-1.295829650411485,-0.85072853412416,-8.586292107255673,2.5332909612425736
7.969602105485248,2.7811929486766713,-1.3043369357527266,-0.8253956245117343,-8.875178699325028,1.842071199169539
7.997414034972015,2.692441161683421,-1.312590891997844,-0.806974912520039,-9.116229550698229,1.2490673969344883
8.02433844658885,2.6012788661764388,-1.3206606411230444,-0.794484238550694,-9.305121420383166,0.7587509378508095
8.050351235250615,2.508227651972607,-1.3286054835085512,-0.786896729172186,-9.440004086722181,0.37206001151166457
8.07543351177034,2.4138276111053854,-1.336474450800273,-0.7831761290570693,-9.521300633336525,0.0866594280940636
8.099571787881395,2.31861460477202,-1.3443062120908438,-0.7823095347761287,-9.551394512606151,-0.10261380667349355
8.122757933929115,2.223100659645959,-1.3521293074386052,-0.7833356728428637,-9.534243430628997,-0.2031839786321435
8.144988940525575,2.1277582253396687,-1.3599626641670337,-0.7853675126291851,-9.474960560259587,-0.2241145138811614
8.166266522778972,2.033008619737073,-1.3678163392933256,-0.7876086577679967,-9.379399429076253,-0.17548846684738673
8.186596608976343,1.9392146254463103,-1.3756924258710055,-0.7893635424364706,-9.253771548694997,-0.06783791715961532
8.205988755230806,1.8466769099593603,-1.38358606129537,-0.7900419216080667,-9.104317047729499,0.08834579622191638
8.224455524330399,1.7556337394820654,-1.3914864805114509,-0.7891584636458476,-8.93703966746968,0.2830034134063086
8.242011861725219,1.6662633428073685,-1.3993780651479093,-0.7863284295117845,-8.757509557516432,0.5067956770223553
8.258674495153292,1.5786882472322041,-1.4072413494430271,-0.781260472741561,-8.570731033700966,0.7512926933755155
8.274461377625613,1.4929809368951945,-1.4150539541704428,-0.7737475458078058,-8.381068099094524,1.0090762946079521
8.289391186994566,1.4091702559042494,-1.422791429628521,-0.7636567828617263,-8.192218024415235,1.273770697301397
8.303482889553608,1.327248075660097,-1.4304279974571381,-0.7509190758887123,-8.007222363142429,1.5400179920238637
8.31675537031021,1.2471758520286729,-1.4379371882160252,-0.7355188959684736,-7.828505055741942,1.8034143859464664
8.329227128830496,1.1688908014712533,-1.44529237717571,-0.717484752109009,-7.6579283526028465,2.0604213120357224
8.340916036845208,1.092311517945225,-1.4524672246968,-0.6968805389886518,-7.49685879385656,2.3082630877020383
8.35183915202466,1.0173429300066594,-1.4594360300866864,-0.6737979081116314,-7.346237138224091,2.5448201988192234
8.362012581324727,0.9438805586244186,-1.4661740091678028,-0.6483497061234392,-7.206647729261584,2.768524808283572
8.371451386910971,0.8718140813318027,-1.4726575062290372,-0.6206644580406036,-7.078384201508859,2.978262922929769
8.38016952772429,0.8010302393167141,-1.4788641508094433,-0.5908818288113059,-6.961509600846721,3.1732858804305955
8.388179830117457,0.731415143308247,-1.4847729690975564,-0.5591489700069999,-6.855909909105032,3.353132450224228
8.395493981550539,0.6628560442171967,-1.4903644587976264,-0.5256176455047576,-6.761340638813118,3.517561847159586
8.40212254199271,0.5952426378290655,-1.495620635252674,-0.49044202703316175,-6.677466632437352,3.666497278333561
8.408074968371002,0.5284679715046919,-1.5005250555230056,-0.4537770542498261,-6.603895500340812,3.79997921978183
8.413359648086049,0.4624290165012838,-1.505062826065504,-0.4157772620520078,-6.540205301660109,3.918127389513846
8.417983938251062,0.39702696348468275,-1.5092205986860239,-0.37659598815686934,-6.4859671469918,4.021110293353955
8.421954207885909,0.33216729201476475,-1.5129865585675926,-0.33638488522332977,-6.440763410188462,4.109121226150827
8.425275880806057,0.26775965791288014,-1.516350407419826,-0.2952936729618215,-6.404202201568032,4.182359678873571
8.427953477385186,0.20371763589719982,-1.5193033441494441,-0.2534700761730858,-6.375928693643952,4.241017206522695
8.429990653744158,0.13995834896076031,-1.521838044911175,-0.21105990410785885,-6.355633815390958,4.28526693475178
8.431390237233765,0.07640201080685073,-1.5239486439522536,-0.16820723476034105,-6.3430607503996885,4.315256012717882
8.432154257341834,0.012971403302853846,-1.525630716299857,-0.12505467463316222,-6.338009593274401,4.33110044864587
8.432283971374863,-0.05040869262989016,-1.5268812630461885,-0.08174367014670353,-6.340340440216046,4.33288188896746
8.431779884448565,-0.11381209703205063,-1.5276986997476556,-0.038414851257028926,-6.349975115168127,4.320646020135498
8.430641763478244,-0.1773118481837319,-1.5280828482602258,0.004791608944326051,-6.366897662295163,4.294402384399901
8.428868644996406,-0.24098082480668354,-1.5280349321707825,0.047735632788325065,-6.391153668271643,4.254125508086766
8.426458836748338,-0.30489236148939997,-1.5275575758428992,0.09027688786919272,-6.422848412794056,4.199757344974701
8.423409913133444,-0.36912084561734054,-1.5266548069642072,0.13227446131893972,-6.4621437815981615,4.131211140202125
8.41971870467727,-0.43374228343332216,-1.5253320623510178,0.17358657272096095,-6.50925381178131,4.048376923727893
8.415381281842938,-0.49883482155113523,-1.5235961966238083,0.21407034195823987,-6.564438673311424,3.951128948368427
8.410392933627428,-0.5644792082842495,-1.521455493204226,0.25358163144192414,-6.627996822590769,3.8393354968978586
8.404748141544585,-0.6307591765101571,-1.5189196768898066,0.29197498641090275,-6.700254993859342,3.7128715956926532
8.398440549779483,-0.6977617264487506,-1.5159999270256976,0.32910370236782927,-6.781555623114832,3.5716352875232187
8.391462932514996,-0.7655772826798989,-1.5127088900020194,0.36482005524306144,-6.872241229585019,3.4155682298303565
8.383807159688196,-0.8342996949757491,-1.5090606894495888,0.398975737541365,-6.972635216089303,3.2446814907381776
8.375464162738439,-0.9040260471366421,-1.505070932074175,0.4314225524487468,-7.083018498982405,3.059087502780083
8.366423902267073,-0.9748562321264662,-1.5007567065496876,0.4620134274765476,-7.203601351297102,2.859039188358768
8.356675339945808,-1.0468922456394372,-1.4961365722749222,0.4906038193601353,-7.3344898539105,2.644977269407482
8.346206417489412,-1.1202371441785421,-1.491230534081321,0.5170535920542101,-7.4756464187292035,2.4175866869570295
8.335004046047628,-1.1949936083658341,-1.486059998160779,0.5412294589237804,-7.626844000166681,2.177862846091604
8.32305410996397,-1.271262048367501,-1.480647703571541,0.5630080873846964,-7.7876138771401235,1.927188021023245
8.310341489480294,-1.3491381871389023,-1.475017622697694,0.5822799675949288,-7.9571873024037485,1.667417649094123
8.296850107608904,-1.4287100601629399,-1.4691948230217449,0.5989541440858701,-8.134431916006028,1.4009753528252775
8.282563007007274,-1.5100543793230001,-1.4632052815808863,0.6129638976141228,-8.3177846386647,1.13095430016375
8.267462463214045,-1.5932322257096472,-1.457075642604745,0.6242734406157604,-8.505183821609208,0.8612209041202985
8.251530140956948,-1.6782840639257393,-1.4508329081985876,0.6328856496569634,-8.694004732377614,0.596514865395293
8.234747300317691,-1.7652241112495153,-1.444504051702018,0.6388507983109163,-8.881003964519952,0.342537221878908
8.217095059205196,-1.854034150894715,-1.4381155437189088,0.6422761705297053,-9.062279982199037,0.10601551635111658
8.198554717696249,-1.9446569507167053,-1.4316927820136118,0.6433363256932165,-9.233258586017678,-0.10526733125156493
8.179108148189082,-2.036989536576882,-1.4252594187566796,0.6422836523807008,-9.38871336827995,-0.2824959840004606
8.158738252823312,-2.1308766702596817,-1.4188365822328726,0.6394586925406962,-9.52283188449759,-0.4159142259370968
8.137429486120716,-2.2261049891046576,-1.4124419953074656,0.6352995502813252,-9.629337908551525,-0.4950014875266255
8.11516843622967,-2.3223983681901728,-1.4060889998046524,0.630349535406059,-9.701678348282275,-0.5087482104075304
8.091944452547768,-2.4194151516729954,-1.3997855044505918,0.6252620533019837,-9.733279822184777,-0.446038513500678
8.067750301031039,-2.5167479498948433,-1.393532883917572,0.6208016681669769,-9.717874345727752,-0.2961400257161846
8.04258282153209,-2.613926693352121,-1.3873248672359022,0.617840267909815,-9.649886137233436,-0.04928899954996361
8.016443554598569,-2.710425554724455,-1.3811464645568041,0.6173473779143154,-9.524862699427983,0.30265542314259475
7.989339299051324,-2.805674181718735,-1.3749729907776609,0.6203739321457413,-9.339923967237072,0.7655292748149861
7.961282557234137,-2.8990734213911056,-1.3687692514562035,0.6280292248938912,-9.094194737148742,1.3422100172014055
7.9322918230202255,-2.990015368762593,-1.3624889592072646,0.6414513250659053,-8.789179370249872,2.0320576689206837
7.9023916693326,-3.0779071624650918,-1.3560744459566056,0.6617719017551121,-8.429035472823909,2.8305220299931757
7.871612597707949,-3.1621975171933308,-1.3494567269390545,0.6900771220550439,-8.02070620476691,3.7289831705956193
7.839990622536016,-3.2424045792409997,-1.342555955718504,0.7273669537610001,-7.573879748783789,4.7148783379115695
7.807566576743606,-3.3181433767288375,-1.335282286180894,0.7745157371401158,-7.100759135861187,5.772144586432827
7.7743851429763176,-3.389150968087449,-1.3275371288094928,0.832237183004444,-6.615644901740011,6.881974676137128
7.7404936332954435,-3.4553074171048492,-1.3192147569794483,0.9010569297658153,-6.134354784259227,8.023847856002691
7.705940559124395,-3.5166509649474413,-1.3102041876817903,0.9812954083258423,-5.673525903518849,9.176762267797919
7.670774049474921,-3.57338622398263,-1.300391233598532,1.0730630310038214,-5.249862245389825,10.32056777149599
