th1 (rad),w1 (rad/s),th2 (rad),w2 (rad/s)
1.0284278225331434,-0.45853872961310627,2.345013921514951,1.765813722100778
1.0238424352370123,-0.5202710901313763,2.3626720587359586,1.7092363472115695
1.0186397243356986,-0.5832045710640229,2.3797644222080745,1.652223788347757
1.0128076786250584,-0.6472933496695493,2.396286660091552,1.5945923048110016
1.0063347451283629,-0.7124964296639619,2.412232583139662,1.5361548005490762
0.9992097808317232,-0.7787774379818608,2.4275941311451525,1.4767208462032553
0.9914220064519046,-0.8461043619294687,2.442361339607185,1.4160967185760875
0.9829609628326099,-0.9144492228315532,2.456522306792946,1.354085465029323
0.9738164706042944,-0.9837876814947569,2.470063161443239,1.290487001750149
0.9639785937893469,-1.054098570062757,2.4829680314607403,1.225098256370436
0.9534376080887194,-1.125363344128366,2.495219014024445,1.1577133670585422
0.9421839746474358,-1.197565448307063,2.50679614769503,1.0881239518915897
0.9302083201643652,-1.2706895878876614,2.5176773872139457,1.0161194640156639
0.9175014242854885,-1.3447208986911796,2.5278385818541023,0.9414876497594538
0.9040542152985768,-1.419644006931778,2.537253458351697,0.8640151284177195
0.889857775229259,-1.4954419707388416,2.545893609635874,0.7834881137832118
0.8749033555218706,-1.5720950951340358,2.553728490773706,0.6996932985797123
0.8591824045705302,-1.6495796127404958,2.560725423759503,0.6124189236153149
0.8426866084431253,-1.7278662234233064,2.5668496129956564,0.5214560535938637
0.8254079462088922,-1.806918487520146,2.572064173531595,0.42660008093365037
0.8073387613336908,-1.8866910694229264,2.5763301743409315,0.327652477468989
0.7884718506394615,-1.9671278311202156,2.5796066991156215,0.2244228113635001
0.7688005723282593,-2.0481597790037904,2.5818509272292562,0.11673104275257132
0.7483189745382214,-2.1297028718617437,2.583018237656782,0.004410106375389036
0.727021945819604,-2.2116557035775677,2.5830623387205356,-0.11269121739979719
0.7049053887838284,-2.2938970806398093,2.5819354265465377,-0.23470515031555345
0.6819664179774303,-2.376283522093509,2.5795883750433823,-0.36174150018888973
0.6582035827564952,-2.458646717914541,2.5759709600414933,-0.49388401052950825
0.6336171155773498,-2.5407909907589272,2.571032119936198,-0.6311865186971731
0.6082092056697606,-2.6224908153370685,2.5647202547492265,-0.7736689800815066
0.5819842975163899,-2.7034884589009724,2.5569835649484114,-0.9213134310378317
0.5549494129273802,-2.783491815041467,2.547770430638033,-1.0740599785658018
0.5271144947769655,-2.8621725106422837,2.537029830852375,-1.2318029191916218
0.4984927696705426,-2.9391643718750413,2.524711801660459,-1.3943871023400565
0.4691011259517922,-3.0140623390154055,2.510767930637058,-1.5616046637720937
0.43896050256163816,-3.086421921172371,2.495151883999337,-1.7331922616063027
0.40809628334991443,-3.155759280451391,2.477819961383274,-1.9088289504072857
0.3765386905454005,-3.2215520305173415,2.4587316718792014,-2.0881348274738376
0.34432317024022707,-3.2832408271120275,2.437850323604463,-2.270670579831467
0.3114907619691068,-3.3402318181611674,2.415143617806148,-2.4559380509914686
0.27808844378749514,-3.3919000091907288,2.3905842372962334,-2.643381934146864
0.24416944369558785,-3.437593586429387,2.3641504179547645,-2.8323926842953835
0.20979350783129397,-3.4766392256602225,2.3358264911118107,-3.02231072706939
0.17502711557469175,-3.5083483997493436,2.3056033838411167,-3.2124320278861997
0.1399436315771983,-3.5320246814595055,2.2734790635622546,-3.4020150719679796
0.10462338476260324,-3.5469720196200503,2.239458912842575,-3.5902892935354043
0.06915366456640273,-3.552503944207111,2.2035560199072206,-3.7764649796838916
0.033628625124331624,-3.5479536269933445,2.1657913701103815,-3.9597446585709664
-0.001850911145601819,-3.5326846864254207,2.1261939235246716,-4.139335959048344
-0.037177758009856024,-3.5061025757434994,2.0848005639341882,-4.314465895714919
-0.07223878376729101,-3.4676663304519693,2.041655904977039,-4.484396485777619
-0.1069154470718107,-3.416900375233261,1.996811940119263,-4.648441539657518
-0.1410844508241433,-3.3534060040091958,1.9503275247226879,-4.805984386073812
-0.17461851086423527,-3.276872056040337,1.9022676808619499,-4.9564961981221884
-0.20738723142463864,-3.1870842250105085,1.852702718880728,-5.099554487756784
-0.23925807367474372,-3.083932369104059,1.80170717400316,-5.2348612446527545
-0.2700973973657843,-2.967415151788868,1.7493585615566325,-5.362260127844865
-0.29977154888367297,-2.837641348399303,1.6957359602781839,-5.481752092747801
-0.32814796236766597,-2.694827212410648,1.640918439350706,-5.593508869157018
-0.35509623449177247,-2.539289411178068,1.5849833506591358,-5.697883810456416
-0.38048912860355316,-2.371433209220505,1.5280045125545716,-5.79541981621642
-0.4042034606957582,-2.191735783820513,1.4700503143924073,-5.886854286107065
-0.42612081853396333,-2.000724780017864,1.4111817715313366,-5.973121379307097
-0.446128066334142,-1.7989524210737156,1.3514505577382656,-6.055352208846226
-0.4641175905448791,-1.5869656553292841,1.2908970356498033,-6.134873968063085
-0.479987247098172,-1.3652729136093185,1.2295482959691724,-6.213209339333188
-0.49363997623426514,-1.1343080544462034,1.1674162025758406,-6.292077849244004
-0.5049830567787271,-0.8943919834360459,1.1044954240834004,-6.373401089904232
-0.5139269766130876,-0.6456922643508751,1.040761413184358,-6.459313904788872
-0.5203838992565963,-0.38818083837833167,0.9761682741364693,-6.552183710534092
-0.5242657076403796,-0.12158982421138859,0.9106464370311285,-6.654640026866823
-0.5254816058824935,0.1546345444684185,0.8441000367624603,-6.769615856119281
-0.5239352604378092,0.4413791524237548,0.7764038782012674,-6.900401429324085
-0.5195214689135716,0.7399098952313534,0.7073998639080266,-7.050708230657985
-0.5121223699612582,1.0519094479327746,0.6368927816014467,-7.224735464309428
-0.5016032754819304,1.3794908589494135,0.5646454269583524,-7.427218792493868
-0.4878083668924363,1.7251515449020443,0.49037323903341373,-7.663415226146327
-0.47055685144341586,2.0915927654693554,0.4137390867719505,-7.938924550492871
-0.4496409237887223,2.4812514611877807,0.3343498412670218,-8.259140481822753
-0.4248284091768445,2.89524457686951,0.25175843644879425,-8.62792121340946
-0.3958759634081494,3.3311816604365467,0.16547922431469964,-9.044725565191706
-0.3625641468037839,3.779014622393263,0.07503196866278257,-9.499046534936593
-0.3247740005798513,4.214217498767499,-0.019958496686583366,-9.9611052007505
-0.2826318255921763,4.589704039621856,-0.11956954869408837,-10.370626587328797
-0.23673478519595775,4.834714538160138,-0.22327581456737633,-10.634894726307605
-0.18838763981435638,4.877344281856647,-0.3296247618304524,-10.658966796416966
-0.13961419699578992,4.693208714204088,-0.4362144297946221,-10.41145672982777
-0.09268210985374903,4.333252441654512,-0.5403289970928998,-9.961435462268716
-0.049349585437203906,3.886809044548643,-0.639943351715587,-9.427292261300064
-0.010481494991717473,3.4259901980057044,-0.7342162743285877,-8.90188516894013
0.023778406988339572,2.9879413180140673,-0.823235126017989,-8.430254324237504
0.053657820168480246,2.5850623900800924,-0.907537669260364,-8.024693576466207
0.07950844406928118,2.2178454997519523,-0.9877846050250261,-7.6824354542235795
0.1016868990668007,1.8824091689749693,-1.0646089595672619,-7.395693218679892
0.12051099075655039,1.5738796291811255,-1.1385658917540609,-7.155982682653078
0.13624978704836166,1.2876748177660486,-1.2101257185805916,-6.955640406134812
0.14912653522602215,1.019892539977317,-1.2796821226419397,-6.788187690380858
0.15932546062579533,0.7673538909262594,-1.3475639995457482,-6.648276929676246
0.16699899953505792,0.527530813077743,-1.4140467688425107,-6.53151639625779
0.17227430766583535,0.2984468321074367,-1.4793619328050887,-6.4342830842710494
0.17525877598690973,0.07858266252802523,-1.5437047636477992,-6.353559102753445
0.17604460261219,-0.1332042501718161,-1.6072403546753335,-6.286799174556545
0.17471256011047182,-0.3377456234047345,-1.670108346420899,-6.231827191114388
0.17133510387642448,-0.535615808424214,-1.732426618332043,-6.186757177423798
0.16597894579218234,-0.7271755543337445,-1.794294190106281,-6.149933934195385
0.1587071902488449,-0.9126085649723095,-1.8557935294482348,-6.119889292228299
0.1495811045991218,-1.0919528935582092,-1.916992422370518,-6.095310686432122
0.1386615756635397,-1.2651287332619277,-1.9779455292348391,-6.075019418328326
0.12601028833092043,-1.4319637131180563,-2.0386957234181224,-6.05795647937025
0.11169065119973987,-1.5922164164253003,-2.099275288211825,-6.0431741674472725
0.09576848703548686,-1.7455985053835934,-2.159707029886298,-6.029831979215831
0.07831250198165093,-1.8917955607703694,-2.2200053496784564,-6.017195438256038
0.05939454637394724,-2.030486529909528,-2.280177304061017,-6.004636657143857
0.03908968107485196,-2.1613615224091105,-2.3402236706324553,-5.991635558134955
0.017476065850760853,-2.2841376033419807,-2.400140026213805,-5.977780812695082
-0.0053653101826589555,-2.3985722077227156,-2.4599178343407555,-5.962769716725646
-0.029351032259886112,-2.5044738343828645,-2.5195455315080117,-5.9464063995931
-0.054395770603714755,-2.6017097629343655,-2.5790095955039427,-5.928597966520392
-0.0804128682330584,-2.6902106610488716,-2.638295575169147,-5.909348384574165
-0.10731497484354713,-2.769972093958812,-2.6973890590148883,-5.888750127316911
-0.13501469578313524,-2.8410530957246047,-2.7562765602880575,-5.866973775972532
-0.1634252267403813,-2.903572095283671,-2.814946298047783,-5.844255921292034
-0.192460947693218,-2.957700595787039,-2.873388857260703,-5.820885810111953
-0.2220379536510884,-3.003655074375051,-2.9315977153618227,-5.797191229579461
-0.2520745043948389,-3.041687598152164,-2.9895696276576174,-5.773524122028675
-0.28249138037636057,-3.072075642919028,-3.0473048688779043,-5.750246381787228
-0.3132121368055508,-3.0951115608008024,-3.104807332695777,-5.727716212883549
-0.34416325241355883,-3.111092080689567,-3.1620844948246125,-5.706275336764083
-0.3752741732204545,-3.120308151963678,-3.2191472481922534,-5.686237244827466
-0.4064772547400913,-3.1230353674898303,-3.276009620640528,-5.667876603503831
-0.43770760841498957,-3.119525135245566,-3.3326883866755663,-5.651419849000394
-0.4689028597674452,-3.1099967157173305,-3.3892025851655703,-5.637036961116055
-0.5000028269246185,-3.0946302088861897,-3.445572954776731,-5.624834384312134
-0.5309491290134805,-3.0735605621611426,-3.501821298619852,-5.614849070619401
-0.5616847346350919,-3.046872678981849,-3.5579697893260462,-5.607043651925676
-0.5921534614249104,-3.0145977349560944,-3.614040225845303,-5.601302805810231
-0.6222994387744714,-2.9767108504019983,-3.670053253903405,-5.597430954639143
-0.6520665472784913,-2.933130319145003,-3.726027563449797,-5.5951515253659165
-0.6813978504699414,-2.8837186453318284,-3.781979078703456,-5.594108088241956
-0.7102350369232597,-2.828285682473449,-3.8379201595858756,-5.593867774411875
-0.7385178937479943,-2.7665941891736248,-3.8938588373299945,-5.593927429988735
-0.7661838356397305,-2.698368099418039,-3.9497981116298817,-5.593722979630999
-0.7931675166339108,-2.6233037366461778,-4.005735341426192,-5.5926424261493635
-0.8194005540003726,-2.5410840665369725,-4.061661765687686,-5.5900427853708585
-0.8448113946657423,-2.4513958750751157,-4.117562193541394,-5.58527103338412
-0.8693253534164934,-2.353949477077609,-4.173414903875235,-5.577688822661235
-0.8928648481872695,-2.2485002209722693,-4.229191792101847,-5.566700316842436
-0.9153498503969922,-2.1348706905056325,-4.284858795270272,-5.551782034631308
-0.9366985573020485,-2.0129721630415176,-4.340376615616584,-5.53251313735837
-0.9568282789324637,-1.8828236301736199,-4.395701746990168,-5.508604217195971
-0.9756565152341999,-1.7445665856844284,-4.450787789162128,-5.4799224267179385
-0.9931021810910442,-1.5984738930681228,-4.505587013429307,-5.446510809586708
-1.0090869200217254,-1.4449513865069938,-4.560052121525174,-5.408599991747869
-1.0235364338867954,-1.2845314205670455,-4.614138121442652,-5.3666109711894165
-1.0363817480924657,-1.1178583038292778,-4.6678042311545465,-5.321148545471523
-1.0475603311307586,-0.9456663297851327,-4.721015716609262,-5.272985833235321
-1.0570169944286099,-0.7687518338760706,-4.773745574941615,-5.223041241807434
-1.0647045127673707,-0.5879412438858422,-4.82597598735969,-5.172349970225244
-1.070583925206229,-0.4040573694587484,-4.877699487061943,-5.122032608368339
-1.0746244989008165,-0.2178861626354972,-4.928919813145626,-5.073263544804377
-1.0768033605271714,-0.030145896383881154,-4.9796524485936695,-5.02724173684696
-1.0771048194910102,0.15853978199181304,-5.029924865962139,-4.98516598897777
-1.0755194216710922,0.3476640700214009,-5.0797765258519165,-4.948216327752828
-1.0720427809708781,0.5368542742343994,-5.129258689129445,-4.917542460433377
-1.0666742382285341,0.7258844598820651,-5.178434113733779,-4.894259757124791
-1.0594153936297135,0.914684288295273,-5.227376711305027,-4.879452772641469
-1.0502685507467608,1.1033451795614238,-5.2761712390314415,-4.874186064325359
-1.0392350989511465,1.2921251552233366,-5.324913099674695,-4.87952197739128
-1.026313847398913,1.4814538401897048,-5.373708319448608,-4.896545151487348
-1.0114993089970161,1.6719391706687436,-5.422673770963481,-4.92639373098499
-0.9947799172903287,1.8643774023855302,-5.471937708273331,-4.970297612503076
-0.9761361432664734,2.059768070373968,-5.521640684398362,-5.029624509834297
-0.9555384625627337,2.259335631863192,-5.5719369294967045,-5.105935125349827
-0.9329451062441018,2.4645596094711464,-5.622996280750203,-5.201049229617474
-0.9082995101493903,2.6772150627564435,-5.675006773046378,-5.317124840353179
-0.8815273595218258,2.8994249410898503,-5.728178021449909,-5.456752666176147
-0.8525331101109274,3.133724818079589,-5.782745548111671,-5.62306687352155
-0.8211958619301315,3.3831375761777966,-5.838976216846887,-5.819869546726335
-0.7873644861683535,3.651248369325722,-5.89717491231415,-6.051756605420962
-0.7508520024750963,3.9422533212977013,-5.95769247836836,-6.324210065663134
-0.7114294692621193,4.2609174021414,-6.020934579024991,-6.643569374571143
-0.6688202952407053,4.612293488116803,-6.087370272770703,-7.016679204034186
-0.6226973603595373,5.000877813768467,-6.157537064811045,-7.4497652710415565
-0.5726885822218526,5.428527605473307,-6.2320347175214605,-7.94560141459568
-0.5184033061671195,5.889884968281415,-6.311490731667417,-8.497213160607322
-0.4595044564843053,6.363544369946113,-6.396462863273491,-9.07563661794565
-0.3958690127848442,6.798715644882442,-6.487219229452947,-9.611326443250052
-0.3278818563360198,7.106262114615594,-6.583332493885448,-9.981502585197397
-0.2568192351898638,7.181986957486123,-6.683147519737422,-10.042227470288173
-0.1849993656150026,6.981392846651048,-6.783569794440304,-9.731942740995654
-0.11518543714849212,6.574404268885095,-6.880889221850261,-9.146828766156997
-0.04944139445964117,6.087119983929619,-6.972357509511831,-8.45947028892064
0.011429805379655017,5.6116050464173295,-7.056952212401037,-7.794468296703298
0.06754585584382831,5.186458286131501,-7.13489689536807,-7.202673943818673
0.11941043870514333,4.818772119428321,-7.206923634806256,-6.69207842480367
0.16759815989942653,4.503474369491222,-7.273844419054293,-6.254510673983969
0.21263290359433876,4.232482034707803,-7.336389525794132,-5.878095952103823
0.2549577239414168,3.998004466410513,-7.3951704853151705,-5.551656355880793
0.29493776860552195,3.7934448403465586,-7.450687048873978,-5.265848885791629
0.33287221700898756,3.6134635358218925,-7.503345537731894,-5.013188797527694
0.3690068523672065,3.4537985816357275,-7.553477425707171,-4.787764959293576
0.40354483818356374,3.3110486430390034,-7.6013550753001065,-4.5849202282190715
0.4366553246139538,3.1824807875906624,-7.647204277582297,-4.400976178680186
0.4684801324898604,3.065875707246911,-7.691214039369099,-4.233015753031384
0.49913888956232955,2.9594075155577144,-7.7335441968994125,-4.078717480823401
0.5287329647179067,2.8615515586656737,-7.774331371707646,-3.936230690213807
0.5573484803045634,2.7710138567722775,-7.813693678609784,-3.804081823919382
0.5850586188722862,2.6866769942031272,-7.851734496848978,-3.6811038275352046
0.6119253888143175,2.607558554558992,-7.88854553512433,-3.5663823937001524
0.6380009743599074,2.5327792806382847,-7.924209359061332,-3.459214309450345
0.6633287671662903,2.461538983381195,-7.958801502155835,-3.3590742535142137
0.6879441570001023,2.393098853014687,-7.992392244690977,-3.2655872000268533
0.7118751455302491,2.3267692718638564,-8.025048116691245,-3.1785041953156923
0.7351428382488877,2.261902517948071,-8.056833158644402,-3.0976797680467327
0.7577618634283684,2.197889898575016,-8.087809956324868,-3.023049679250201
0.7797407624141185,2.134162875893473,-8.11804045311737,-2.954608169288041
0.8010823911730532,2.0701976556814765,-8.14758653481025,-2.892384343663091
0.821784367729868,2.005522529217272,-8.176510378246881,-2.836417861685964
0.8418395930220407,1.939727022917614,-8.204874556863741,-2.7867346233798163
0.8612368632512168,1.8724716745555863,-8.232741903097539,-2.743323632174504
0.8799615799967727,1.8034970829985133,-8.260175139419283,-2.70611656360697
0.8979965508267579,1.7326308357462117,-8.287236305055353,-2.6749717090942884
0.91532285918422,1.6597910543948335,-8.313986022146297,-2.649663825533613
0.9319207697281683,1.5849856287670028,-8.340482660401634,-2.629880989132926
0.9477706260158383,1.508306707719614,-8.366781470292963,-2.6152288717797356
0.9628536930930344,1.429920606388682,-8.392933759010761,-2.6052420392588798
0.9771528991569212,1.350053873945364,-8.41898617940335,-2.5994010629846334
0.9906534378963748,1.2689767363856763,-8.444980190033196,-2.597153595393012
1.0033432052602316,1.1869854025774813,-8.470951725987126,-2.5979372023702
1.0152130592860065,1.1043847606362018,-8.496931098010828,-2.6012017263081635
1.0262569068923686,1.0214728095841816,-8.52294311527391,-2.606429246946076
1.0364716349882104,0.938527825735425,-8.54900740774337,-2.6131502277691503
1.0458569132455646,0.8557988360874517,-8.57513891002106,-2.620955063580349
1.0544149016064392,0.7734995452242367,-8.601348460656864,-2.62950086018202
1.0621498970586816,0.691805503419383,-8.627643469258684,-2.638513787119551
1.0690679520928754,0.610854049898178,-8.654028607129879,-2.647787697159008
1.0751764925918572,0.5307464265158479,-8.68050648410147,-2.6571798906050086
1.0804839568570157,0.4515514212978537,-8.707078283007519,-2.666604939183531
1.0849994710699942,0.37330994330194933,-8.733744332399354,-2.6760274112626643
1.0887325705030138,0.29604002099013493,-8.760504606511981,-2.6854542007299123
1.091692970712915,0.2197418291421477,-8.78735914851928,-2.6949269944338163
1.0938903890043365,0.14440246381774405,-8.81430841846362,-2.7045152468164932
1.095334413642514,0.07000028764821861,-8.841353570931785,-2.7143098836435646
1.0960344165189961,-0.0034912480711601773,-8.868496669768222,-2.7244178386053823
1.0959995040382846,-0.07610033437086673,-8.895740848154276,-2.73495743903098
1.095238500694576,-0.1478540742248864,-8.923090422544586,-2.746054597584157
1.093759959952327,-0.21877624836279308,-8.950550968520428,-2.7578397308821088
1.0915721974686992,-0.28888551965793535,-8.978129365829249,-2.7704453080693994
1.0886833422721198,-0.358194012613357,-9.005833818909943,-2.7840039273474364
1.0851014021459862,-0.42670620492800454,-9.033673858183418,-2.798646821933516
1.0808343400967062,-0.49441807251623815,-9.061660326402754,-2.814502705483908
1.0758901593715438,-0.5613164358938476,-9.089805353457592,-2.8316968781618272
1.0702769950126052,-0.6273784632900534,-9.118122322239211,-2.8503505265520195
1.0640032103797046,-0.6925712933850479,-9.146625827504732,-2.870580162431989
1.057077497445854,-0.7568517477191621,-9.175331629129051,-2.8924971563816757
1.0495089799686625,-0.8201661093164132,-9.204256600692867,-2.9162073320486273
1.0413073188754984,-0.8824499498107361,-9.233418674013354,-2.941810595498316
1.0324828193773912,-0.9436279923535387,-9.262836779968337,-2.969400581514161
