th1 (rad),w1 (rad/s),th2 (rad),w2 (rad/s)
4.7512494008526245,2.4360100560433997,3.2768010152037914,2.831680349739006
4.775609501413059,2.4908070422832767,3.3051178187011816,2.8986852530995426
4.800517571835892,2.5431836662305582,3.334104671232177,2.9711239395650106
4.8259494084981975,2.592847294858844,3.363815910627827,3.0490249393656814
4.851877881446786,2.63948658912687,3.394306160021484,3.132398083959051
4.8782727473380545,2.682770828169891,3.4256301408610743,3.2212336631900844
4.9051004556197535,2.7223494320143526,3.4578424774929752,3.31550187085397
4.932323949939897,2.757851726398605,3.490997496201515,3.4151526159551593
4.959902467203883,2.7888869927428757,3.5251490223610666,3.52011578681853
4.987791337131312,2.8150448436230358,3.560350180229252,3.6303020645742636
5.015941785567542,2.835895958783043,3.5966532008749947,3.7456043909262178
5.044300745155373,2.850993208301916,3.634109244784257,3.8659002019909576
5.072810677238392,2.8598731776039426,3.6727682468041665,3.991054544798173
5.1014094090144315,2.8620580932800532,3.7126787922521483,4.120924195208642
5.130029989947232,2.857058129095372,3.753888034204235,4.255362894997365
5.1586005712381855,2.844374048330028,3.7964416631542086,4.394227821182141
5.187044311721486,2.8235001124303896,3.84038394136603,4.5373873919159236
5.21527931284579,2.793927158167963,3.8857578152851895,4.6847304999635995
5.24321858442747,2.7551457183322543,3.9326051202848253,4.8361772463497665
5.270770041610792,2.706649037878937,3.980966892748323,4.9916912221041105
5.2978365319895815,2.647935823638236,4.030883804969364,5.151293352938475
5.3243158902259635,2.578512568979386,4.082396738498749,5.31507727571516
5.350101015915757,2.4978953270018724,4.135547511255901,5.483226148064451
5.375079969185776,2.405610884896363,4.190379772736545,5.656030687318347
5.399136078034739,2.3011974461947706,4.246940079609728,5.833908062765798
5.422148052496687,2.184205201442462,4.305279160237386,6.017420974306183
5.443990104511111,2.054197633733225,4.365453369980448,6.207295750869648
5.464532080848444,1.9107551818172996,4.4275263274891445,6.404437439211562
5.483639632666617,1.753484164040073,4.49157070188126,6.609938366795435
5.5011744743070174,1.5820359672366682,4.557670085549215,6.825074116239191
5.516994833979384,1.3961449313735248,4.6259208267116065,7.051276533959347
5.530956283293119,1.1956988898497585,4.6964335920512,7.290066200890433
5.542913272191617,0.9808650549636533,4.769334254060104,7.54291510410426
5.552721922741254,0.7523071392978551,4.844763405101147,7.810992088928388
5.560244994134233,0.5115478842127985,4.92287332599043,8.094717743153833
5.56536047297636,0.2615516987327715,5.003820503421968,8.393024680921597
5.5679759899636885,0.007611284793939077,5.0877507502311845,8.702200973962649
5.568052102811627,-0.24142018167343007,5.174772759970811,9.014241735701637
5.5656379009948935,-0.4716927426655468,5.264915177327827,9.314867211371627
5.560920973568238,-0.6633177571423006,5.358063849441543,9.581969392288896
5.554287795996815,-0.7910715851568183,5.453883543364432,9.786262063118356
5.5463770801452466,-0.8286762294373685,5.551746163995616,9.896575665914467
5.538090317850873,-0.7571423762954895,5.650711920654761,9.89046422723069
5.530518894087918,-0.5735544816209324,5.749616562927067,9.765326995471352
5.524783349271709,-0.2934886080698939,5.847269832881781,9.541085091217345
5.521848463191009,0.05575174939403682,5.942680683793955,9.250954539796881
5.52240598068495,0.44565134787919797,6.035190229191924,8.927789618120554
5.526862494163742,0.8535410579688067,6.12446812537313,8.595442697417855
5.53539790474343,1.2642951157655915,6.210422552347309,8.267268259550454
5.548040855901086,1.66891769537531,6.293095234942813,7.94851836107102
5.56473003285484,2.062431260160365,6.372580418553523,7.639410082299088
5.585354345456444,2.442173554691778,6.448974519376513,7.337493351169497
5.6097760810033614,2.8067002560077485,6.522349452888208,7.039151191552715
5.637843083563439,3.1551641973651465,6.592740964803735,6.740458429614044
5.6693947255370905,3.487002576273229,6.660145549099875,6.437645081526002
5.704264751299823,3.801805522432057,6.724521999915135,6.127336131860568
5.742282806524143,4.099285326247523,6.785795361233741,5.80666918827809
5.783275659786618,4.379297965326148,6.8438620531165215,5.473344682108005
5.827068639439879,4.641888348905615,6.898595499937602,5.125636025788942
5.873487522928936,4.887342209359161,6.9498518601954915,4.7623725569981765
5.922360945022527,5.116234282961014,6.997475585765473,4.3829010259830365
5.973523287852137,5.329466518578382,7.041304596025303,3.987028605425727
6.026817953037921,5.528292723153354,7.08117488207956,3.574950058125146
6.082100880269454,5.714327842139165,7.1169243826608115,3.14716274593438
6.139244158690846,5.889541115239364,7.148396010120155,2.7043750798172255
6.1981395698432395,6.056232490568567,7.175439760918327,2.2474166653906344
6.258701894748925,6.216990522948931,7.197913927572234,1.7771620625033262
6.3208717999784145,6.374626833463539,7.215685548197267,1.2944855337997105
6.38461806831305,6.532075969035635,7.228630403535264,0.800272888139036
6.449938828003407,6.6922385095210775,7.236633132416654,0.2955309168947837
6.516861213098617,6.8577272784588335,7.239588441585602,-0.21834177530909316
6.585438485883206,7.03044943379623,7.237405023832511,-0.7390235933889355
6.655742980221168,7.210922444172574,7.230014787898622,-1.2623347543425965
6.727852204662894,7.397194744824606,7.217391440355196,-1.7807224818597187
6.80182415211114,7.58327672754019,7.199584215536599,-2.2810504459897767
6.877656919386542,7.757221933984386,7.176773711076701,-2.7419228390264196
6.955229138726386,7.899662598156462,7.149354482686437,-3.13173259483807
7.0342257647079505,7.984770270718246,7.1180371567380565,-3.410287113581234
7.114073467415133,7.98631275343297,7.083934285602244,-3.5378342159999123
7.193936594949462,7.888986005921946,7.048555943442246,-3.4916834658002105
7.272826455008682,7.698458180792344,7.013639108784243,-3.280899510640021
7.349811036816605,7.440379184198994,6.980830113677843,-2.944930545309207
7.424214828658594,7.148013978491332,6.9513808082247515,-2.535538011803981
7.495694968443508,6.849391589094461,6.926025428106712,-2.097709758215746
7.5641888843344525,6.562080223598897,6.905048330524554,-1.6614856483295921
7.629809686570441,6.294401349785564,6.888433474041259,-1.2432492330432532
7.692753700068297,6.048706944906515,6.876000981710826,-0.8502466761930101
7.753240769517363,5.824184251052275,6.867498514948895,-0.48460139327140866
7.811482612027885,5.618628228847575,6.862652501016181,-0.14592242505990788
7.867668894316361,5.429401510198088,6.861193276765582,0.16723688862665537
7.921962909418341,5.253900736534449,6.862865645651849,0.45663749118640484
7.9745019167836855,5.089757265661178,6.8674320205637125,0.7240102347198386
8.025399489440296,4.934905251215928,6.874672122910911,0.9709169575034007
8.074748541952456,4.7875877648119936,6.884381292485945,1.1987124315090638
8.122624419600577,4.646336509980605,6.896368416801036,1.4085527255497718
8.169087784700382,4.509942230258547,6.910453944056534,1.601422476423834
8.214187207002968,4.377423601731393,6.926468168820772,1.778167568257323
8.257961443020282,4.247997842144553,6.944249844503346,1.93952687091731
8.300441421441727,4.121054117646397,6.963645113212519,2.0861602925738567
8.34165196261819,3.9961298726046786,6.984506716138258,2.2186721935071905
8.381613261344237,3.8728898329912806,7.00669343807333,2.3376300806149173
8.42034215967415,3.7511073308075606,7.0300697388794795,2.4435789101086938
8.457853232982226,3.6306476123696005,7.054505527980567,2.5370515006113923
8.494159709105922,3.511452851889125,7.0798760429866805,2.6185756168510945
8.529274237624813,3.3935286581981674,7.106061799155191,2.688678283875077
8.563209524206794,3.276931921173351,7.132948581993942,2.7478878623668344
8.595978843418527,3.1617598899009023,7.16042746061761,2.796734371847474
8.627596442317536,3.0481404062381197,7.188394804336085,2.835748497749215
8.658077846379918,2.9362232367574213,7.216752289313577,2.8654596646189217
8.687440078747493,2.8261724555608048,7.245406885959766,2.886393503493406
8.715701803303102,2.7181598327450134,7.2742708209947,2.899068988466896
8.742883401630552,2.612359180808894,7.303261510879369,2.903995466915165
8.76900699343864,2.5089416060956613,7.332301465548521,2.901669760743133
8.794096409499597,2.40807160610899,7.3613181631559526,2.8925734731365766
8.818177125560686,2.309903947471466,7.390243897887318,2.8771705971447727
8.841276165035401,2.2145812542621885,7.419015603858766,2.8559054892930282
8.863421977578023,2.122232233000462,7.447574658751696,2.829201243401927
8.884644299908027,2.0329704588842374,7.475866671185716,2.7974584767637554
8.90497400449687,1.9468936480818801,7.503841255953353,2.761054522528445
8.924442940977688,1.8640833427940617,7.531451801178638,2.720343008193063
8.943083774405629,1.784604939224356,7.558655231260569,2.6756537899992643
8.960929823797873,1.70850799323631,7.585411769160562,2.6272932063040697
8.978014903730235,1.6358267440197447,7.611684701223602,2.575544609067881
8.994373171170434,1.5665808022300602,7.637440147314281,2.520669130978344
9.010038979192734,1.5007759555133688,7.662646838624064,2.4629066459100293
9.025046738747868,1.438405050833995,7.6872759050831645,2.402476881964743
9.039430789256208,1.3794489193678157,7.711300673902812,2.339580648857635
9.053225278449887,1.3238773157480024,7.7346964803913885,2.2744011445809917
9.066464051607367,1.271649849025522,7.757440491837198,2.2071053098206557
9.079180550097622,1.2227168877520591,7.779511544935405,2.1378452023050234
9.091407718975143,1.1770204260602077,7.800889996958455,2.0667593669699484
9.103177923235744,1.1344949014872245,7.821557590628155,1.993974181405069
9.114522872250616,1.09506795857111,7.841497332442206,1.9196051594257393
9.125473551836327,1.0586611549669704,7.8606933840364634,1.8437581987374985
9.136060163385997,1.0251906090271214,7.879130966023839,1.766530761497901
9.146312069476268,0.9945675895094027,7.8967962736388175,1.688012979121954
9.156257745371363,0.9666990493796234,7.913676403430037,1.608288674923123
9.16592473586516,0.9414881066135438,7.929759290179268,1.5274363001408178
9.175339616931295,0.9188344755389335,7.945033653180676,1.4455297805915166
9.184527961686683,0.8986348526445469,7.959488950986591,1.3626392726111773
9.193514310213128,0.8807832609720176,7.973115343712703,1.2788318281498006
9.20232214282285,0.8651713572452211,7.9859036619942,1.1941719698543034
9.210973856395302,0.851688705819884,7.997845381692743,1.1087221777532257
9.219490743453502,0.840223023387506,8.008932603470276,1.0225432897570785
9.227892973687377,0.830660398168019,8.019158036367847,0.9356948186333213
9.236199577669057,0.822885487093642,8.02851498455418,0.8482351884284154
9.244428432539992,0.8167816942335552,8.036997336438464,0.7602218935160594
9.252596249482329,0.8122313334402224,8.044599555373624,0.6717115835768112
9.26071856281673,0.8091157779128129,8.051316671209392,0.5827600778869271
9.26880972059586,0.8073155990662945,8.05714427198826,0.49342231234038203
9.276882876586523,0.8067106967587254,8.062078495111665,0.4037522226733526
9.28494998355411,0.8071804225553721,8.066116017338398,0.3138025674278573
9.293021787779663,0.8086036972885303,8.069254043012677,0.22362469429926568
9.301107824752549,0.8108591237007405,8.071490289955669,0.13326825367367162
9.309216415989557,0.8138250944347372,8.072822972492405,0.042780863381120623
9.317354666933904,0.817379895059223,8.073250781126216,-0.04779227103318924
9.325528465884496,0.8214018012043436,8.072772858415885,-0.13840877589629197
9.33374248389654,0.8257691682392722,8.071388770656922,-0.22902956388236184
9.342000175578933,0.8303605112766855,8.069098475018098,-0.3196193180558976
9.3503037806917,0.8350545726595584,8.06590228183754,-0.41014699984592684
9.358654326418296,0.8397303735019701,8.06180081183908,-0.500586375059435
9.367051630153316,0.8442672453459319,8.056794948088484,-0.5909165518841158
9.375494302606775,0.8485448375881322,8.050885782569644,-0.6811225247983749
9.383979750982656,0.8524430960486494,8.04407455732166,-0.7711957184233158
9.392504181943142,0.8558422079182455,8.036362600137426,-0.8611345256309562
9.401062604022325,0.8586225083461968,8.027751254881117,-0.9509448346674976
9.409648829105787,0.8606643441247315,8.018241806534443,-1.0406405406495467
9.418255472547035,0.8618478902907268,8.007835401127947,-1.1302440375206906
9.426873951449942,0.8620529159967408,7.99653296075274,-1.2197866873784133
9.43549448060991,0.8611584966944008,7.984335093878956,-1.3093092649472968
9.444106065576854,0.8590426705150862,7.971242001229483,-1.3988623758231857
9.452696492282005,0.855582037718861,7.957253377471251,-1.4885068478747732
9.461252312659193,0.8506513032110247,7.942368308992504,-1.5783140957866206
9.469758825691303,0.844122763403601,7.926585168034637,-1.66836645907747
9.478200053325338,0.835865740146467,7.909901503443862,-1.7587575139406255
9.486558710726802,0.8257459661062735,7.892313928304456,-1.8495923588338359
9.494816170387866,0.8136249278882344,7.873818004716118,-1.940987872791399
9.502952419666748,0.7993591754585324,7.854408125988204,-2.0330729438273827
9.510946011421334,0.7827996091448886,7.83407739654993,-2.1259886624173197
9.518774007512782,0.7637907588145822,7.8128175099257575,-2.2198884717375846
9.526411915100928,0.7421700739357409,7.790618625208381,-2.3149382619313057
9.533833615840285,0.717767248344527,7.767469242589068,-2.4113163899476864
9.54101128832373,0.6904036099405239,7.743356078689591,-2.5092135992177322
9.547915324423135,0.6598916135384528,7.718263942697414,-2.6088328042861333
9.55451424055852,0.6260344850920808,7.692175614654553,-2.7103886941679964
9.56077458540944,0.5886260779018293,7.665071727712873,-2.8141070942413813
9.566660846188459,0.5474510166886524,7.63693065677046,-2.9202240094813763
9.572135356355345,0.5022852240519062,7.607728416675646,-3.0289842513273384
9.577158208595863,0.452896946299831,7.577438574162373,-3.140639526011159
9.58168717805886,0.39904842233664584,7.546032178902261,-3.2554458334126237
9.585677662282228,0.34049837040907377,7.513477720568135,-3.3736599923082418
9.589082645986318,0.2770055029009631,7.479741120645053,-3.4955350704909076
9.591852701015327,0.20833331825881,7.444785769940144,-3.621314457564053
9.593936034197915,0.13425645981712614,7.408572625364504,-3.75122427620017
9.595278598796087,0.05456897060510403,7.371060382602502,-3.8854637878149227
9.595824288502138,-0.030905194111493214,7.3322057447243525,-4.024193416730853
9.595515236561024,-0.12229901694964737,7.291963810557044,-4.167520001920691
9.594292246391527,-0.2196862606000312,7.250288610537837,-4.3154789004102
9.592095383785527,-0.32306198422454135,7.207133821533734,-4.468012629612644
9.588864763943281,-0.4323195349794585,7.162453695237608,-4.624945871344103
9.584541568593487,-0.5472240282501597,7.116204236524167,-4.78595689786144
9.579069328310984,-0.6673826685148369,7.068344667545553,-4.950545853789355
9.572395501625836,-0.7922127583881771,7.018839209007659,-5.118000870442679
9.564473374041954,-0.9209089197666912,6.967659200303232,-5.287363724388846
9.555264284844288,-1.0524119100069065,6.914785563059343,-5.457397679405399
9.54474016574422,-1.1853824189419204,6.860211586265289,-5.626561224272945
9.5328863415548,-1.318184276431237,6.80394597402256,-5.792992521524424
9.519704498790487,-1.4488823959092267,6.7460160488073155,-5.954510303748957
9.505215674831394,-1.5752612416706802,6.686470945769826,-6.108637380601692
9.489463062414687,-1.6948692738679052,6.625384571963809,-6.252652458264424
9.472514369676007,-1.8050933224910346,6.562858047381165,-6.383674228230361
9.454463436451098,-1.903263911653757,6.499021305098862,-6.498778395908926
9.435430797334561,-1.9867882240039398,6.434033521139773,-6.595143556352722
9.415562915094522,-2.053302132922328,6.368082085576245,-6.670216141250131
9.3950298937653,-2.1008275157665652,6.301379924163744,-6.721879159403256
9.374021618607633,-2.127917247703571,6.234161132569711,-6.748605610018817
9.352742446130598,-2.1337692240835673,6.166675076469523,-6.749576699663928
9.331404753889762,-2.1182933254441414,6.099179309472883,-6.724748170052469
9.31022182063532,-2.0821213237690523,6.031931827772358,-6.6748549081086175
9.28940060739763,-2.026558143906443,5.965183278691272,-6.6013531646606305
9.269135025958565,-1.9534816773099777,5.899169747044666,-6.506308989848776
9.249600209185466,-1.8652054176676125,5.834106657146178,-6.392248711439703
9.23094815500879,-1.764322060955818,5.770184170031781,-6.261990962937868
9.21330493439923,-1.6535464189208324,5.707564260402402,-6.118479562279569
9.196769470210022,-1.5355730874065496,5.646379464779606,-5.964633158174062
9.181413739335957,-1.4129594998705106,5.586733133197866,-5.803222341001864
9.167284144337252,-1.2880396520287867,5.5287009097878475,-5.63677929741629
9.154403747816964,-1.1628690234408217,5.472333116813685,-5.467540196577544
9.142775057582556,-1.039197703742083,5.417657714847909,-5.297416956104693
9.132383080545136,-0.9184666485702662,5.364683545286862,-5.12799299523561
9.123198414059432,-0.8018211949210123,5.313403615334506,-4.960536854001734
9.115180202110222,-0.6901361301135495,5.263798246794488,-4.796027787649797
9.108278840809087,-0.584047364363124,5.215837968917991,-4.63518825501316
9.102438367165455,-0.4839862836617833,5.16948608636786,-4.478519285147753
9.097598504328836,-0.39021392376985337,5.124700893516382,-4.326335797071745
9.093696365091137,-0.30285306453678035,5.081437535545664,-4.1787999234561966
9.09066783444577,-0.22191712791747123,5.039649536311102,-4.035951185312587
9.088448663166595,-0.14733535647092671,4.999290024457976,-3.8977329669723453
9.086975309601886,-0.07897416646397677,4.960312694788253,-3.7640151649616684
9.086185567937246,-0.01665484046471414,4.922672543138636,-3.6346131609278487
9.086019019532598,0.03983211794255015,4.886326411529358,-3.509303431398217
9.086417340712023,0.09071556856532997,4.851233377215375,-3.387836187314553
9.087324496397676,0.13623483855157908,4.81735501534223,-3.2699454603227447
9.088686844783192,0.17663294029463944,4.784655560739003,-3.1553570411956433
9.090453174186138,0.21215153154983027,4.753101990327046,-3.043794643550487
9.092574689501635,0.24302728931768963,4.722664043891541,-2.934984623639441
9.095004962394812,0.26948941501312496,4.6933141976551465,-2.828659541324381
9.097699856544944,0.2917580329127355,4.665027602241903,-2.7245608026465256
9.10061743687407,0.31004328454988056,4.6377819942154375,-2.622440583070191
9.103717869719569,0.32454495754308366,4.611557588384736,-2.5220631936785605
9.106963319295,0.3354525180201395,4.58633695644795,-2.4232060206963864
9.110317844475201,0.3429454415293835,4.562104896240987,-2.325660141603532
9.113747298890495,0.34719375855661794,4.538848294824952,-2.229230698419015
9.11721923647606,0.34835874805083256,4.5165559878407615,-2.133737089994185
9.120702823956568,0.34659372629101354,4.49521861694082,-2.039013029841466
9.124168761219478,0.3420448895634501,4.474828486642405,-1.9449065036466933
9.127589210115111,0.33485217797705685,4.455379421605938,-1.8512796507190488
9.130937731894882,0.3251501347738801,4.436866625098748,-1.7580085858293497
9.13418923324262,0.31306874107813476,4.419286539240455,-1.6649831718381027
9.137319920653402,0.29873421049123466,4.402636707522073,-1.5721067489344096
9.140307262758315,0.28226973154478885,4.386915640032729,-1.479295822955395
9.143129960073763,0.26379614897778136,4.372122681803175,-1.3864797129297224
9.145767921563541,0.2434325772706059,4.358257884673877,-1.2936001565131796
9.148202247336247,0.22129694196921965,4.3453218831087455,-1.2006108712063945
9.15041521675594,0.19750644615501667,4.333315774396682,-1.1074770690284323
9.15239028121749,0.17217796101950067,4.322241003706397,-1.0141749225423262
9.154112060827686,0.14542834092461146,4.312099254480974,-0.9206909806777356
9.15556634423693,0.11737466459031806,4.302892344674197,-0.8270215335707016
9.156740090882835,0.08813440516050851,4.29462212933849,-0.7331719265508991
9.15762143493444,0.057825532859943504,4.2872904100729805,-0.6391558243753196
