th1 (rad),w1 (rad/s),th2 (rad),w2 (rad/s),a1 (rad/s^2),a2 (rad/s^2)
1.550339619790723,-0.86023121710219,5.561158092817647,1.6916960710136484,-10.885659081973587,0.016323290456858854
1.5417373076197012,-0.9690878079219258,5.578075053527783,1.691859303918217,-10.812628579086821,0.31847046747933544
1.5320464295404819,-1.077214093712794,5.594993646566965,1.6950440085930103,-10.73894396649584,0.6542566357607386
1.521274288603354,-1.1846035333777525,5.611944086652895,1.7015865749506176,-10.666821525897971,1.0231785185435274
1.5094282532695764,-1.2912717486367322,5.628959952402401,1.7118183601360528,-10.598648797965776,1.424763607471461
1.4965155357832092,-1.39725823661639,5.646078136003762,1.7260659962107674,-10.536988903289318,1.858622792826649
1.4825429534170453,-1.502628125649283,5.66333879596587,1.7446522241390339,-10.484588496034378,2.324509772772623
1.4675166721605526,-1.6074740106096268,5.68078531820726,1.7678973218667602,-10.444390547146599,2.822387563831609
1.4514419320544563,-1.711917916081093,5.698464291425927,1.7961211975050764,-10.419553296405198,3.352502708697711
1.4343227528936453,-1.816113449045145,5.716425503400978,1.8296462245920535,-10.413476896274464,3.915468130054023
1.4161616184031938,-1.9202482180078895,5.734721965646899,1.8688009058925936,-10.429839508286195,4.5123560203621755
1.3969591362231149,-2.0245466130907515,5.753409974705825,1.9139244660962154,-10.472644917901347,5.144802699275708
1.3767136700922074,-2.129273062269765,5.772549219366787,1.9653724930889724,-10.546284118943653,5.815128023966896
1.3554209394695098,-2.2347359034592014,5.792202944297676,2.0235237733286415,-10.655613792908735,6.526472710818996
1.3330735804349179,-2.3412920413882885,5.812438182030963,2.0887885004368316,-10.806055171981873,7.282957815000525
1.309660660021035,-2.4493525931081073,5.8333260670353315,2.161618078586837,-11.00371740754443,8.089871584318082
1.285167134089954,-2.5593897671835517,5.8549422478212,2.2425167944300175,-11.255550205997052,8.953889862244635
1.2595732364181185,-2.671945269243522,5.877367415765501,2.332055693052464,-11.5695309929381,9.883336947918862
1.2328537837256832,-2.787640579172903,5.9006879726960255,2.4308890625316524,-11.954891908430028,10.888493876253845
1.204977377933954,-2.9071894982572033,5.924996863321342,2.539774001294191,-12.42239087540633,11.981959545894233
1.175905482951382,-3.0314134070112666,5.950394603334283,2.6595935967531332,-12.984627541153277,13.179065193509365
1.1455913488812692,-3.1612596824227994,5.976990539301815,2.7913842486882268,-13.656396566061732,14.498330871930966
1.1139787520570412,-3.297823648083417,6.0049043817886965,2.9363675574075363,-14.455052662616131,15.961927012295103
1.081000515576207,-3.4423741747095784,6.034268057362771,3.095986827530487,-15.400824552244805,17.596051627104053
1.0465767738291112,-3.5963824202320263,6.065227925638077,3.2719473438015276,-16.516940394511,19.431028707769965
1.0106129496267908,-3.761551824177136,6.097947399076092,3.4662576308792272,-17.829280145861905,21.50072667454584
0.9729974313850195,-3.939844625635755,6.132609975384884,3.681264897624686,-19.364983630651672,23.840493284002896
0.9335989851286619,-4.133494461942272,6.169422624361132,3.9196698304647146,-21.148891183940886,26.48202894158688
0.8922640405092392,-4.34498337378168,6.208619322665779,4.184490119880583,-23.19565147211783,29.44215808967018
0.8488142067714224,-4.576939888502858,6.250464223864585,4.478911700777285,-25.49343496513559,32.69979780713598
0.8030448078863938,-4.831874238154215,6.295253340872358,4.805909678848645,-27.972004558341904,36.15094972552125
0.7547260655048517,-5.111594283737634,6.3433124376608445,5.1674191761038575,-30.44348931479691,39.52535538914553
0.7036101226674754,-5.416029176885603,6.394986629421883,5.562672729995313,-32.501587769560615,42.24477393249616
0.6494498308986193,-5.7410450545812095,6.450613356721836,5.985120469320274,-33.37738173727737,43.22033794854886
0.5920393803528072,-6.074818871953983,6.510464561415039,6.417323848805763,-31.815309751941662,40.67833162163237
0.5312911916332674,-6.3929719694733995,6.574637799903097,6.824107165022086,-26.208778420101446,32.35114172566742
0.46736147193853345,-6.655059753674414,6.642878871553318,7.147618582278761,-15.444374321071198,16.66484988770167
0.4008108744017893,-6.809503496885126,6.714355057376106,7.314267081155777,-0.5221296316078261,-4.981366744583758
0.33271583943293803,-6.814724793201204,6.787497728187664,7.26445341370994,14.661476575088042,-27.111539537580057
0.264568591500926,-6.668110027450324,6.860142262324763,6.993338018334139,25.57997514759046,-43.35275492021986
0.19788749122642274,-6.41231027597442,6.930075642508105,6.559810469131941,30.48174549412968,-51.21480873082033
0.13376438846667854,-6.107492821033123,6.995673747199424,6.047662381823738,30.661126653710983,-52.47702106730299
0.07268946025634732,-5.800881554496013,7.056150371017662,5.5228921711507075,28.29640188534826,-50.165376904975574
0.014680644711387185,-5.51791753564253,7.111379292729168,5.021238402100952,24.994320721241856,-46.5158998326
-0.04049853064503812,-5.267974328430111,7.161591676750178,4.556079403774952,21.60347030958097,-42.710669288246876
-0.09317827392933922,-5.051939625334302,7.2071524707879275,4.128972710892483,18.480497562629697,-39.24672620174893
-0.14369767018268223,-4.867134649708005,7.2484421978968525,3.7365054488749934,15.735081095449777,-36.27621022197993
-0.19236901667976228,-4.709783838753507,7.285807252385602,3.373743346655194,13.37046968367871,-33.80155377125143
-0.23946685506729737,-4.57607914191672,7.319544685852154,3.0357278089426796,11.351089352947072,-31.769431322986755
-0.2852276464864646,-4.4625682483872495,7.349901963941581,2.718033495712812,9.631998979989982,-30.111766096669427
-0.3298533289703371,-4.366248258587349,7.377082298898709,2.4169158347461175,8.170542517397507,-28.76204859669925
-0.3735158115562106,-4.284542833413374,7.40125145724617,2.129295348779125,6.930196097521991,-27.660850173148614
-0.41636123989034435,-4.215240872438154,7.422544410733961,1.852686847047639,5.881180194968374,-26.756881247513196
-0.4585136486147259,-4.15642907048847,7.441071279204437,1.585118034572507,4.999845035753356,-26.00638843446931
-0.5000779393196105,-4.106430620130936,7.456922459550162,1.325054150227814,4.267680855896213,-25.37207817753063
-0.5411422455209199,-4.063753811571974,7.47017300105244,1.0713333684525077,3.6702951371132273,-24.8220441296817
-0.5817797836366396,-4.027050860200842,7.480886334736965,0.8231129271556907,3.196479976211311,-24.328866801617462
-0.622050292238648,-3.995086060438729,7.4891174640085225,0.5798242591395161,2.837402572568376,-23.868923061008758
-0.6620011528430353,-3.966712034713045,7.494915706599918,0.34113502852942845,2.585917993670511,-23.421889961139275
-0.7016682731901658,-3.94085285477634,7.498327056885212,0.1069161289180357,2.4359935018939867,-22.970407870933574
-0.7410768017379292,-3.9164929197574,7.499396218174392,-0.12278794979130003,2.382233285011726,-22.499862648775704
-0.7802417309355032,-3.8926705869072826,7.4981683386764795,-0.34778657627905707,2.4194949333348013,-21.99824745207576
-0.8191684368045761,-3.8684756375739346,7.494690472913689,-0.5677690507998147,2.542591589313154,-21.45606841551806
-0.8578531931803154,-3.8430497216808033,7.489012782405691,-0.7823297349549952,2.746075202035463,-20.866263644858936
-0.8962836903971234,-3.815588969660449,7.481189485056142,-0.9909923714035846,3.024096435884509,-20.224111294839823
-0.9344395800937279,-3.7853480053016035,7.471279561342106,-1.193233484351983,3.3703356544388225,-19.527109615203578
-0.9722930601467439,-3.7516446487572153,7.459347226498586,-1.3885045805040188,3.7779974327738417,-18.774819350973743
-1.009809506634316,-3.7138646744294768,7.445462180693546,-1.5762527740137562,4.239858777650431,-17.968666223640987
-1.0469481533786107,-3.6714660866529725,7.429699652953409,-1.7559394362501661,4.74835920707829,-17.111707770415492
-1.0836628142451403,-3.6239824945821897,7.412140258590907,-1.927056513954321,5.295719527910063,-16.208373985102085
-1.1199026391909621,-3.571025299303089,7.392869693451364,-2.0891402538053416,5.874075862483341,-15.264194546036538
-1.155612892183993,-3.5122845406782557,7.371978290913311,-2.241782199265707,6.47561632025798,-14.285526735614406
-1.1907357375907754,-3.4475283774756758,7.349560468920654,-2.384637466621851,7.092709591018759,-13.279297530611723
-1.2252110213655323,-3.376601281565488,7.325714094254435,-2.517430441927968,7.718017388770274,-12.252771103130208
-1.2589770341811872,-3.2994211076777855,7.300539789835155,-2.63995815295927,8.344585733839683,-11.213349628395365
-1.291971245257965,-3.2159752503393886,7.274140208305562,-2.7520916492432237,8.965913131208188,-10.168411438304858
-1.324130997761359,-3.1263161190273068,7.24661929181313,-2.853775763626272,9.575996432448626,-9.125186759904334
-1.355394158951632,-3.0305561547028206,7.218081534176867,-2.9450276312253156,10.16935729320635,-8.090668007499202
-1.3856997204986603,-2.928862581770757,7.188631257864614,-3.0259343113003077,10.741053508742127,-7.071549178434792
-1.414988346316368,-2.8214520466833357,7.158371914751611,-3.0966498030846554,11.286680093567535,-6.074187492976821
-1.4432028667832013,-2.7085852457476602,7.127405416720765,-3.1573916780144238,11.802364834602626,-5.104580021971144
-1.470288719240678,-2.590561597401634,7.095831499940621,-3.2084374782341354,12.28476233118054,-4.168348542638085
-1.4961943352146942,-2.4677139740898286,7.0637471251582795,-3.250120963660516,12.7310494239284,-3.2707270494652114
-1.5208714749555925,-2.3404034798505444,7.031245915521675,-3.2828282341551684,13.138923607592773,-2.416547976098865
-1.5442755097540979,-2.2090142437746167,6.998417633180123,-3.306993713916157,13.506604710826549,-1.6102249993399416
-1.566365652191844,-2.0739481966663513,6.965347696040962,-3.3230959639095565,13.832838971815383,-0.8557320621362855
-1.5871051341585076,-1.9356198069481976,6.932116736401866,-3.3316532845309195,14.116903764943048,-0.15657977468608006
-1.6064613322279897,-1.794450769298767,6.898800203556557,-3.3332190822777803,14.358610715248725,0.48420850750823047
-1.6244058399209773,-1.6508646621462797,6.865468012733779,-3.328376997202698,14.558304799206931,1.0641179497359792
-1.64091448654244,-1.5052816141542105,6.832184242761752,-3.3177358177053384,14.716857250614133,1.5811576645665273
-1.6559673026839823,-1.3581130416480691,6.799006884584698,-3.301924241059673,14.835650608198577,2.0338673454208447
-1.669548433100463,-1.2097565355660833,6.765987642174101,-3.2815855676054646,14.916554968199119,2.4213127357055093
-1.6816459984561238,-1.060590985884092,6.733171786498047,-3.2573724402484094,14.961895337461115,2.7430683821016424
-1.6922519083149647,-0.9109720325094809,6.700598062095563,-3.229941756427393,14.974410817173117,2.999187053736944
-1.7013616286400595,-0.7612279243377498,6.668298644531289,-3.1999498858900233,14.957207093233082,3.1901561338031392
-1.708973907883437,-0.611655853405419,6.636299145672389,-3.1680483245519917,14.91370429749915,3.3168421030603343
-1.715090466417491,-0.4625188104304274,6.604618662426869,-3.1348799035213886,14.847582693636259,3.3804248591315647
-1.7197156545217953,-0.3140429834940648,6.573269863391656,-3.101075654930073,14.76272881954157,3.3823240068230214
-1.722856084356736,-0.16641569529864908,6.542259106842355,-3.067252414861843,14.663184699056083,3.3241193996295406
-1.7245202413097225,-0.019783848308088242,6.511586582693736,-3.0340112208655476,14.553102552713213,3.2074681249129102
-1.7247180797928034,0.12574717721904388,6.481246470485081,-3.0019365396164184,14.43670713734297,3.0340198388987596
-1.723460608020613,0.27011424859247357,6.4512271050889165,-2.9715963412274307,14.318267479329673,2.8053319185810257
-1.7207594655346883,0.4132969233857703,6.421511141676643,-2.9435430220416205,14.20207938646328,2.522785356126176
-1.7166264963008306,0.5553177172504031,6.3920757114562265,-2.9183151684803588,14.092459771933424,2.1875017258049123
-1.7110733191283267,0.6962423149697374,6.3628925597714225,-2.8964401512223095,13.993753533845846,1.8002609463386317
-1.7041108959786293,0.8361798503081959,6.3339281582592,-2.878437541758923,13.910353524748558,1.3614189781649721
-1.6957490974755474,0.9752833855556815,6.30514378284161,-2.8648233519772734,13.846734024027924,0.8708240653342024
-1.6859962636199906,1.1137507257959607,6.2764955493218375,-2.8561151113239314,13.807498081976405,0.32772968492800836
-1.674858756362031,1.2518257066157248,6.247934398208598,-2.8528378144746513,13.79743910912237,-0.2692979587511669
-1.6623404992958737,1.3898000977069485,6.219406020063852,-2.855530794062163,13.821617083114333,-0.9224801999355594
-1.6484424983188042,1.5280162685380918,6.190850712123231,-2.8647555960615185,13.885449642613148,-1.6349360878967423
-1.6331623356334233,1.6668707649642234,6.162203156162616,-2.881104956940486,13.994817970512914,-2.4108039709956017
-1.6164936279837812,1.8068189446693526,6.133392106593211,-2.9052129966504423,14.156186458953607,-3.255374462901861
-1.5984254385370877,1.9483808092588886,6.104339976626707,-2.937766741279461,14.3767332160731,-4.175231719846147
-1.5789416304444988,2.0921481414196195,6.0749623092139124,-2.9795190584779223,14.664484686840396,-5.178394231304477
-1.5580201490303025,2.2387929882880235,6.045167118629133,-3.031303000790967,15.028440568195489,-6.274435887341102
-1.5356322191474223,2.3890773939699783,6.014854088621224,-3.094047359664378,15.47866227455073,-7.474549377792667
-1.5117414452077225,2.5438640167154856,5.98391361502458,-3.1687928534423047,16.026275050778658,-8.791480799999972
-1.4863028050405676,2.704126767223272,5.952225686490157,-3.2567076614423045,16.683292804400523,-10.239205951880676
-1.4592615373683349,2.870959695267277,5.919658609875733,-3.3590997209611113,17.462102754219032,-11.832116740934275
-1.4305519404156621,3.0455807228094676,5.886067612666122,-3.477420888370454,18.374322136172815,-13.583309568418187
-1.4000961331875674,3.229323944171196,5.851293403782417,-3.613253984054636,19.428526266946793,-15.501266906524966
-1.3678028937458555,3.4236092068406636,5.815160863941871,-3.7682666531198854,20.62599461843206,-17.583725936626443
-1.333566801677449,3.629869153024984,5.777478197410672,-3.94410391248615,21.953068743046188,-19.806749023257396
-1.297268110147199,3.8493998404554457,5.7380371582858105,-4.1421714027187235,23.367942372674463,-22.10592120518934
-1.2587741117426445,4.0830792641821905,5.696615444258623,-4.363230614770617,24.7789026374385,-24.34547167278151
-1.2179433191008227,4.330868290556576,5.652983138110917,-4.606685331498432,26.011107384684546,-26.271211007099886
-1.1746346361952569,4.590979364403421,5.606916284795933,-4.869397441569431,26.762615360730145,-27.448296907493734
-1.1287248425512226,4.858605518010723,5.558222310380239,-5.1438804106443685,26.563674172457123,-27.203576258677256
-1.0801387873711155,5.124242259735294,5.506783506273795,-5.415916173231141,24.784708604985003,-24.636590939243952
-1.0288963647737626,5.372089345785144,5.4526243445414835,-5.66228208262358,20.78363219254556,-18.827128921562828
-0.9751754713159111,5.5799256677106,5.396001523715248,-5.850553371839209,14.279635998356984,-9.36262692469029
-0.9193762146388051,5.72272202769417,5.337495989996856,-5.944179641086111,5.847295044379622,2.963196810099534
-0.8621489943618634,5.781194978137966,5.278054193585994,-5.914547672985116,-2.946726151045694,15.952645211284759
-0.8043370445804837,5.751727716627509,5.218908716856143,-5.755021220872269,-10.217271767760957,26.946423831278388
-0.7468197674142086,5.6495549989499,5.161358504647421,-5.485556982559485,-14.813473181950028,34.30348303397829
-0.6903242174247096,5.5014202671304,5.106502934821826,-5.142522152219702,-16.730238277333292,37.98535916566687
-0.6353100147534056,5.334117884357067,5.055077713299629,-4.762668560563034,-16.67576192895482,38.95685111422742
-0.581968835909835,5.1673602650675186,5.007451027693999,-4.37310004942076,-15.467148637254965,38.34229606585496
-0.5302952332591597,5.012688778694969,4.963720027199791,-3.9896770887622104,-13.72153094978579,36.99242474766366
-0.48016834547221005,4.875473469197111,4.923823256312169,-3.6197528412855737,-11.815971810115967,35.42609531930003
-0.43141361078023893,4.757313751095952,4.887625727899313,-3.2654918880925736,-9.950661667973145,33.91660078273978
-0.3838404732692794,4.65780713441622,4.854970809018387,-2.9263258802651757,-8.218837859869568,32.58791604511302
-0.3372624019251172,4.5756187558175245,4.825707550215736,-2.6004467198140455,-6.655961045922753,31.482466170244567
-0.29150621436694196,4.509059145358297,4.7997030830175955,-2.2856220581116,-5.268946117980105,30.601388251357875
-0.246415622913359,4.456369684178496,4.7768468624364795,-1.9796081755980213,-4.052102588018377,29.92646068841736
-0.20185192607157404,4.415848658298312,4.757050780680499,-1.6803435687138477,-2.9953458148874716,29.431390007498706
-0.1576934394885909,4.385895200149438,4.740247344993361,-1.3860296686388607,-2.088196872347258,29.08732827077531
-0.11383448748709653,4.365013231425966,4.7263870483069725,-1.0951563859311075,-1.3215683446788928,28.865395130072415
-0.07018435517283686,4.351797547979177,4.715435484447662,-0.8065024346303834,-0.6884125267764585,28.737706761381734
-0.02666637969304509,4.344913422711413,4.707370460101358,-0.5191253670165661,-0.18379566458492336,28.67770442590925
0.016782754534069036,4.343075466065564,4.702179206431192,-0.23234832275747358,0.195312269669023,28.660193978534302
0.06021350919472467,4.345028588762254,4.699855723203617,0.05425361702786946,0.4503856742819232,28.6613055541519
0.10366379508234722,4.349532445505074,4.700398259373896,0.34086667256938846,0.5817554064779527,28.658475545010052
0.14715911953739796,4.355349999569853,4.70380692609959,0.6274514280194889,0.5890466517340546,28.63049534389589
0.19071261953309648,4.361240466087193,4.710081440379785,0.9137563814584478,0.4716207194866894,28.557639320386826
0.23432502419396842,4.36595667328206,4.719219004194369,1.1993327746623161,0.2290054807983499,28.42186593487344
0.277984590926789,4.368246728090043,4.731212331940992,1.4835514340110505,-0.1386988338103649,28.20707478493733
0.3216670582076894,4.3668597397519395,4.746047846281103,1.7656221818604239,-0.6304513986646595,27.899395958238276
0.3653356556052088,4.360555225765293,4.763704068099707,2.044616141442807,-1.243952691031486,27.487485167934185
0.40894120786286176,4.348115698854978,4.784150229514135,2.3194909931221486,-1.9753879259869593,26.96279826496453
0.4524223648514115,4.328361819595108,4.807345139445356,2.589118975771794,-2.8192411889361373,26.31982147194327
0.4957059830473626,4.300169407705747,4.833236329203074,2.8523171904912266,-3.768186282819369,25.556238518958057
0.53870767712442,4.262487544877553,4.861759501107986,3.107879575680807,-4.813056724285378,24.6730219836547
0.5813325525731956,4.214356977634699,4.892838296864794,3.354609795517354,-5.942893895645836,23.674442563847407
0.6234761223495426,4.154928038678241,4.9263843948199675,3.5913542211558283,-7.145069634670644,22.567995750791848
0.665025402736325,4.083477342331535,4.962297937031526,3.8170341786637465,-8.405477857904282,21.36424965130027
0.7058601761596404,3.9994225637524923,5.000468278818163,4.030676675176749,-9.708789178890148,20.076620163554637
0.7458544017971653,3.9023346719635907,5.04077504556993,4.231442876812295,-11.038762571653892,18.72108049134686
0.7848777485168013,3.791947046247052,5.083089474338053,4.418653681725764,-12.378608353289607,17.31581170598585
0.8227972189792718,3.668160962714156,5.127276011155311,4.591811798785622,-13.711396439578612,15.880800659680036
0.8594788286064133,3.5310469983183697,5.173194129143167,4.7506198053824225,-15.020502413573311,14.437391981515999
0.894789298589597,3.3808419741826365,5.220700327196991,4.894993725197582,-16.290081218265815,13.00780285490222
0.9285977183314233,3.2179411619999785,5.269650264448967,5.025071753746604,-17.50555447781335,11.614613000214854
0.9607771299514232,3.042885617221845,5.319900981986433,5.1412178837487525,-18.65409326931293,10.280247384859836
