th1 (rad),w1 (rad/s),th2 (rad),w2 (rad/s),a1 (rad/s^2),a2 (rad/s^2)
2.2093645983566743,1.12526262459772,4.6489890428321745,-2.520548546856717,-3.38173930933405,6.38048353382063
2.2206172246026514,1.0914452315043794,4.623783557363607,-2.4567437115185107,-3.3836066512334044,6.45741930187122
2.231531676917695,1.0576091649920454,4.599216120248422,-2.3921695184997986,-3.406433615866842,6.519293090491203
2.2421077685676156,1.023544828833377,4.575294425063424,-2.3269765875948867,-3.4467401614793802,6.569908088947475
2.2523432168559494,0.9890774272185833,4.552024659187476,-2.261277506705412,-3.5015420815785707,6.612384560346011
2.2622339911281353,0.9540620064027976,4.529411884120422,-2.1951536611019518,-3.5682976977097947,6.649229245565972
2.2717746111921633,0.9183790294256996,4.507460347509403,-2.128661368646292,-3.6448503587985863,6.6824100662776384
2.28095840148642,0.8819305258377137,4.486173733822939,-2.0618372679835155,-3.729371924239029,6.713429434055968
2.2897777067447973,0.8446368065953234,4.465555361143104,-1.9947029736429558,-3.8203102371880737,6.743392390899516
2.2982240748107507,0.8064337042234426,4.4456083314066746,-1.9272690497339606,-3.9163421177645,6.773067769189684
2.3062884118529854,0.7672702830457976,4.426335640909335,-1.8595383720420637,-4.016332448588411,6.802941813397008
2.3139611146834436,0.7271069585599135,4.407740257188915,-1.7915089539080937,-4.119299338161771,6.833264459061494
2.321232184269043,0.6859139651782957,4.3898251676498345,-1.7231763093174788,-4.22438501375116,6.864088877585479
2.328091323920826,0.6436701150407841,4.3725934045566595,-1.654535420541624,-4.330831927662634,6.89530508632156
2.3345280250712337,0.6003617957641577,4.3560480503512435,-1.5855823696784084,-4.437963497229633,6.926668475553045
2.3405316430288754,0.5559821607918614,4.34019222665446,-1.5163156849228778,-4.545168897071066,6.957824073882665
2.346091464636794,0.5105304718211507,4.325029069805231,-1.4467374441840513,-4.651891354154184,6.988327298576862
2.3511967693550053,0.4640115582796089,4.31056169536339,-1.3768541711982827,-4.757619444016449,7.017661841352285
2.3558368849378013,0.4164353638394444,4.296793153651407,-1.3066775527847598,-4.861880939255839,7.045255237573708
2.3600012385761957,0.367816554446886,4.28372637812356,-1.2362250004090227,-4.964238812862499,7.070492566466859
2.3636794041206644,0.318174166318261,4.27136412811947,-1.1655200747443542,-5.064289045954392,7.092728636492023
2.366861145783847,0.2675312758587171,4.259708927372026,-1.094592788379434,-5.1616599307308695,7.111298925847152
2.369536458542434,0.21591467655140842,4.248762999488232,-1.0234797991209625,-5.256012594863881,7.125529474121533
2.371695605307948,0.1633545506027696,4.238528201497022,-0.9522245043797473,-5.347042503650303,7.134745857539056
2.373329150813976,0.10988412556626656,4.229005956453225,-0.8808770458043567,-5.434481721916349,7.138281326710685
2.3744279920696387,0.05553930834710307,4.220197185995182,-0.8094942325372498,-5.518101739872765,7.1354841418352475
2.3749833851531097,0.0003582909483754171,4.2121022436698095,-0.7381393911188974,-5.597716686824303,7.125724105221405
2.3749869680625935,-0.05561887591986762,4.204720849758621,-0.6668821500666833,-5.673186774698508,7.108398264187007
2.374430779303395,-0.1123507436668527,4.198052028257954,-0.5957981674248132,-5.744421830497493,7.082935738146533
2.3733072718667265,-0.16979496197182764,4.192094046583706,-0.5249688100433478,-5.811384793554408,7.048801611340355
2.371609322247008,-0.22790880990737172,4.186844358483272,-0.4544807939299443,-5.87409507029529,7.005499826506783
2.3693302341479345,-0.28664976061032466,4.182299550543973,-0.38442579566487645,-5.932631656311663,6.952575014163902
2.3664637365418315,-0.34597607717344125,4.178455292587324,-0.3149000455232374,-5.987135953040713,6.889613196368894
2.363003975770097,-0.4058474367038484,4.175306292132091,-0.24600391355954848,-6.03781422419497,6.816241312180121
2.3589455014030585,-0.4662255789457981,4.172846252996496,-0.17784150043774727,-6.084939655129478,6.732125523897778
2.3542832456136007,-0.5270749754970928,4.171067837992118,-0.11052024519876948,-6.128853996317037,6.63696827786461
2.34901249585863,-0.5883635154602632,4.169962635540131,-0.04415056242012337,-6.16996878965328,6.530504110572006
2.3431288607040273,-0.650063203356796,4.169521129915929,0.021154478685596695,-6.208766192966644,6.4124942095054855
2.336628228670459,-0.7121508652864624,4.169732674702785,0.08527942078065155,-6.2457994332986475,6.282719758134173
2.3295067200175947,-0.7746088596194489,4.170585468910591,0.1481066183619933,-6.281692932584038,6.140974115389683
2.3217606314214003,-0.8374257889452893,4.172066535094211,0.20951635951589012,-6.3171421595316835,5.9870539017570525
2.3133863735319475,-0.9005972105406062,4.174161698689369,0.26938689853346065,-6.352913267907562,5.820749086823798
2.3043804014265414,-0.9641263432196818,4.1768555676747035,0.3275943894016986,-6.389842583048018,5.641832197231839
2.2947391379943447,-1.028024769050162,4.18013151156872,0.384012711374017,-6.4288359941351185,5.4500467902938965
2.284458890303843,-1.0923131289915133,4.18397163868246,0.43851317927695593,-6.470868298217979,5.245095368435473
2.273535759013928,-1.157021811973693,4.18835677047523,0.4909641329613107,-6.5169825216103945,5.026626945117781
2.261965540894191,-1.222191637189797,4.193266411804843,0.5412304024124885,-6.56828921329305,4.794224516783262
2.249743624522293,-1.2878745293227274,4.198678715828968,0.5891726475803212,-6.625965661084151,4.547392751381565
2.2368648792290657,-1.354134185933569,4.204570442304771,0.6346465750941368,-6.691254921931846,4.285546277017856
2.22332353736973,-1.4210467351528875,4.2109169080557125,0.6775020378643154,-6.765464479460558,4.007999050323585
2.2091130700182013,-1.488701379947493,4.2176919284343555,0.7175820283675513,-6.8499642409136134,3.713955410807102
2.1942260562187266,-1.5572010223566293,4.224867748718031,0.7547215824756223,-6.946183457136634,3.402503593756266
2.1786540459951604,-1.6266628569279957,4.232414964542787,0.7887466184131849,-7.055605987684663,3.0726126908552027
2.1623874174258804,-1.6972189168048424,4.240302430726919,0.819472745321737,-7.1797631322229165,2.723134326578891
2.145415228257832,-1.7690165481270714,4.248497158180136,0.8467040885875259,-7.320223002391823,2.352810672661385
2.127725062776561,-1.8422187781509898,4.256964199066012,0.8702321953141398,-7.478575108655284,1.9602908655738895
2.109302874995051,-1.9170045292375426,4.265666521019153,0.8898351039698786,-7.656408479084842,1.5441584344318762
2.0901328297026756,-1.993568614028391,4.274564872058852,0.9052766883141974,-7.855281209494517,1.102972995985102
2.0701971435623916,-2.0721214261233363,4.283617638941994,0.9163064182740484,-8.076678870985326,0.635330227110408
2.0494759293011584,-2.1528882148331894,4.292780703124734,0.9226597205451524,-8.32195868665737,0.13994496516714064
2.0279470471528267,-2.236107801699763,4.302007300330185,0.9240591701968238,-8.59227586604772,-0.3842368319901455
2.005585969135829,-2.3220305603602402,4.311247892032154,0.9202168018769223,-8.888488011754053,-0.9378906967158191
1.9823656635322264,-2.4109154404777806,4.320450060050923,0.9108378949097642,-9.211033182891988,-1.5211236130775931
1.9582565091274486,-2.5030257723067004,4.32955843900002,0.8956266587789883,-9.559777160077008,-2.1332338715557597
1.9332262514043816,-2.5986235439074705,4.3385147055878095,0.8742943200634307,-9.933825915990667,-2.7724138643852334
1.907240015965307,-2.6979618030673773,4.347257648788444,0.8465701814195783,-10.331300537885987,-3.4353905723977127
1.880260397934633,-2.8012748084462373,4.35572335060264,0.8122162756956012,-10.749074231729233,-4.117001983981066
1.8522476498501708,-2.9087655507635297,4.363845513359595,0.7710462558557906,-11.182474974942865,-4.8097136604502575
1.8231599943425354,-3.0205903005129584,4.371555975918153,0.722949119251288,-11.624963289404894,-5.5030888510916425
1.7929540913374058,-3.1368399334070074,4.378785467110666,0.6679182307403716,-12.067802787768544,-6.183238573618895
1.7615856920033357,-3.2575179612846927,4.38546464941807,0.6060858450041826,-12.499751640785533,-6.832295132841346
1.7290105123904889,-3.382515477692548,4.391525507868112,0.5377628936757691,-12.906815453070685,-7.427973107102431
1.6951853576135634,-3.511583632223255,4.39690313680487,0.4634831626047448,-13.272114982197099,-7.9433041193690075
1.6600695212913308,-3.644304782045226,4.401537968430917,0.38405012141105477,-13.575933463688267,-8.346652305574933
1.6236264734708785,-3.7800641166821087,4.4053784696450276,0.30058359835530546,-13.796014750992128,-8.602131025547102
1.5858258323040575,-3.91802426419203,4.408384305628581,0.21456228809983444,-13.908181051911589,-8.670541227921065
1.5466455896621372,-4.057106074711146,4.410529928509579,0.12785687582062377,-13.887323805374788,-8.510930744054507
1.5060745289150257,-4.195979312764893,4.411808497267785,0.042747568380078704,-13.708790585053514,-8.082825947243334
1.4641147357873767,-4.333067218615429,4.412235972951586,-0.03808069109235464,-13.350145023352352,-7.349111030408923
1.4207840636012223,-4.466568668848952,4.411855166040662,-0.11157180139644388,-12.793219667606865,-6.279430287080678
1.3761183769127328,-4.594500865525021,4.410739448026698,-0.17436610426725066,-12.026321246799604,-4.8538769831629285
1.3301733682574826,-4.714764077993016,4.4089957869840255,-0.22290487409887993,-11.046394005422524,-3.066625961302193
1.2830257274775523,-4.825228018047241,4.406766738243037,-0.2535711337119019,-9.860908770301817,-0.9290850310530674
1.23477344729708,-4.923837105750259,4.404231026905918,-0.26286198402243255,-8.48922907673763,1.527901176272069
1.1855350762395773,-5.008729396517635,4.401602407065694,-0.24758297225971185,-6.963212881790637,4.253250550644392
1.135447782274401,-5.078361525335541,4.399126577343097,-0.20505046675326793,-5.326839685280904,7.17663152045148
1.0846641670210455,-5.131629922188351,4.397076072675564,-0.13328415154875312,-3.634711845613837,10.211488398854456
1.033347867799162,-5.167977040644489,4.395743231160077,-0.031169267560208547,-1.9493743944356314,13.260141688398473
0.9816680973927172,-5.187470784588846,4.395431538484475,0.1014321493237762,-0.3375396304654014,16.220714876113497
0.9297933895468288,-5.1908461808935,4.396445859977713,0.26363929808491116,1.134509777504578,18.995299796684126
0.8778849277378937,-5.179501083118454,4.3990822529585625,0.45359229605175244,2.405858638140717,21.498440213285836
0.8260899169067092,-5.155442496737046,4.40361817591908,0.6685766981846109,3.4255878903193406,23.664787214121585
0.7745354919393387,-5.121186617833852,4.410303942900926,0.9052245703258267,4.156384424594581,25.454769943147667
0.7233236257610002,-5.079622773587906,4.419356188604184,1.1597722697573034,4.5765287753753485,26.857397204597188
0.6725273980251211,-5.033857485834153,4.430953911301757,1.4283462418032753,4.679931123751551,27.889830954630828
0.6221888231667796,-4.987058174596637,4.44523737371979,1.7072445513495835,4.474259265730062,28.59401669054203
0.5723182414208132,-4.9423155819393365,4.462309819233286,1.9931847182550038,3.977559593053961,29.031224153592117
0.5228950856014198,-4.902539986008797,4.482241666415836,2.283496959790925,3.214001942293227,29.2756765034069
0.47386968574133187,-4.870399966585865,4.5050766360137455,2.576253724824994,2.209422991444362,29.40845876717904
0.4251656860754732,-4.848305736671421,4.530839173261995,2.8703383124967847,0.9872150666509023,29.51264728917613
0.376682628708759,-4.8384335860049115,4.559542556386963,3.1654647853885463,-0.43512357111387656,29.670220191609907
0.3282982928487099,-4.84278482171605,4.591197204240848,3.4621669873046454,-2.048710899305787,29.960934871104197
0.2798704446315494,-4.863271930709108,4.625818874113895,3.7617763360156875,-3.8554147393861973,30.46308937976508
0.23123772532445835,-4.90182607810297,4.663436637474051,4.066407229813338,-5.869666377173998,31.255953092226065
0.18221946454342866,-4.96052274187471,4.7041007097721845,4.378966760735599,-8.120272983343707,32.423634330070634
0.13261423712468157,-5.041725471708148,4.747890377379541,4.703203104036305,-10.652518905206573,34.06018169725208
0.0821969824076001,-5.148250660760214,4.794922408419904,5.043804921008826,-13.530709377551503,36.27567699923548
0.030714475799997955,-5.283557754535729,4.845360457629992,5.406561691001181,-16.840949182553985,39.20275201533482
-0.022121101745359334,-5.451967246361269,4.899426074540004,5.798589211154529,-20.69303121907171,43.0018566123803
-0.07664077420897203,-5.6588975585519865,4.957411966651549,6.228607777278333,-25.217977281850537,47.86051869069614
-0.1332297497944919,-5.911077331370492,5.019698044424332,6.707212964185294,-30.551875845585897,53.973776714854495
-0.19234052310819683,-6.216596089826351,5.086770174066185,7.246950731333839,-36.781989610984624,61.47266411044148
-0.25450648400646037,-6.584415985936197,5.159239681379524,7.861677372438254,-43.796076365047306,70.21884513257498
-0.32035064386582235,-7.02237674958667,5.237856455103906,8.563865823764004,-50.90123895433079,79.27906879655279
-0.390574411361689,-7.531389139129978,5.323495113341546,9.356656511729533,-55.97163616227408,85.74227553382833
-0.4658883027529888,-8.091105500752718,5.4170616784588415,10.214079267067817,-54.01278035637127,82.71783108660215
-0.546799357760516,-8.631233304316432,5.519202471129519,11.041257577933838,-36.671366555068204,58.64243821668968
-0.6331116908036803,-8.997946969867114,5.6296150469088575,11.627681960100734,1.216764402217046,6.39840559580019
-0.7230911605023514,-8.985779325844943,5.745891866509865,11.691666016058736,46.3686120800572,-55.47073566245178
-0.8129489537608009,-8.52209320504437,5.862808526670452,11.13695865943422,72.98050670112828,-91.21359577968944
-0.8981698858112446,-7.792288138033088,5.974178113264794,10.224822701637326,75.64213103597453,-93.64887868465762
-0.9760927671915754,-7.035866827673343,6.076426340281167,9.28833391479075,67.08173169100418,-80.61535114787257
-1.0464514354683088,-6.365049510763301,6.169309679429075,8.482180403312023,56.82102332384049,-65.27752416740942
-1.1101019305759419,-5.796839277524896,6.254131483462195,7.829405161637929,48.048922157091745,-51.97102113362546
-1.1680703233511909,-5.316350055953978,6.332425535078574,7.309694950301674,41.222969421300114,-41.26861135119009
-1.2212338239107308,-4.904120361740977,6.405522484581591,6.897008836789773,36.0696090543419,-32.753684849806596
-1.2702750275281405,-4.5434242711975585,6.474492572949489,6.569471988291707,32.22245546688221,-25.89526524279261
-1.315709270240116,-4.221199716528736,6.540187292832407,6.310519335863781,29.37478395800813,-20.253228851650988
-1.3579212674054035,-3.927451876948655,6.6032924861910445,6.1079870473472715,27.29601463417639,-15.498626016161383
-1.39719578617489,-3.654491730606891,6.664372356664517,5.953000787185657,25.817306686767534,-11.39349176278473
-1.433740703480959,-3.396318663739216,6.723902364536373,5.83906586955781,24.814122535589096,-7.76797362413564
-1.4677038901183512,-3.148177438383325,6.782293023231952,5.761386133316454,24.191787056800962,-4.502793095544245
-1.4991856645021844,-2.9062595678153156,6.839906884565116,5.716358202361011,23.874397861384463,-1.5174220474711817
-1.5282482601803375,-2.667515589201471,6.897070466588726,5.7011839818863,23.79627286236404,1.2372168421555265
-1.5549234160723522,-2.4295528605778305,6.954082306407589,5.713556150307855,23.895138678352367,3.78279170647516
-1.5792189446781304,-2.190601473794307,7.011217867910667,5.751384067372606,24.106565320445124,6.115454169149216
-1.6011249594160735,-1.9495358205898556,7.0687317085843935,5.812538609064098,24.359521611289274,8.206634739531868
-1.620620317621972,-1.705940604476963,7.126857094675034,5.894604956459417,24.573323801170417,10.003897077979119
-1.6376797236667415,-1.4602073664652588,7.185803144239628,5.994643927239208,24.65665483970504,11.433231222164329
-1.6522817973313941,-1.2136408180682083,7.24574958351202,6.108976239460851,24.509665782952524,12.40437516075981
-1.6644182055120762,-0.9685441602386831,7.306839345906629,6.233019991068449,24.03025884712347,12.820699481152376
-1.674103647114463,-0.7282415717674484,7.369169545817313,6.361226985879973,23.125225867944376,12.59452165012263
-1.6813860628321375,-0.49698931308800465,7.432781815676113,6.487172202381199,21.72571961219035,11.667121754773792
-1.6863559559630177,-0.2797321169661011,7.497653537699925,6.603843419928937,19.804568557342236,10.030244073812245
-1.6891532771326787,-0.08168643139267875,7.563691971899215,6.70414586066706,17.390779018387615,7.743248963473034
-1.6899701414466055,0.09222135879119739,7.630733430505885,6.78157835030179,14.575435648449181,4.9388887905687735
-1.6890479278586936,0.2379757152756892,7.698549214008903,6.830967238207478,11.504490955148876,1.8125768577485322
-1.6866681707059368,0.35302062482717794,7.7668588863909775,6.849093006784964,8.358011398921393,-1.4046907254383187
-1.683137964457665,0.4366007388163919,7.8353498164588276,6.83504609953058,5.3207925914099,-4.483014856077869
-1.678771957069501,0.4898086647304909,7.903700277454133,6.7902159509698015,2.5529434406476907,-7.22894722016007
-1.673873870422196,0.5153380991369678,7.971602436963831,6.7179264787682005,0.16880047247717367,-9.509445180192982
-1.6687204894308263,0.5170261038617395,8.038781701751514,6.622832026966271,-1.7713920876030167,-11.2596276772612
-1.663550228392209,0.49931218298570934,8.105010022021176,6.510235750193659,-3.257704486750592,-12.47589743420568
-1.658557106562352,0.46673513811820344,8.170112379523113,6.385476775851602,-4.318874677951196,-13.200125605329376
-1.6538897551811698,0.4235463913386915,8.233967147281628,6.253475519798308,-5.007911578604373,-13.501316158666825
-1.649654291267783,0.37346727555264775,8.296501902479612,6.11846235821164,-5.388899757242986,-13.459443239047035
-1.6459196185122564,0.3195782779802179,8.357686526061729,5.98386792582117,-5.527046535404681,-13.153687668736508
-1.6427238357324543,0.2643078126261711,8.41752520531994,5.852331049133805,-5.4823811836961625,-12.65531390697933
-1.6400807576061927,0.20948400078920948,8.476048515811279,5.725777910064012,-5.306559382243987,-12.024338051686518
-1.6379859175983005,0.15641840696676962,8.533306294911918,5.605534529547146,-5.041881937179107,-11.30880357405281
-1.6364217335286328,0.10599958759497854,8.58936164020739,5.492446493806618,-4.721670939266196,-10.545588241067719
-1.635361737652683,0.058782878202316584,8.644286105145456,5.386990611395941,-4.3713417615974075,-9.761941684275984
-1.6347739088706599,0.015069460586342509,8.698156011259416,5.289371194553181,-4.00972906066019,-8.977237529200126
-1.6346232142647965,-0.025027830020259392,8.751049723204947,5.19959881926118,-3.6504070569475537,-8.204649378107172
-1.634873492564999,-0.06153190058973493,8.803045711397559,5.117552325480108,-3.302872935588773,-7.452613638077922
-1.6354888115708963,-0.09456062994562266,8.85422123465236,5.043026189099328,-2.9735430559635163,-6.726035573616966
-1.6364344178703525,-0.12429606050525782,8.904651496543353,4.975765833363159,-2.6665573099434208,-6.0272454882980115
-1.637677378475405,-0.15096163360469203,8.954409154876984,4.915493378480178,-2.384409516587422,-5.356735224408024
-1.639186994811452,-0.17480572877056624,9.003564088661786,4.861926026236098,-2.1284304623046317,-4.713712701496267
-1.6409350520991577,-0.19609003339361256,9.052183348924148,4.814788899221136,-1.8991513692343591,-4.096511527891028
-1.6428959524330937,-0.21508154708595614,9.10033123791636,4.773823783942226,-1.6965730955550287,-3.5028883498872347
-1.6450467679039533,-0.23204727804150643,9.148069475755781,4.738794900443353,-1.5203624780241878,-2.930235076018403
-1.6473672406843685,-0.2472509028217483,9.195457424760214,4.709492549683169,-1.3699931030272146,-2.375727710500144
-1.6498397497125858,-0.26095083385202045,9.242552350257046,4.685735272578167,-1.2448439935036635,-1.8364288162987705
-1.652449258051106,-0.2733992737870571,9.289409702982828,4.66737098441518,-1.1442664294460876,-1.309356786220154
