th1 (rad),w1 (rad/s),th2 (rad),w2 (rad/s),a1 (rad/s^2),a2 (rad/s^2)
1.7212661903852633,-1.7481188035632185,4.507315762829392,-1.1548009713426195,-9.737099827177948,-0.5972305874916184
1.703785002349631,-1.845489801834998,4.495767753115966,-1.1607732772175356,-9.907080658271703,-0.9034037085565131
1.6853301043312812,-1.944560608417715,4.484160020343791,-1.1698073143031007,-10.079468451998473,-1.2181345326155348
1.665884498247104,-2.0453552929376997,4.47246194720076,-1.1819886596292561,-10.252738187889609,-1.5389170421590312
1.645430945317727,-2.1478826748165956,4.460642060604467,-1.1973778300508464,-10.425112846424591,-1.8628033684248326
1.623952118569561,-2.2521338032808416,4.4486682823039585,-1.2160058637350948,-10.594531459354767,-2.186351600359662
1.6014307805367525,-2.3580791178743894,4.436508223666608,-1.2378693797386915,-10.758617978401647,-2.505574456097012
1.5778499893580087,-2.465665297658406,4.424129529869221,-1.2629251242996615,-10.914652136674018,-2.8158908087338936
1.5531933363814245,-2.574811819025146,4.4115002786262245,-1.2910840323870005,-11.059543717923768,-3.112082539766588
1.527445218191173,-2.6854072562043836,4.398589438302355,-1.3222048577846663,-11.189811891776223,-3.388259698709609
1.5005911456291292,-2.797305375122146,4.385367389724508,-1.3560874547717625,-11.301571505268576,-3.637837452631195
1.4726180918779077,-2.9103210901748318,4.37180651517679,-1.3924658292980745,-11.390528427912207,-3.853528785324427
1.4435148809761593,-3.0242263744539537,4.35788185688381,-1.4310011171513188,-11.451986214639245,-4.027357318992872
1.4132726172316197,-3.1387462366003462,4.3435718457122965,-1.4712746903412475,-11.480866466099561,-4.150694946020432
1.3818851548656161,-3.253554901261342,4.328859098808884,-1.5127816398014517,-11.471745320952486,-4.214329139895114
1.3493496058530028,-3.3682723544708666,4.31373128241087,-1.554924931200403,-11.41890850857227,-4.208564831851249
1.3156668823082942,-3.482461439556589,4.298182033098866,-1.5970105795189156,-11.316427328752422,-4.123365568339895
1.2808422679127283,-3.5956257128441136,4.282211927303677,-1.6382442352023145,-11.158257819227693,-3.9485382844286616
1.2448860107842872,-3.7072082910363906,4.265829484951653,-1.6777296180466013,-10.938365234808167,-3.673965420695862
1.2078139278739233,-3.816591943384472,4.249052188771187,-1.71446927225356,-10.650875797872988,-3.2898872474515115
1.1696480084400787,-3.923100701363202,4.231907496048652,-1.7473681447280751,-10.29025747021134,-2.7872360852859717
1.1304170014264467,-4.026003276065316,4.214433814601371,-1.7752405055809348,-9.851531180299002,-2.1580225223692913
1.0901569686657935,-4.124518587868306,4.196681409545562,-1.7968207308046278,-9.330513395354824,-1.3957715538502227
1.0489117827871104,-4.217823721821855,4.178713202237516,-1.81077844634313,-8.724089951838133,-0.4960035490065101
1.006733545568892,-4.305064621340236,4.160605417774084,-1.8157384818331952,-8.030519364548839,0.543249251739667
0.9636828993554896,-4.385369814985724,4.142448032955752,-1.8103059893157984,-7.2497610692434105,1.720905775211414
0.9198292012056323,-4.457867425678158,4.124344973062594,-1.7930969315636842,-6.383819850091671,3.0323014119859932
0.8752505269488506,-4.5217056241790745,4.106414003746957,-1.7627739174438244,-5.437091786138823,4.468687949910003
0.8300334707070599,-4.576076542040463,4.088786264572519,-1.7180870379447244,-4.416689396601677,6.016811834598131
0.7842727052866553,-4.620243436006479,4.071605394193072,-1.6579189195987432,-3.332714709146003,7.658626335013648
0.7380702709265905,-4.653570583097939,4.055026204997085,-1.5813326562486067,-2.19843983253072,9.371203584716868
0.6915345650956111,-4.675554981423247,4.039212878434599,-1.4876206204014382,-1.0303472327814114,11.126918181519644
0.6447790152813786,-4.68585845375106,4.024336672230585,-1.3763514385862416,0.15202095440829996,12.893970961537875
0.597920430743868,-4.684338244206978,4.010573157844722,-1.2474117289708628,1.3264503742508973,14.637305399131304
0.5510770483017983,-4.671073740464469,3.9980990405550134,-1.1010386749795498,2.4687089459118727,16.319936567687364
0.5043663108971536,-4.646386651005351,3.987088653805218,-0.9378393093026761,3.5534710544398664,17.904663291836044
0.45790244438710004,-4.610851940460952,3.977710260712191,-0.7587926763843157,4.5554756990746315,19.356072171705442
0.4117939249824905,-4.565297183470205,3.970122333948348,-0.5652319546672613,5.450838742616179,20.64267723858162
0.36614095314778844,-4.510788796044044,3.9644700144016753,-0.3588051822814451,6.218398311684732,21.73898553115441
0.321033065187348,-4.448604812927196,3.9608819625788607,-0.141415326969901,6.8409451282121205,22.62725294342778
0.276547017058076,-4.380195361645075,3.9594678093091615,0.08485720246437681,7.306185913003312,23.298709008830553
0.23274506344162524,-4.307133502515042,3.960316381333805,0.3178442925526823,7.607313101845528,23.754087850035823
0.1896737284164748,-4.231060371496587,3.9634948242593318,0.5553851710530405,7.743105592972172,24.003397321882833
0.14736312470150895,-4.153629315566865,3.969048675969862,0.7954191442718689,7.7175529303302755,24.06497018269653
0.1058268315458403,-4.076453786263562,3.977002867412581,1.0360688460988343,7.539063919824785,23.96394483897358
0.06506229368320468,-4.001063147065314,3.987363555873569,1.27570829448857,7.219374585991399,23.73039579939417
0.02505166221255154,-3.9288694012054,4.000120638818455,1.5130122524825118,6.772298707777197,23.39736180294531
-0.014237031799502461,-3.8611464141276284,4.01525076134328,1.746985870511965,6.2124637353748495,22.999001923915724
-0.05284849594077875,-3.79902177677388,4.0327206200484,1.9769758897511223,5.554150177562535,22.569057617275845
-0.09083871370851755,-3.7434802749982548,4.052490378945911,2.2026664659238806,4.810313096440346,22.139728919744734
-0.1282735164585001,-3.695377144033851,4.07451704360515,2.424063755121328,3.991820986063842,21.74100340381134
-0.16522728789883862,-3.655458934173213,4.098757681156363,2.6414737891594413,3.106908955639305,21.400420029709
-0.20178187724057073,-3.62438984461682,4.125172419047957,2.8554779894565314,2.160815087525026,21.143213186821317
-0.23802577568673894,-3.6027816937415698,4.153727198942523,3.0669101213247445,1.1555527298267154,20.99276519623618
-0.27405359262415463,-3.5912261664433025,4.18439630015577,3.2768377732871063,0.08976636001424605,20.971294234739165
-0.30996585428858764,-3.59032850284316,4.217164677888641,3.486550715634498,-1.0413774662113422,21.10071258044837
-0.34586913931701924,-3.6007422775052733,4.252030185044986,3.697557841438982,-2.2463011225300167,21.40359976156652
-0.381876562092072,-3.6232052887305737,4.289005763459376,3.911593839054647,-3.5371462373555325,21.904238003996632
-0.41810861497937774,-3.658576751104129,4.3281217018499225,4.1306362190946135,-4.929908106920734,22.6296417823237
-0.45469438249041905,-3.7078758321733365,4.369428064040869,4.3569326369178505,-6.444501660687841,23.610460378611275
-0.4917731408121524,-3.772320848780215,4.412997390410047,4.593037240703963,-8.10457950527618,24.881507007960696
-0.5294963492999546,-3.853366643832977,4.458927762817087,4.84185231078357,-9.936716173970563,26.481401808021257
-0.5680300157382844,-3.9527338055726826,4.507346285924923,5.106666328863782,-11.968169443323383,28.450274682116675
-0.6075573537940112,-4.072415500005916,4.558412949213561,5.391169075684949,-14.22164359088987,30.82339983094458
-0.6482815087940703,-4.214631935914815,4.61232463997041,5.699403073994395,-16.70397328795411,33.61655512447573
-0.6904278281532185,-4.381671668794356,4.6693186707103544,6.0355686252391525,-19.38287651995528,36.795049145048324
-0.734244544841162,-4.575500433993908,4.729674356962746,6.403519116689636,-22.14128881028513,40.211870137547706
-0.779999549181101,-4.79691332209676,4.793709548129642,6.805637818065113,-24.69278503262314,43.491907696707095
-0.8279686824020687,-5.043841172422991,4.861765926310293,7.240556895032184,-26.440550541885003,45.83737542090975
-0.8784070941262986,-5.308246677841841,4.934171495260615,7.698930649241282,-26.292340683746605,45.77059126083514
-0.931489560904717,-5.571170084679307,5.011160801753028,8.156636561849634,-22.57266108589932,41.00870174259433
-0.9872012617515101,-5.7968966955383,5.092727167371524,8.566723579275578,-13.465666023735702,29.071463393322365
-1.0451702287068931,-5.931553355775657,5.17839440316428,8.857438213208802,1.4421934904797367,9.411808622017498
-1.1044857622646498,-5.917131420870859,5.266968785296368,8.951556299428978,19.197778327541272,-13.878354182238347
-1.1636570764733585,-5.725153637595446,5.356484348290658,8.812772757606595,34.20615460527411,-33.10815157377335
-1.220908612849313,-5.383092091542705,5.444612075866724,8.481691241868862,42.592166531565105,-43.03990531149616
-1.27473953376474,-4.957170426227054,5.529428988285413,8.051292188753902,44.72350651148066,-44.31416602185825
-1.3243112380270106,-4.509935361112247,5.609941910172952,7.608150528535319,43.174605726380165,-40.55862121828022
-1.369410591638133,-4.078189303848445,5.686023415458306,7.202564316352516,40.196617327986665,-34.88874781379437
-1.4101924846766174,-3.6762231305685784,5.758049058621831,6.8536768382145725,37.03242048010737,-28.99723408046414
-1.446954715982303,-3.305898925767505,5.826585827003976,6.5637044974099314,34.202087108491696,-23.574404910685686
-1.4800137052399782,-2.963878054682588,5.892222871978076,6.327960448303075,31.86054664052344,-18.812042746798184
-1.509652485786804,-2.645272588277354,5.955502476461106,6.139840020835093,30.00949482765874,-14.697694971746557
-1.5361052116695777,-2.3451776400007662,6.016900876669457,5.992863071117627,28.597020520594075,-11.151415462243085
-1.5595569880695854,-2.0592074347948257,6.076829507380633,5.881348916495196,27.55905195682226,-8.081886723743265
-1.5801490624175336,-1.783616915226603,6.1356429965455845,5.800530049257763,26.834663101306564,-5.406767233631847
-1.5979852315697995,-1.5152702842135373,6.1936482970381626,5.746462376921445,26.370492212389667,-3.0583772588217397
-1.613137934411935,-1.2515653620896405,6.251112920807377,5.715878604333228,26.12093774892267,-0.9838407832655711
-1.6256535880328313,-0.9903559846004137,6.308271706850709,5.706040196500572,26.04691462471728,0.8565750221993457
-1.6355571478788355,-0.7298868383532409,6.365332108815715,5.714605946722566,26.114286513748585,2.491473267836459
-1.642856016262368,-0.468743973215755,6.42247816828294,5.739520679400931,26.29239537609229,3.9401938958216753
-1.6475434559945255,-0.20582001945483208,6.4798733750769495,5.778922618359148,26.552830326851282,5.214415259839689
-1.6496016561890738,0.05970828381368076,6.537662601260541,5.831066770957545,26.86847343225754,6.319517806285463
-1.649004573350937,0.3283930181362562,6.595973268970116,5.894261949020399,27.212826780874607,7.255784511465179
-1.6457206431695746,0.6005212859450023,6.65491588846032,5.966819794135051,27.55961877488531,8.01952012600626
-1.6397154303101245,0.8761174736938554,6.714584086401671,6.047014995395114,27.882688405158053,8.604161207209527
-1.630954255573186,1.154944357745436,6.775054236355622,6.133056607467209,28.156145260112833,9.001429601353491
-1.6194048119957316,1.4365058103465642,6.8363848024302944,6.223070903480743,28.35479583161029,9.202556036706728
-1.605039753892266,1.7200537686626671,6.898615511465102,6.31509646384781,28.45481156004843,9.199568871196243
-1.5878392162056394,2.0046018842631517,6.96176647610358,6.407092152559773,28.434591327339565,8.986607536987641
-1.567793197363008,2.2889477975365473,7.025837397629178,6.49695822792965,28.275743287162275,8.561184381816885
-1.5449037193876425,2.57170523040817,7.090806979908474,6.582570071747819,27.964082855231513,7.925288120732879
-1.5191866670835608,2.8513460589604853,7.156632680625952,6.661822952955148,27.49052213335427,7.086204256751822
-1.4906732064939558,3.126251280294028,7.223250910155504,6.732684995522666,26.851718518355806,6.056929884512605
-1.4594106936910156,3.394768465477586,7.290577760110731,6.793254294367792,26.05036301835048,4.856087177318435
-1.4254630090362397,3.6552720956610907,7.358510303054409,6.841815166140976,25.095024532889955,3.5072916308053337
-1.3889102880796287,3.90622234098999,7.426928454715819,6.876888082449029,23.999522222470944,2.0380013676967037
-1.3498480646697288,4.1462175632147,7.495697335540309,6.8972680961259965,22.781865305779228,0.47794987340710465
-1.308385889037582,4.374036216272492,7.5646700165015694,6.9020475948600675,21.462865011598993,-1.1426697320483998
-1.264645526874857,4.5886648663884815,7.63369049245017,6.890620897539583,20.064572885949094,-2.7950606030956395
-1.2187588782109722,4.789310595247972,7.702596701425566,6.862670291508627,18.60872241789707,-4.453504902120935
-1.1708657722584925,4.975397819426943,7.7712234043406525,6.8181352424874175,17.11534284977605,-6.096690784662484
-1.121111794064223,5.1465512479247035,7.839404756765527,6.7571683346407925,15.601678688149946,-7.7085595381291965
-1.0696462815849759,5.302568034806203,7.906976440111935,6.6800827392595,14.081495664271067,-9.278620745706606
-1.016620601236914,5.443382991448914,7.97377726750453,6.587296531802434,12.564796333392486,-10.801753220832982
-0.9621867713224248,5.569030954782838,8.039650232822554,6.479278999594104,11.05791771744623,-12.277564725138332
-0.9064964617745964,5.6796101319573005,8.104443022818495,6.356503352342721,9.563947048501552,-13.709417464158165
-0.8497003604550234,5.775249602442316,8.168008056341922,6.21940917770114,8.083372448404825,-15.103238628713973
-0.7919478644306003,5.856083326926364,8.230202148118932,6.068376791414,6.614881606501981,-16.466230179183494
-0.7333870311613366,5.922232142991384,8.290885916033073,5.903714489622165,5.156228781590477,-17.805576420081582
-0.6741647097314228,5.973794430807289,8.349923060929294,5.725658725421349,3.7051034548399544,-19.127228545425602
-0.61442676542335,6.010845465355689,8.407179648183508,5.534386439967093,2.259947974536685,-20.434827598013293
-0.5543183107697931,6.0334449451010554,8.462523512583179,5.330038163986959,0.8206832708820013,-21.72881424761492
-0.4939838613187825,6.041651777809875,8.515823894223049,5.11275002151081,-0.6106903942996531,-23.005766174460643
-0.43356734354068377,6.035544873866878,8.566951394438156,4.882692359766204,-2.029646603258269,-24.258000361313385
-0.373211894802015,6.015248407834296,8.615778318035819,4.64011235615307,-3.428867234293619,-25.473475500476233
-0.31305941072367205,5.98095973549136,8.662179441597349,4.385377601148307,-4.798184141562257,-26.636025425542236
-0.25324981336875846,5.932977894075737,8.706033217608832,4.119017346892885,-6.124750131393283,-27.725944282149644
-0.1939200344280011,5.871730392761805,8.74722339107776,3.8417579040713883,-7.3934523773652705,-28.72092510317937
-0.13520273050038306,5.797795868988152,8.785640970118473,3.5545486530395944,-8.587565710540126,-29.597324324942374
-0.07722477181050154,5.7119202118827515,8.821186456648869,3.2585754097901707,-9.689620567856634,-30.331687027022884
-0.02010556969167402,5.615024006204185,8.85377221074677,2.9552585395199418,-10.682432788144364,-30.902426039359288
0.03604467037036783,5.508199678322741,8.88332479614197,2.646234279126349,-11.550214271800664,-31.29151038244759
0.09112666715359524,5.392697535604735,8.909787138933234,2.333319175301873,-12.279660933256617,-31.48599443557902
0.1450536425096426,5.269900926272169,8.933120330686252,2.0184592309460827,-12.860903960598531,-31.479217762985527
0.19775265177236429,5.141291886666184,8.953304922995713,1.7036670533162275,-13.288217165718965,-31.27153198085751
0.2491655706390261,5.008409715008995,8.970341593528875,1.3909517335076524,-13.560398623019962,-30.870464466464604
0.29924966778911605,4.872805728778795,8.984251110863951,1.0822470888430065,-13.680785638285824,-30.290300966853092
0.347977725076904,4.735997872395937,8.995073581752381,0.7793440791744755,-13.656910834264451,-29.55114646375504
0.39533770380086336,4.599428764053292,9.002867022544125,0.48383261453692505,-13.499853887800585,-28.677590219181024
0.4413319914413963,4.4644302251752865,9.007705348689495,0.1970567123451148,-13.22337881105673,-27.697143608480914
0.48597629369314915,4.332196437064719,9.009675915812945,-0.07991472373969438,-12.842964450955073,-26.638631344925166
0.5292982580637964,4.203766792555169,9.008876768575549,-0.34630103718894606,-12.374834610955936,-25.53069902474061
0.571335925989348,4.080018446445609,9.005413758203659,-0.6016080274363522,-11.83507694804836,-24.40056020972821
0.6121361104538041,3.9616676769651256,8.999397677929295,-0.8456136295336343,-11.238912630414177,-23.273055703768485
0.6517527872234554,3.849278550660984,8.990941541633958,-1.0783441865713193,-10.600148567142531,-22.170047453295947
0.6902455727300653,3.7432770649895586,8.980158099768245,-1.3000446611042786,-9.930816700012265,-21.110128046113285
0.7276783433799608,3.643968897989436,8.967157653157201,-1.5111459415654114,-9.240984093583124,-20.108598528576426
0.7641180323598552,3.5515590570536046,8.952046193741547,-1.7122319268511756,-8.53870475117653,-19.1776528137893
0.7996336229303913,3.466172009541839,8.934923874473034,-1.9040084549890686,-7.830078731223004,-18.326704186592437
0.8342953430258097,3.387871222229609,8.915883789923143,-2.087275496854993,-7.119384648578759,-17.562794836540686
0.8681740552481058,3.3166773757438213,8.895011034954592,-2.2629034452203998,-6.409256064740105,-16.89103928396591
0.901340829005544,3.2525848150964203,8.872382000502387,-2.4318138380600587,-5.700878822714452,-16.315063863738242
0.9338666771565082,3.1955760268692757,8.848063862121787,-2.594964476697441,-4.994193762563722,-15.8374147909022
0.9658224374252009,3.1456340892436385,8.822114217354812,-2.7533386246064633,-4.2880967291951215,-15.459915249089441
0.9972787783176373,3.1027531219516873,8.794580831108748,-2.9079377770973576,-3.580635175404159,-15.183956487745967
1.0283063095371543,3.066946770197646,8.765501453337775,-3.0597773419748173,-2.8692082902813736,-15.010708420007433
1.0589757772391308,3.038254687294832,8.734903679918027,-3.2098844261748916,-2.1507862315876976,-14.941230937487601
1.0893583241120792,3.016746824978955,8.702804835656277,-3.3592967355497674,-1.422174984721822,-14.976456948910508
1.1195257923618687,3.0025250751317367,8.66921186830078,-3.5090613050388724,-0.6803684617071879,-15.117000108626904
1.1495510431131861,2.9957213905146647,8.63412125525039,-3.6602313061251412,0.07694875100504699,-15.362711372516236
1.1795082570183328,2.9964908780247153,8.597518942189138,-3.8138584198503036,0.850652755837573,-15.711864712692039
1.20947316579858,3.004997405583091,8.559380357990635,-3.970977066977224,1.6390448924771661,-16.15978844944951
1.2395231398544109,3.0213878545078625,8.519670587320864,-4.132574951471719,2.436126069592293,-16.696670559651
1.2697370183994896,3.0457491152037854,8.478344837806146,-4.299541657068229,3.229000312403962,-17.304156419811452
1.3001945095515275,3.078039118327825,8.435349421235465,-4.472583221266343,3.994052771041571,-17.950249220547953
1.3309749007348057,3.1179796460382407,8.390623589022802,-4.6520857134718225,4.691533112622194,-18.581993977217877
1.3621546971951881,3.1648949771644626,8.344102731888084,-4.837905653244001,5.258363387050747,-19.115671271601972
1.3938036469668327,3.21747861103497,8.295723675355644,-5.029062365960021,5.59968222507752,-19.425163664082035
1.4259784330771823,3.2734754332857454,8.245433051696043,-5.2233140026008416,5.581359270853917,-19.331514227304954
1.4587131874100399,3.3292890259942847,8.193199911670035,-5.416629144873891,5.029080931141238,-18.601333305704067
1.4920060776699826,3.379579835305697,8.139033620221296,-5.602642477930932,3.74450439566607,-16.96847923501918
1.5258018760230396,3.4170248792623577,8.083007195441986,-5.7723272702811235,1.5523372745033865,-14.198108192865673
1.5599721248156633,3.4325482520073916,8.025283922739176,-5.914308352209781,-1.614830456390346,-10.202482313928693
1.594297607335737,3.4163999474434883,7.966140839217078,-6.016333175349067,-5.61611718238431,-5.177805931549408
1.628461606810172,3.3602387756196452,7.905977507463588,-6.068111234664562,-10.053270585398492,0.3303676180032543
