th1 (rad),w1 (rad/s),th2 (rad),w2 (rad/s),a1 (rad/s^2),a2 (rad/s^2)
4.555320604920172,0.9981806810410588,5.547992978804385,-2.4501865670440495,12.490142766529551,-1.0865776309608903
4.565302411730582,1.1230821087063543,5.523491113133945,-2.4610523433536584,12.613281446467491,-1.535360484162417
4.576533232817646,1.2492149231710292,5.498880589700408,-2.4764059481952825,12.767397305460552,-2.032598616282531
4.589025382049356,1.3768888962256347,5.474116530218455,-2.496731934358108,12.954234835264442,-2.5784634885313005
4.6027942710116125,1.506431244578279,5.449149210874874,-2.522516569243421,13.174949951741894,-3.172340235361247
4.617858583457395,1.638180744095698,5.42392404518244,-2.5542399715970334,13.429762370756809,-3.812295820992935
4.634240390898352,1.772478367803266,5.39838164546647,-2.5923629298069626,13.717445949543183,-4.494311899191176
4.651965174576385,1.909652827298698,5.372458016168401,-2.6373060487988744,14.03459709628238,-5.2111970628023485
4.671061702849372,2.0499987982615218,5.346084955680412,-2.6894180194268977,14.374609663830848,-5.951076600825906
4.691561690831987,2.1937448948998304,5.319190775486144,-2.7489287854351567,14.726282087468842,-6.695354256252301
4.713499139780986,2.3410077157745186,5.291701487631792,-2.81588232799768,15.07200443201662,-7.416071901383999
4.736909216938731,2.491727760094685,5.263542664351815,-2.89004304701152,15.385548352504646,-8.072700577462273
4.761826494539678,2.6455832436197313,5.2346422338817,-2.9707700527861425,15.629658810364418,-8.608646903812541
4.788282326975875,2.8018798317233755,5.204934533353838,-3.056856521824268,15.753985299421203,-8.948241495625522
4.816301125293109,2.9594196847175875,5.174365968135596,-3.1463389367805235,15.694442275820805,-8.995762174601253
4.845895322140286,3.1163641074757957,5.1429025787677904,-3.236296558526536,15.375805498775756,-8.6390675724616
4.877058963215044,3.2701221624635535,5.110539613182525,-3.322687234251152,14.719917822663493,-7.76123110936157
4.909760184839679,3.4173213406901883,5.077312740840014,-3.4002995453447675,13.661516765287294,-6.263070242290877
4.943933398246581,3.553936508343061,5.0433097453865665,-3.462930247767676,12.171245501003957,-4.096012905626985
4.979472763330012,3.6756489633531007,5.00868044290889,-3.503890376823946,10.280253624175122,-1.2974466701765268
5.016229252963543,3.7784514995948517,4.973641539140651,-3.516864843525711,8.09480945609223,1.9878169963185506
5.054013767959491,3.859399594155774,4.938472890705394,-3.4969866735625255,5.787993503648295,5.518355055911508
5.092607763901048,3.9172795291922573,4.903503023969769,-3.4418031230034103,3.5642894278672044,9.00538796188126
5.131780559192971,3.9529224234709295,4.869084992739735,-3.3517492433845977,1.609163961268689,12.183700277772825
5.17130978342768,3.969014063083616,4.8355675003058884,-3.229912240606869,0.0467001136316856,14.871820255302756
5.210999924058516,3.969481064219933,4.80326837789982,-3.081194038053842,-1.0768680040255678,16.996149877663203
5.250694734700716,3.958712384179677,4.772456437519281,-2.9112325392772096,-1.7826407844634344,18.577194918351896
5.290281858542512,3.940885976335043,4.743344112126509,-2.725460590093691,-2.1339038486419755,19.69497160828193
5.329690718305862,3.919546937848623,4.716089506225573,-2.5285108740108715,-2.2104713996618863,20.453335006926853
5.368886187684349,3.8974422238520043,4.690804397485464,-2.323977523941603,-2.090498226041394,20.954476999966584
5.407860609922869,3.87653724159159,4.667564622246048,-2.114432753941937,-1.8410555749457926,21.28552408089733
5.446625982338785,3.8581266858421324,4.646420294706629,-1.901577513132964,-1.515249014780544,21.514223947055473
5.485207249197206,3.842974195694327,4.6274045195752995,-1.6864352736624093,-1.1530212441431955,21.689785900950557
5.52363699115415,3.831443983252895,4.610540166838676,-1.4695374146529037,-0.7834819586323023,21.84588790173446
5.561951430986679,3.8236091636665717,4.595844792692146,-1.2510785356355592,-0.42751669963859285,22.004116729263963
5.600187522623345,3.819333996670186,4.58333400733579,-1.0310373683429195,-0.10010231072154836,22.177043454491024
5.638380862590046,3.8183329735629705,4.573023633652361,-0.8092669337980092,0.18785270766047618,22.37067961466494
5.676564192325676,3.820211500639575,4.564930964314381,-0.5855601376513597,0.4281384492528064,22.586319944740865
5.714766307332072,3.8244928851321034,4.559075362937867,-0.3596969382039511,0.6142705389246819,22.8218759411203
5.753011236183393,3.83063559052135,4.555478393555828,-0.1314781787927481,0.740826988703795,23.072824055141677
5.791317592088606,3.838043860408388,4.5541636117679,0.09925006175866868,0.8030181304276994,23.33287965536531
5.82969803069269,3.846074041712665,4.555156112385487,0.3325788583123218,0.7964289673204681,23.594485870770807
5.868158771109816,3.85403833138587,4.55848190096861,0.5685237170200299,0.7168887407526533,23.84918466653363
5.906699154423675,3.8612072187933966,4.564167138138811,0.8070155636853662,0.560434889311983,24.08791921232352
5.94531122661161,3.8668115676865162,4.572237293775665,1.0478947558086014,0.3233475685333678,24.301302196152793
5.983979342288475,3.87004504337185,4.582716241333751,1.2909077777701292,0.0022369368951698897,24.479873626008477
6.022679792722193,3.8700674127408017,4.595625319111452,1.535706514030214,-0.4058308744306474,24.614363045279244
6.0613804668496005,3.866009103996495,4.610982384251754,1.7818501444830064,-0.9031811972352944,24.69596426212586
6.100040557889566,3.856977292024142,4.628800885696584,2.028809787104265,-1.4913629590728015,24.71662514291051
6.138610330809807,3.842063662433414,4.649088983567626,2.2759760385333703,-2.1709767684570593,24.66935042233473
6.177030967434141,3.8203538947488433,4.67184874395296,2.5226695427567174,-2.9415105705940663,24.54851167430785
6.21523450638163,3.7909387890429027,4.697075439380527,2.768154659499796,-3.8011949506384206,24.350155523091797
6.253143894272059,3.7529268395365185,4.724756985975525,3.011656214730714,-4.746890459992012,24.072298889209172
6.2906731626674235,3.7054579349365984,4.754873548122832,3.2523792036228056,-5.774019263849147,23.715198640539118
6.32772774201679,3.647717742298107,4.78739734015906,3.4895311900281967,-6.876552778083886,23.281582556932424
6.3642049194397705,3.578952214517268,4.8222926520593425,3.7223470155975207,-8.04706564401876,22.776829115955127
6.399994441584943,3.4984815580770805,4.859516122215318,3.950115306757072,-9.27686429048393,22.209085348329722
6.434979257165714,3.4057129151722414,4.899017275282889,4.1722061602403695,-10.556195421689857,21.58931493756874
6.469036386317436,3.3001509609553428,4.940739336885293,4.388099309616057,-11.87453608859468,20.931272833140643
6.502037895926989,3.1814056000693958,4.984620329981453,4.597412037947463,-13.220962683551525,20.25140780592093
6.533851951927683,3.0491959732338807,5.030594450360928,4.799926116006673,-14.584591477458499,19.56870037114543
6.564343911660021,2.9033500584592957,5.078593711520995,4.9956131197181275,-15.95507852262785,18.904449950052925
6.593377412244614,2.743799273233017,5.128549842718176,5.184657619218656,-17.323162249935777,18.282031454596883
6.620815404976944,2.5705676507336594,5.180396418910362,5.367477933764626,-18.68122822700893,17.726646848472697
6.646521081484281,2.38375536846357,5.234071198248008,5.544744402249353,-20.02387243717875,17.26510056877245
6.670358635168916,2.1835166440917826,5.289518642270502,5.717395407937077,-21.34843674258354,16.925627490393502
6.692193801609834,1.9700322766659473,5.346692596349873,5.886651682841012,-22.655486708831024,16.73779619438487
6.711894124376494,1.743477409577637,5.405559113178283,6.054029644784861,-23.94919502323115,16.732495145123906
6.729328898472271,1.5039854593453255,5.466099409626132,6.2213545962361,-25.237578166607918,16.941978819922234
6.744368753065724,1.2516096776792462,5.528312955588493,6.390774384435323,-26.532500310326046,17.399893462341765
6.756884849842517,0.9862846745759858,5.592220699432847,6.564773319058741,-27.84928945494048,18.14109643600689
6.7667476965882765,0.7077917800265809,5.6578684326234345,6.74618428341881,-29.205675711009953,19.200888621550206
6.773825614388542,0.4157350229164814,5.7253302754576225,6.938193169634312,-30.619505041147246,20.612920796687877
6.777982964617707,0.10953997250500891,5.794712207153966,7.144322377601191,-32.10420697673671,22.40437758516783
6.779078364342757,-0.21150209726235825,5.866155430929978,7.368366153452869,-33.660142378347665,24.585859233704383
6.7769633433701335,-0.5481035210458349,5.939839092464506,7.614224745789913,-35.258501811841846,27.131341685201235
6.771482308159675,-0.9006885391642534,6.015981339922406,7.885538162641925,-36.812184747726874,29.94040418846083
6.762475422768032,-1.2688103866415221,6.094836721548825,8.184942204526534,-38.125470926560844,32.7710438439875
6.7497873189016175,-1.6500650959071306,6.1766861435940905,8.512652642966408,-38.814162109586924,35.130654420370654
6.733286667942546,-2.038206717003,6.261812670023755,8.863959187170115,-38.200445171275526,36.12908040857718
6.712904600772516,-2.4202111687157553,6.350452261895456,9.225249991255888,-35.2373002885253,34.36607403998869
6.688702489085359,-2.7725841716010082,6.442704761808015,9.568910731655775,-28.637672989040052,28.090886466392575
6.660976647369349,-3.0589609014914085,6.538393869124572,9.849819596319701,-17.511255458124314,16.05003678047118
6.630387038354435,-3.2340734560726516,6.636892065087769,10.010319964124413,-2.554837315655595,-0.9077530525947715
6.5980463037937085,-3.2596218292292076,6.736995264729013,10.001242433598465,13.242103109680425,-18.882334341967272
6.565450085501417,-3.1272007981324035,6.837007689064998,9.812419090178793,25.98960090071593,-32.814571986359795
6.534178077520092,-2.867304789125244,6.935131879966786,9.484273370315195,33.556755463104764,-40.05014194577846
6.50550502962884,-2.5317372344941966,7.029974613669938,9.083771950857411,36.408828867102855,-41.381788542777855
6.480187657283898,-2.167648945823168,7.120812333178512,8.669954065429632,36.23604999548327,-39.14161554703244
6.458511167825667,-1.8052884458683354,7.207511873832809,8.278537909959308,34.57201794288474,-35.36112878177739
6.440458283366984,-1.459568266439488,7.290297252932402,7.924926622141534,32.36782484471401,-31.25025460061876
6.4258626007025885,-1.135890017992348,7.369546519153817,7.612424076135347,30.101608508726212,-27.381035323829778
6.414503700522665,-0.8348739329050858,7.445670759915171,7.338613722897049,27.975169418109722,-23.966482702568488
6.4061549611936135,-0.5551222387239886,7.519056897144141,7.098948895871365,26.052103008664766,-21.048481877727166
6.400603738806374,-0.2946012086373409,7.590046386102855,6.888464077094093,24.33383042766904,-18.597687022453346
6.39765772672,-0.05126290436065051,7.658931026873796,6.702487206869559,22.79712717477765,-16.560778480888775
6.397145097676394,0.176708367387126,7.725955898942491,6.536879422060672,21.41147388588225,-14.880959845383003
6.398912181350266,0.3908231062459485,7.791324693163098,6.388069823606841,20.146590356473485,-13.505884584825692
6.4028204124127255,0.5922890098106833,7.855205391399166,6.253010977758584,18.975390796589622,-12.389996986643633
6.408743302510833,0.7820429177765795,7.917735501176752,6.129111007892147,17.874880515423794,-11.49455209090477
6.416563731688599,0.9607917229308175,7.979026611255674,6.014165486983099,16.826173861817814,-10.78678926553926
6.426171648917907,1.1290534615489956,8.039168266125504,5.9062975943277065,15.814172497406783,-10.238900840389887
6.437462183533397,1.2871951865230633,8.098231242068781,5.803908585923808,14.82714159051241,-9.827057235167075
6.450334135398628,1.4354666024281875,8.15627032792802,5.705638013572138,13.85628164776717,-9.530580337789356
6.46468880142291,1.5740294189058592,8.213326708063741,5.610332210194244,12.895330343612113,-9.331283574797515
6.480429095611969,1.7029827223419804,8.269430030165683,5.517019374446269,11.940201446082018,-9.212967362282875
6.4974589228353885,1.8223847368028006,8.324600223910146,5.4248897008234405,10.988657564096139,-9.161048143887717
6.515682770203417,1.932271312443762,8.37884912091838,5.333279219384563,10.040010785645864,-9.162296954781747
6.535005483327854,2.0326714203002205,8.432181913112226,5.241656249836746,9.094845928586318,-9.204664468922008
6.5553321975308565,2.1236198795860837,8.484598475610593,5.149609605147526,8.154762953324415,-9.277171683902575
6.576568396326717,2.205167509119328,8.536094571662067,5.0568378883085,7.222137059866443,-9.369847938526135
6.59862007141791,2.2773888797179924,8.586662950545152,4.963139408923239,6.299896629369059,-9.473700554383347
6.62139396021509,2.340387846011683,8.636294344634385,4.868402403379406,5.3913202766455735,-9.580702963689001
6.644797838675207,2.394301048778139,8.684978368668178,4.772595373742516,4.4998548165371774,-9.68379070711902
6.6687408491629885,2.4392995969435107,8.732704322405603,4.6757574666713255,3.628955966492113,-9.776857128836081
6.693133845132423,2.475589156608432,8.779461897072316,4.577988895382965,2.781953215269313,-9.854742912581626
6.717889736698507,2.503408688761125,8.825241786026146,4.479441466257148,1.961939613866614,-9.913215728880944
6.742923823586119,2.523028084899791,8.870036200688718,4.3803093089683385,1.1716864244539074,-9.948938133125157
6.768154104435117,2.5347449491443297,8.913839293778402,4.280819927637087,0.4135817193742132,-9.959423412847228
6.79350155392656,2.538880766338072,8.956647493054772,4.181225693508615,-0.31040874491165843,-9.94298029630364
6.818890361589941,2.5357766788889555,8.998459749989859,4.081795890545579,-0.9987606742819449,-9.89864829581035
6.844248128378831,2.5257890721461362,9.039277708895314,3.982809407587476,-1.6503931329099593,-9.8261259860209
6.869506019100292,2.5092851408170365,9.079105802971188,3.884548147727267,-2.2646561538979415,-9.725694748536533
6.894598870508463,2.486638579278057,9.117951284448461,3.7872912002419015,-2.8413070798055684,-9.598140503370173
6.919465256301243,2.4582255084800013,9.15582419645088,3.6913097952081997,-3.3804785398526627,-9.444675755154442
6.944047511386043,2.4244207230814747,9.192737294402962,3.596863037656655,-3.8826407401206136,-9.266863967765737
6.968291718616858,2.3855943156802684,9.22870592477953,3.504194397978998,-4.34856042974394,-9.066547899804823
6.992147661773661,2.342108711382829,9.263747868759319,3.4135289189809495,-4.77925854689805,-8.845783130543275
7.015568748887489,2.2943161259138485,9.297883157949128,3.3250710876755165,-5.17596817509473,-8.606777616105527
7.038511910146627,2.242556444162901,9.331133868825884,3.239003311514461,-5.540094077726664,-8.351837762513643
7.060937474588256,2.1871555033856347,9.363523901941027,3.155484933889325,-5.873174744511501,-8.083321199675968
7.082809029622112,2.1284237559405197,9.39507875127992,3.074651721892565,-6.17684758828232,-7.803596194299185
7.104093267181518,2.0666552800576965,9.425825268498846,2.9966157599495733,-6.45281767958554,-7.515007449848041
7.124759819982095,2.002127103261841,9.455791426098342,2.9214656854510928,-6.702830200530223,-7.219847903772602
7.144781091014713,1.9350988012565389,9.485006082952854,2.8492672064133666,-6.9286466359538945,-6.920336039569237
7.164132079027278,1.865812334897,9.513498755016988,2.7800638460176743,-7.132024594971363,-6.6185981760691925
7.182790202376249,1.7944920889472864,9.541299393477164,2.7138778642569825,-7.3147010641018495,-6.316655170782749
7.200735123265722,1.7213450783062678,9.568438172119734,2.650711312549155,-7.47837882887227,-6.016412970812761
7.217948574048784,1.646561290017545,9.594945285245226,2.590547182841027,-7.624715758689095,-5.719656457298948
7.2344141869489595,1.570314132430654,9.620850757073637,2.5333506182680376,-7.755316624931205,-5.428046052077018
7.250117328273266,1.492760966181342,9.646184263256316,2.4790701577472674,-7.871727110314215,-5.143116583750096
7.265044937935079,1.4140436950781998,9.670974964833789,2.4276389919097663,-7.97542966492426,-4.866277941101732
7.279185374885861,1.3342893984289572,9.695251354752887,2.378976212498749,-8.06784086784556,-4.598817071947644
7.292528268870151,1.2536109897505017,9.719041116877875,2.3329880417792728,-8.15030996050066,-4.34190091299349
7.305064378767656,1.172107890145495,9.742370997295668,2.289569032649338,-8.224118226665755,-4.096579859434926
7.316785457669111,1.0898667078788375,9.76526668762216,2.248603234054989,-8.290478903021338,-3.863791400726027
7.3276841247479,1.006961918848624,9.787752719962711,2.2099653200477287,-8.350537311827258,-3.6443635603366595
7.337753743936386,0.9234565457303515,9.809852373163189,2.173521684444362,-8.405370912985905,-3.4390177819301044
7.346988309393689,0.8394028366004924,9.831587590007633,2.139131506625061,-8.45598897582328,-3.248370902068248
7.355382337759694,0.7548429468422596,9.852978905073883,2.1066477976043783,-8.503331571173137,-3.0729358405315463
7.362930767228116,0.6698096311305283,9.874045383049927,2.0759184391990626,-8.548267582000465,-2.91312062435255
7.369628863539422,0.5843269553105236,9.894804567441918,2.046787232955537,-8.59159142655565,-2.769225342081818
7.3754721330925275,0.4984110410449671,9.915272439771474,2.019094979534719,-8.634018183255103,-2.641436602872716
7.3804562435029775,0.41207085921241604,9.935463389566822,1.9926806135059918,-8.67617680330291,-2.52981905408298
7.3845769520951015,0.32530909117938694,9.95539019570188,1.967382422965162,-8.718601098710366,-2.43430349615191
7.387830043006895,0.2381230801922833,9.975064019931532,1.943039388003643,-8.761718204359314,-2.3546711313710946
7.390211273808818,0.15050589814869014,9.994494413811568,1.919492676689932,-8.805834239218273,-2.2905335030851957
7.391716332790305,0.062447555756507414,10.013689340578466,1.8965873416590802,-8.851116941777684,-2.241307735994406
7.39234080834787,-0.026063613661269427,10.032655213995056,1.8741742642991361,-8.8975751383592,-2.2061867920368643
7.392080172211258,-0.11503936504486142,10.051396956638047,1.8521123963787676,-8.945035032504114,-2.1841046287607218
7.3909297785608095,-0.20448971536990257,10.069918080601836,1.8302713500911603,-8.993113493472379,-2.173696410393798
7.388884881407111,-0.2944208503046264,10.088220794102748,1.8085343859872223,-9.041188787610356,-2.173254300621873
7.385940672904065,-0.38483273818072994,10.10630613796262,1.7868018429810035,-9.088369553523071,-2.180679885470668
7.382092345522257,-0.4757164337159606,10.12417415639243,1.764995044126297,-9.13346328372511,-2.19343495671073
7.377335181185098,-0.5670510665532117,10.141824106833692,1.7430606945591895,-9.174946148773477,-2.2084932444820535
7.371664670519565,-0.6588005280409465,10.159254713779283,1.720975762114369,-9.210936680638707,-2.2222967197640213
7.3650766652391555,-0.7509098948473335,10.176464471400427,1.698752794916729,-9.239176598259103,-2.2307212638554703
7.357567566290682,-0.8433016608299245,10.193451999349595,1.6764455822781743,-9.257022862278735,-2.2290577554863016
7.349134549682383,-0.9358718894527118,10.210216455172377,1.6541550047233113,-9.261455806788486,-2.2120158373605463
7.339775830787857,-1.0284864475205966,10.22675800521961,1.6320348463497059,-9.249108792472448,-2.1737586112965994
7.329490966312651,-1.120977535445321,10.243078353683106,1.6102972602367398,-9.216325094977616,-2.1079770261705106
7.3182811909581975,-1.2131407863950971,10.259181326285473,1.5892174899750346,-9.159247485602068,-2.0080124573068243
7.306149783094247,-1.3047332612511178,10.275073501185224,1.5691373654019665,-9.073944961306266,-1.8670345872548395
7.293102450481736,-1.3954727108641805,10.290764874839244,1.5504670195294181,-8.956579135070735,-1.6782788586453137
7.279147723373094,-1.4850385022148878,10.306269545034539,1.533684230942965,-8.803609767026218,-1.4353432434361186
7.264297338350945,-1.5730745998851499,10.321606387343968,1.5193307985086038,-8.612034788501582,-1.1325378110517441
7.248566592352093,-1.6591949477701657,10.336799695329054,1.5080054203980864,-8.379655122936247,-0.7652728262790706
7.231974642874391,-1.7429914989995283,10.351879749533035,1.5003526921352957,-8.105349060459105,-0.3304624942209888
