th1 (rad),w1 (rad/s),th2 (rad),w2 (rad/s),a1 (rad/s^2),a2 (rad/s^2)
1.613001480004003,-1.7987331408186191,2.1020809051514986,0.05829034150890908,-8.831220652169488,-2.1732928789270933
1.5950141485958167,-1.887045347340314,2.1026638085665876,0.03655741271963814,-8.654546483168414,-2.6141863058378565
1.5761436951224135,-1.973590812171998,2.103029382693784,0.010415549661259571,-8.46669918249664,-3.0846100947893738
1.5564077870006936,-2.0582578039969643,2.103133538190397,-0.020430551286634166,-8.26841080462971,-3.5832593804059627
1.535825208960724,-2.1409419120432616,2.1029292326775306,-0.05626314509069379,-8.060467585436237,-4.108528577522386
1.5144157898402915,-2.221546587897624,2.1023666012266236,-0.09734843086591766,-7.843654520620013,-4.658561123375207
1.4922003239613153,-2.299983133103824,2.1013931169179645,-0.14393404209966973,-7.618696638688769,-5.2313040117072855
1.469200492630277,-2.376170099490712,2.099953776496968,-0.19624708221674259,-7.386200140425241,-5.824562867153926
1.44543879163537,-2.450032100894964,2.0979913056748005,-0.25449271088828185,-7.1465964295287145,-6.436053526472417
1.4209384706264203,-2.521498065190251,2.0954463785659176,-0.31885324615300603,-6.900091667434129,-7.063446687911624
1.395723489974518,-2.5904989818645925,2.0922578461043875,-0.38948771303212226,-6.64662392060291,-7.704403068768457
1.369818500155872,-2.6569652210706214,2.0883629689740664,-0.4665317437198068,-6.385829318352756,-8.356597555404907
1.3432488479451659,-2.720823514254149,2.0836976515368684,-0.5500977192738559,-6.117017991317817,-9.01773191712156
1.3160406128026243,-2.781993694167327,2.07819667434413,-0.6402750384450715,-5.8391599890612,-9.685536677926669
1.2882206758609511,-2.8403852940579393,2.0717939239596794,-0.7371304052243381,-5.5508809315168675,-10.357763619244446
1.2598168229203717,-2.895894103373108,2.064422619907436,-0.8407080414167826,-5.250466857590183,-11.03217107636839
1.2308578818866407,-2.9483987719490097,2.056015539493268,-0.9510297521804665,-4.935877594936786,-11.706504678208624
1.2013738941671506,-2.9977575478983773,2.0465052419714636,-1.0680947989625527,-4.604767966846859,-12.378476474848501
1.1713963186881668,-3.043805227566846,2.035824293981838,-1.1918795637110378,-4.2545162407394645,-13.045745527514585
1.1409582664124984,-3.086350389974241,2.0239054983447273,-1.3223370189861836,-3.882259366530195,-13.705903033789648
1.110094762512756,-3.1251729836395428,2.0106821281548655,-1.45939604932408,-3.4849347094683676,-14.356464958358535
1.0788430326763605,-3.1600223307342263,1.9960881676616247,-1.6029606989076655,-3.0593281115737314,-14.994874959873286
1.0472428093690183,-3.190615611849964,1.980058560672548,-1.7529094485063983,-2.602128185271872,-15.618520160835613
1.0153366532505186,-3.2166368937026824,1.9625294661874841,-1.9090946501147545,-2.1099867268224415,-16.22476200193458
0.9831702843134917,-3.2377367609709067,1.9434385196863366,-2.0713422701341004,-1.579585019217543,-16.81098404758828
0.9507929167037826,-3.2535326111630822,1.9227250969849956,-2.2394521106099834,-1.007705567937638,-17.374658150890202
0.9182575905921518,-3.263609666842459,1.9003305758788958,-2.4131986921188853,-0.3913084831193072,-17.913429825009498
0.8856214939237272,-3.267522751673652,1.8761985889577069,-2.5923329903689805,0.27238869363041796,-18.425222984473404
0.8529462664069907,-3.264798864737348,1.850275259054017,-2.7765852202137147,0.9858293863077527,-18.908363394923093
0.8202982777596172,-3.2549405708742705,1.82250940685188,-2.9656688541629457,1.7510367384925145,-19.361719186917302
0.7877488720508745,-3.237430203489345,1.7928527183102505,-3.159286046032119,2.5695352411427654,-19.784855630924326
0.7553745700159811,-3.2117348510779173,1.7612598578499292,-3.357134602341362,3.4422779450903893,-20.178200012896806
0.7232572215052019,-3.1773120716270133,1.7276885118265155,-3.55891660247033,4.369581824049922,-20.543210849133033
0.6914841007889317,-3.133616253386514,1.6920993458018123,-3.7643487109616602,5.351073168013117,-20.88254374890684
0.6601479382550666,-3.0801055217063826,1.6544558586921958,-3.973174148450729,6.3856433858301935,-21.200203805618344
0.6293468830380028,-3.0162490878480805,1.6147241172076885,-4.185176186506912,7.47141290119793,-21.50167116147345
0.599184392159522,-2.941534958836101,1.5728723553426194,-4.400192898121647,8.605696404343922,-21.79398179906532
0.569769042571161,-2.8554779947926616,1.5288704263614028,-4.6181327161123,9.784955800433812,-22.085738736073058
0.5412142626232344,-2.7576284367883237,1.4826890992002797,-4.838990103473031,11.004716635222026,-22.387018109625394
0.5136379782553511,-2.6475812704361035,1.4342991981655493,-5.062860284569285,12.259407876026291,-22.709117697573625
0.48716216555099,-2.5249871916758404,1.3836705953198565,-5.289951461545021,13.542061145296655,-23.064068457426426
0.4619122936342316,-2.389566580222874,1.3307710807044062,-5.520592146119285,14.843770151349545,-23.463787023775534
0.43801662783200285,-2.241128878709379,1.2755651592432133,-5.75523001635704,16.152759043759925,-23.91868080691598
0.41560533904490904,-2.0796012882717796,1.2180128590796429,-5.9944168244262,17.45283351899463,-24.43541718702563
0.3948093261621912,-1.9050729530818333,1.1580686908353808,-6.238770996296457,18.72088531746202,-25.013424157055084
0.3757585966313729,-1.7178640999072132,1.0956809808724162,-6.488905237867008,19.922991192613956,-25.639499739257303
0.3585799556323008,-1.5186341879810736,1.0307919284937461,-6.745300235259581,21.008518078329434,-26.279700762792782
0.34339361375249006,-1.3085490071977792,0.9633389261411504,-7.008097242887509,21.901609149892252,-26.86757334847061
0.33030812368051227,-1.0895329156988567,0.8932579537122752,-7.276772976372214,22.489722714141177,-27.28809446155989
0.3194127945235237,-0.8646356885574449,0.8204902239485531,-7.549653920987813,22.610061146606803,-27.35813324394536
0.31076643763794926,-0.6385350770913769,0.744993684738675,-7.823235253427267,22.0377262840295,-26.808137184141273
0.30438108686703547,-0.4181578142510819,0.6667613322044024,-8.09131662526868,20.48546448661493,-25.27778952826247
0.30019950872452467,-0.2133031693849326,0.5858481659517155,-8.344094520551305,17.63378654628508,-22.350551546873636
0.29806647703067535,-0.036965303922081805,0.5024072207462025,-8.56760003602004,13.216179930070727,-17.66055373897914
0.29769682399145453,0.09519649537862546,0.4167312203860021,-8.744205573409833,7.169642451425361,-11.086765798642213
0.2986487889452408,0.16689291989287908,0.3292891646519037,-8.855073231396254,-0.1961027652366644,-2.9738731510166243
0.3003177181441696,0.16493189224051244,0.24073843233794118,-8.88481196290642,-8.138936541933457,5.789600883482101
0.3019670370665747,0.08354252682117787,0.15189031270887698,-8.8269159540716,-15.663068720832369,14.005245103901787
0.30280246233478647,-0.07308816038714581,0.06362115316816098,-8.686863503032582,-21.889408403045334,20.644465044413476
0.302071580730915,-0.2919822444175992,-0.023247481862164826,-8.480418852588446,-26.365058435659172,25.237232259066506
0.299151758286739,-0.555632828774191,-0.10805167038804929,-8.228046529997782,-29.10612345286306,27.90528978892484
0.2935954299989971,-0.8466940633028215,-0.1903321356880271,-7.948993632108533,-30.421419818138226,29.115816163737804
0.2851284893659689,-1.1509082614842039,-0.26982207200911246,-7.657835470471155,-30.701749642730494,29.404445922133917
0.2736194067511269,-1.4579257579115088,-0.346400426713824,-7.363791011249816,-30.29044243759153,29.214681298362645
0.2590401491720118,-1.7608301822874242,-0.42003833682632213,-7.07164419826619,-29.440853998146512,28.85321460421204
0.24143184734913756,-2.0552387222688893,-0.49075477880898405,-6.7831120522240695,-28.32229938774767,28.506098939249586
0.22087946012644866,-2.338461716146366,-0.5585858993312247,-6.498051062831574,-27.041731194796807,28.272112332859763
0.19749484296498498,-2.608879028094334,-0.6235664099595405,-6.215329939502976,-25.66512960582808,28.193211635355933
0.17140605268404163,-2.8655303241526147,-0.6857197093545703,-5.933397823149417,-24.233669375699375,28.27675221290764
0.14275074944251548,-3.1078670179096086,-0.7450536875860645,-5.650630301020341,-22.7745351194992,28.51014197319659
0.11167207926341939,-3.3356123691046005,-0.8015599905962679,-5.365528881288375,-21.307634909800576,28.870051364025155
0.07831595557237339,-3.548688718202606,-0.8552152794091517,-5.076828367648123,-19.849508612513954,29.328103911241964
0.04282906839034733,-3.7471838043277454,-0.9059835630856329,-4.783547328535704,-18.41542028421518,29.85440908820076
0.00535723034706987,-3.9313380071698973,-0.95381903637099,-4.485003237653697,-17.020311035057343,30.41979730075278
-0.033956149724629105,-4.101541117520471,-0.9986690687475269,-4.180805264646168,-15.679054888183453,30.99726143884548
-0.07497156089983381,-4.258331666402305,-1.0404771213939885,-3.8708326502577135,-14.406303079067047,31.562881972768096
-0.11755487756385685,-4.4023946971929755,-1.0791854478965657,-3.5552038305300324,-13.216099947533705,32.09637514539385
-0.1615788245357866,-4.5345556966683125,-1.114737486201866,-3.234240079076094,-12.121385474969744,32.58132407168998
-0.20692438150246972,-4.65576955141801,-1.1470798869926269,-2.908426838359194,-11.133450816108706,33.005107258285065
-0.2534820770166498,-4.767104059579097,-1.1761641553762188,-2.5783757657763435,-10.261374308440823,33.358512236717274
-0.3011531176124408,-4.869717802663505,-1.2019479130339823,-2.244790643409171,-9.511430521688391,33.63500260719635
-0.3498502956390758,-4.9648321078803885,-1.224395819468074,-1.9084406173372073,-8.886430390656251,33.82958703989254
-0.39949861671787973,-5.053696411786951,-1.2434802256414461,-1.5701447469382819,-8.384914458077455,33.93721359286997
-0.45003558083574924,-5.1375455563677255,-1.259181673110829,-1.230772611009582,-8.000083706016316,33.95058038849953
-0.5014110363994265,-5.217546393427889,-1.2714893992209249,-0.8912668071245866,-7.7183169289811255,33.857218661993564
-0.5535865003337054,-5.2947295627177,-1.2804020672921708,-0.552694620504651,-7.517101585755339,33.63568323138911
-0.6065337959608824,-5.369900578575254,-1.2859290134972172,-0.21633778819075994,-7.362224729556627,33.250719914296546
-0.660232801746635,-5.44352282587082,-1.288092391379125,0.11616941095220551,-7.204191843495718,32.64745612028359
-0.7146680300053432,-5.515564744305777,-1.2869306972696029,0.4426439721550414,-6.9741760185094686,31.745139585486534
-0.769823677448401,-5.585306504490872,-1.2825042575480525,0.7600953680099067,-6.580523163219351,30.431978174456923
-0.8256767424933097,-5.651111736123066,-1.2749033038679534,1.064415149754476,-5.908142907738341,28.564476072286418
-0.8821878598545403,-5.710193165200449,-1.2642591523704085,1.3500599104773403,-4.824986599498332,25.977282972422422
-0.9392897915065448,-5.758443031195433,-1.2507585532656351,1.6098327402015644,-3.2014726664566875,22.511836533891184
-0.9968742218184992,-5.79045775786,-1.2346602258636195,1.8349511055404764,-0.9477784988321144,18.070565350065355
-1.0547787993970992,-5.799935542848321,-1.2163107148082146,2.01565675904113,1.9336300500829229,12.69244172171506
-1.1127781548255824,-5.780599242347491,-1.1961541472178032,2.1425811762582803,5.299061231645872,6.622414299286385
-1.1705841472490572,-5.727608630031033,-1.1747283354552205,2.208805319251144,8.853598224658144,0.32376323116493894
-1.2278602335493676,-5.6390726477844515,-1.152640282262709,2.2120429515627933,12.210096118668158,-5.609619667309491
-1.284250960027212,-5.51697168659777,-1.1305198527470812,2.1559467548896984,15.00560805356714,-10.623930868927378
-1.3394206768931898,-5.366915606062098,-1.1089603851981842,2.0497074462004248,17.013840439566753,-14.370228954867965
-1.3930898329538108,-5.19677720166643,-1.0884633107361799,1.906005156651745,18.189640539021315,-16.770447567960378
-1.445057604970475,-5.014880796276217,-1.0694032591696625,1.7383006809721413,18.634449118722067,-17.967980723047027
-1.4952064129332372,-4.8285363050889964,-1.0520202523599411,1.558620873741671,18.523171483098942,-18.22090196406031
-1.5434917759841271,-4.6433045902580075,-1.0364340436225243,1.3764118541010677,18.038724149990898,-17.80504989401461
-1.5899248218867073,-4.462917348758099,-1.0226699250815137,1.1983613551609216,17.334903278187316,-16.957693079587564
-1.6345539953742882,-4.289568315976226,-1.0106863115299045,1.028784424365046,16.524839867018095,-15.858566060629832
-1.6774496785340505,-4.124319917306044,-1.000398467286254,0.8701987637587476,15.68407280676847,-14.632740226504767
-1.7186928777071109,-3.9674791892383596,-0.9916964796486666,0.7238713614936999,14.858988116754425,-13.361928913796234
-1.7583676695994945,-3.8188893080708155,-0.9844577660337296,0.5902520723557376,14.075542312393779,-12.096702632118939
-1.7965565626802027,-3.678133884946878,-0.9785552453101722,0.46928504603454824,13.34632713309991,-10.86661665065743
-1.8333379015296716,-3.544670613615879,-0.9738623948498267,0.36061887952797395,12.675661541217563,-9.687652446530146
-1.8687846076658303,-3.4179139982037032,-0.970256206054547,0.26374235506267246,12.063020133064052,-8.567327214916563
-1.9029637476478674,-3.297283796873063,-0.9676187825039203,0.17806908291350682,11.505238864727326,-7.508056245050659
-1.935936585616598,-3.1822314082257894,-0.9658380916747852,0.10298852046300022,10.997885055105792,-6.509301122525613
-1.967758899698856,-3.0722525576747315,-0.9648082064701552,0.03789550923774408,10.536080543316263,-5.568910176458426
-1.9984814252756034,-2.966891752241569,-0.9644292513777778,-0.01779359252684018,10.114977272407085,-4.683936185294558
-2.028150342798019,-2.865741979517498,-0.9646071873030462,-0.06463295437978575,9.730016762940586,-3.851122238908674
-2.056807762593194,-2.768441811888092,-0.965253516846844,-0.1031441767688725,9.377057860081132,-3.0671801784621042
-2.084492180712075,-2.6746712332872806,-0.9662849586145328,-0.13381597855349353,9.052425939066802,-2.3289413238006564
-2.111238893044948,-2.5841469738966127,-0.9676231184000678,-0.1571053917915001,8.7529166383994,-1.633429950724487
-2.137080362783914,-2.4966178075126186,-0.9691941723179828,-0.17343969129874498,8.475774439676906,-0.9778911612657789
-2.1620465408590404,-2.4118600631158498,-0.9709285692309703,-0.18321860291140277,8.218658421716954,-0.359792802471285
-2.186165141490199,-2.3296734788986804,-0.9727607552600843,-0.1868165309361156,7.979602549390043,0.2231864963528648
-2.2094618762791858,-2.24987745340478,-0.9746289205694455,-0.18458466597258696,7.756974791977037,0.7731758732922556
-2.2319606508132335,-2.1723077054850095,-0.9764747672291714,-0.1768529072396644,7.5494374879303185,1.2921330662555297
-2.2536837278680837,-2.0968133306057064,-0.978243296301568,-0.1639315765771091,7.355910233048193,1.7818650842286068
-2.274651861174141,-2.0232542282752246,-0.9798826120673392,-0.14611292573482304,7.175535885853281,2.244047418898297
-2.294884403456893,-1.9514988694166917,-0.9813437413246874,-0.12367245154584007,7.007649881940571,2.6802411926474634
-2.31439939215106,-1.881422370597286,-0.9825804658401458,-0.09687003961936544,6.851752819146427,3.091908049473801
-2.3332136158570327,-1.8129048424058216,-0.9835491662363395,-0.06595095912462742,6.707486149948699,3.4804228280860863
-2.351342664281091,-1.7458299809063347,-0.9842086758275858,-0.03114673084376656,6.574610754731615,3.847084178645151
-2.368800964090154,-1.6800838733590184,-0.9845201431360234,0.007324110942684946,6.452988143700822,4.19312333914095
-2.3856018028237442,-1.61555399192201,-0.9844469020265966,0.049255344334094446,6.3425640305603315,4.519711301404645
-2.401757342742964,-1.5521283516164068,-0.9839543485832556,0.0944524573481409,6.243354027996903,4.82796458744672
-2.417278626259128,-1.4896948113364379,-0.9830098240097742,0.1427321032226081,6.155431227811385,5.118949835009546
-2.4321755743724927,-1.428140499058324,-0.9815825029775481,0.19392160157270355,6.078915443789375,5.393687363654855
-2.446456979363076,-1.3673513446204302,-0.9796432869618211,0.24785847520925208,6.013963911145969,5.653153863474756
-2.4601304928092804,-1.3072117055089705,-0.9771647022097286,0.30439001384399966,5.9607632515079345,5.898284320036205
-2.4732026098643702,-1.247604072993891,-0.9741208020712886,0.36337285704436173,5.91952252632563,6.129973262782369
-2.485678650594309,-1.1884088477306347,-0.970487073500845,0.4246725896721854,5.890467214057467,6.349075400478961
-2.4975627390716153,-1.1295041755900601,-0.9662403476041231,0.488163343676975,5.873833957342159,6.556405686643725
-2.508857780827516,-1.0707658360166386,-0.9613587141673534,0.5537274005434123,5.8698659356738245,6.752738840215143
-2.5195654391876823,-1.0120671766599003,-0.9558214401619193,0.6212547889455637,5.878808726891306,6.938808331842941
-2.529686110954281,-0.9532790893909873,-0.9496088922724636,0.6906428722639931,5.900906527195515,7.115304833893943
-2.539218901848191,-0.8942700241190321,-0.9427024635498237,0.7617959206029326,5.936398604558664,7.282874122324009
-2.5481616020893814,-0.8349060380734454,-0.9350845043437943,0.8346246618261727,5.985515864456843,7.44211441075299
-2.556510662470116,-0.775050879428877,-0.9267382577255325,0.9090458059337025,6.048477410043933,7.593573091224677
-2.5642611712644046,-0.7145661053284377,-0.9176477996661955,0.9849815368459494,6.125486981427712,7.737742852131501
-2.571406832317689,-0.6533112355141606,-0.907797984297736,1.0623589653672645,6.216729160889373,7.875057141608626
-2.577939944672831,-0.5911439439052668,-0.8971743946440633,1.1411095367833508,6.322365233038579,8.005884944416607
-2.5838513841118833,-0.5279202915748811,-0.8857632992762299,1.2211683862275169,6.442528591411942,8.13052484209869
-2.589130587027632,-0.4634950056607616,-0.8735516154139547,1.3024736346485037,6.577319586368759,8.249198330282805
-2.5937655370842396,-0.39772180979707406,-0.8605268790674696,1.3849656179513319,6.726799713858808,8.362042373771978
-2.5977427551822103,-0.33045381265848595,-0.8466772228879563,1.4685860416890517,6.890985051365225,8.46910119000679
-2.6010472933087954,-0.26154396214483366,-0.8319913624710658,1.5532770535891196,7.069838856784172,8.5703172651631
-2.6036627329302435,-0.19084557357699194,-0.8164585919351746,1.6389802262407507,7.263263259005801,8.665521625223393
-2.6055711886660133,-0.11821294098693393,-0.8000687896727671,1.7256354424929845,7.471089986402449,8.754423407540894
-2.606753318075883,-0.04350204112290944,-0.7828124352478372,1.8131796765683934,7.693070102266264,8.836598807428407
-2.607188338487112,0.0334286598997532,-0.7646806384821533,1.9015456646426774,7.928862745450597,8.911479509832139
-2.6068540518881145,0.11271728735425918,-0.7456651818357265,1.9906604597409987,8.178022911010647,8.978340758757822
-2.605726879014572,0.19449751646436564,-0.7257585772383165,2.080443867328577,8.43998835035357,9.036289267142074
-2.6037819038499284,0.2788973999679013,-0.7049541385650308,2.1708067599999974,8.71406572392657,9.084251227293864
-2.6009929298502494,0.366038057207167,-0.6832460709650308,2.261649272272936,8.999416202070801,9.120960746349763
-2.597332549278178,0.45603221922787496,-0.6606295782423014,2.352858879736434,9.295040781104149,9.144949101187569
-2.592772227085899,0.5489826270389164,-0.6371009894449371,2.4443083707483093,9.599765661002273,9.154535280845295
-2.5872824008155098,0.6449802836489391,-0.612657905737454,2.5358537235567624,9.912228116324963,9.147818358549346
-2.5808325979790205,0.7441025648121887,-0.5872993685018865,2.627331907142256,10.230863380232174,9.122672305592618
-2.5733915723308987,0.8464111986145104,-0.5610260494304639,2.718558630198182,10.553893148159672,9.076743919818519
-2.5649274603447534,0.9519501300961072,-0.533840463128482,2.809326069396367,10.879316387124971,9.007454585342645
-2.555407959043792,1.060743293967357,-0.5057472024345183,2.8994006152497933,11.20490320139279,8.912006599221952
-2.5448005261041184,1.172792325981285,-0.4767531962820204,2.988520681242013,11.528192546742737,8.787394786168601
-2.533072602844306,1.2880742514487122,-0.44686798946960027,3.076394629103699,11.846494594385241,8.630424065164958
