th1 (rad),w1 (rad/s),th2 (rad),w2 (rad/s)
2.4968970848866383,2.6468521019947087,5.250421834583787,2.5277181964239523
2.5233656059065854,2.6116419069678694,5.275699016548026,2.5527704738337555
2.549482024976264,2.580036197317317,5.301226721286364,2.5805027393992392
2.575282386949437,2.5519854699130837,5.327031748680356,2.6107540375349223
2.6008022416485677,2.527439285571716,5.353139289055705,2.643362753958044
2.626076634504285,2.5063463150839222,5.3795729165952855,2.678166904736266
2.6511400976551243,2.488654301785001,5.4063545856426485,2.7150042976954323
2.6760266406729745,2.47430995744984,5.433504628619603,2.753712592153365
2.700769740247473,2.4632588076453135,5.461041754541136,2.7941292813725993
2.725402328323926,2.4554450021290153,5.488983047354862,2.83609162074472
2.7499567783452163,2.45081110543397,5.517343963562309,2.879436523510294
2.774464889399556,2.4492978824007565,5.546138328797412,2.924000444743315
2.7989578682235634,2.4508440930763102,5.575378333244846,2.969619273335498
2.8234663091543264,2.45538631104691,5.605074525978201,3.0161282507396976
2.8480201722647953,2.4628587788571106,5.635235808485597,3.0633619342002962
2.8726487600533663,2.4731933136253628,5.665869427827601,3.1111542210325647
2.89738069318962,2.486319275235317,5.696980970037926,3.15933844913138
2.922243885941973,2.502163608492938,5.72857435452924,3.207747587212556
2.9472655220269024,2.520650969330158,5.760651830401366,3.256214526244317
2.972472031720204,2.5417039434502278,5.793213975663809,3.304572481051031
2.9978890711547064,2.5652433637053225,5.82625970047432,3.3526555081229135
3.0235415047917598,2.591188729948813,5.859786255555549,3.4002991422246316
3.049453392091248,2.619458732111969,5.8937892469777955,3.447341150472328
3.0756479794123677,2.6499718738451246,5.928262658482518,3.493622398186432
3.102147698150819,2.6826471902956954,5.963198882464383,3.538987816107384
3.128974170053776,2.717405049562546,5.998588760625457,3.583287453601545
3.1561482205494014,2.7541680231935244,6.034421635161472,3.626377597438954
3.1836899007813364,2.792861806935016,6.0706854111358615,3.668121930777223
3.2116185188506865,2.8334161689759885,6.107366630443634,3.7083927023417114
3.2399526805404464,2.875765899343634,6.144450557467051,3.7470718716649327
3.268710339533883,2.9198517310926215,6.181921276183701,3.7840521928455164
3.297908856844809,2.9656212016601255,6.219761798112156,3.8192381967936844
3.3275650688614102,3.0130294213795996,6.257954180080093,3.8525470304913134
3.3576953630752064,3.062039715759286,6.296479650385006,3.88390911150055
3.3883157602327993,3.112624108782638,6.335318741500012,3.9132685568292014
3.419442001320626,3.1647636161590893,6.374451427068304,3.9405833472535736
3.451089637482217,3.218448320060185,6.41385726054084,3.965825191185481
3.4832741206828186,3.2736772002691494,6.453515512452695,3.988979055957121
3.51601089268551,3.3304577006478535,6.493405303012266,4.010042338737928
3.5493154696919884,3.388805014139773,6.533505726399645,4.029023653908734
3.5832035198333863,3.448741073915731,6.573795962938733,4.0459412183073775
3.6176909305725435,3.510293242466755,6.6142553751218065,4.060820820050081
3.652793862997211,3.5734926942153624,6.6548635833223075,4.073693360394011
3.6885287899393644,3.638372490360195,6.695600516926247,4.084591961181446
3.7249125148429663,3.7049653470639106,6.736446436538062,4.09354863273651
3.7619621683136053,3.773301099700341,6.777381922865427,4.100590498733639
3.799695179310609,3.8434038667526162,6.818387827852764,4.105735575723207
3.838129217978135,3.9152889172667202,6.859445183609996,4.1089881060374776
3.877282107150802,3.9889592457993612,6.90053506467037,4.110333444228166
3.9171716996087955,4.064401858963501,6.941638399112652,4.1097324997010185
3.9578157181984306,4.1415837785089415,6.982735724109662,4.107115742697417
3.99923155598352,4.220447768059059,7.023806881536636,4.102376788314151
4.041436033664111,4.3009077949908185,7.064830649419777,4.095365585151636
4.084445111614019,4.382844246493939,7.1057843052712935,4.08588125296625
4.128273554078959,4.466098930760739,7.146643117800956,4.0736646391340035
4.1729345433865666,4.550469911921014,7.187379764192296,4.058390698788064
4.218439242505776,4.635706252323491,7.227963671180177,4.039660850321337
4.264796305029011,4.72150276982506,7.268360279683391,4.01699551876276
4.312011332727262,4.807494962726819,7.308530234871018,3.9898271564258074
4.36008628235453,4.893254312681265,7.348428506435276,3.9574941247999504
4.4090188254813425,4.978284247742584,7.388003447683276,3.919235934502465
4.4588016679587685,5.062017134403586,7.4271958070283,3.874190469980768
4.509421839302805,5.1438127681210775,7.465937711728108,3.821393968294454
4.560859966984015,5.222958943126784,7.5041516514110524,3.7597846678694578
4.613089556415283,5.298674797034374,7.541749498089747,3.688211178230885
4.666076304385627,5.370117731139817,7.578631609872056,3.6054467213141463
4.719777481697025,5.436394783332978,7.614686077085197,3.5102104242816248
4.774141429530355,5.496579348418357,7.649788181328013,3.401196756425986
4.829107223014538,5.549734062551668,7.683800148892273,3.277113941925957
4.884604563640055,5.594940449560828,7.716571288311533,3.1367316840903015
4.940553968135664,5.631335521108504,7.747938605152436,2.978937749843402
4.996867323346748,5.658154894085929,7.7777279826508705,2.802801855750973
5.053448872287608,5.674781128926573,7.805756001208381,2.6076438914824567
5.1101966835768735,5.68079494275907,7.831832440123205,2.3931019189930076
5.167004633004464,5.676025823366842,7.855763459313135,2.159193809914611
5.223764891238133,5.660597557684684,7.8773553974122805,1.9063651564312236
5.28037086681498,5.6349635561068485,7.896419048976592,1.6355156172174237
5.336720502376049,5.599926889208853,7.912774205148767,1.347996536465515
5.392719771268138,5.5566408862625964,7.926254170513422,1.0455747551022263
5.448286180130764,5.506588044806029,7.9367099180644445,0.7303609835113624
5.503352060578824,5.451537693417525,7.944013527899558,0.40470549851845755
5.557867437512999,5.393485899574692,7.948060582884742,0.07106846353494195
5.611802296508746,5.334583903366098,7.948771267520091,-0.26812415607130474
5.665148135542408,5.277063258725723,7.9460900259593785,-0.6106262190311442
5.717918768129665,5.22316644575108,7.939983763769067,-0.9545061259432066
5.770150432587176,5.1750908976706,7.930438702509635,-1.2982608345822226
5.821901341563882,5.1349524573369285,7.917456094163812,-1.6409036489880218
5.873250866137251,5.104771801312323,7.9010470576739324,-1.982025180100233
5.924298584150375,5.0864849802418695,7.88122680587293,-2.321831474838797
5.975163433952793,5.081977442529395,7.858008491124542,-2.661166887596559
6.025983208378087,5.093140020500794,7.831396822248577,-3.001531532328152
6.076914608583095,5.121945388362271,7.801381506925295,-3.3451041829844756
6.128134062466718,5.170544239751552,7.76793046509545,-3.6947815528284016
6.179839504864233,5.241381447740175,7.730982649567166,-4.054244159076726
6.232253319341635,5.337332995993716,7.690440207976399,-4.42805715769023
6.285626649301572,5.46186299575774,7.6461596363994975,-4.8218100993853295
6.3402452792591495,5.619193295817116,7.597941535405644,-5.242288256075237
6.396437212217321,5.81445829516041,7.545518652844891,-5.697639410222939
6.454581795168925,6.0537663071778764,7.488542258742662,-6.197428425316171
6.5151194582407035,6.343963656932611,7.4265679744895,-6.752298197906568
6.578559094810029,6.691603901140523,7.359044992510435,-7.37254728593356
6.645475133821435,7.099976519239923,7.285319519651099,-8.064031229402287
6.716474899013834,7.561819683770994,7.204679207357077,-8.818074869480254
6.792093095851544,8.043980197791896,7.116498458662274,-9.59016801621261
6.872532897829463,8.463279288771039,7.020596778500148,-10.266378712622014
6.957165690717173,8.674903111529469,6.917932991373928,-10.647246508806429
7.043914721832468,8.536900237527181,6.811460526285864,-10.537944735886354
7.129283724207739,8.056157832041317,6.706081078927,-9.951640791118633
7.209845302528152,7.405995008734734,6.606564671015814,-9.132515944630832
7.2839052526155,6.755016821969564,6.515239511569506,-8.31640809030762
7.351455420835196,6.176815132414358,6.43207543066643,-7.606101110237818
7.413223572159339,5.682463687207972,6.356014419564052,-7.01750374632893
7.470048209031418,5.261188535594167,6.285839382100763,-6.536414831005533
7.52266009438736,4.898397851518688,6.220475233790707,-6.143518549130664
7.571644072902547,4.581093665989201,6.159040048299401,-5.821827956351729
7.617455009562439,4.2988393807047585,6.100821768735884,-5.557984730004005
7.660443403369487,4.043488296123925,6.045241921435844,-5.341858957234431
7.700878286330727,3.808687984120912,5.9918233318634995,-5.1658460301481925
7.738965166171936,3.5894360755228965,5.9401648715620174,-5.024235026870625
7.774859526927165,3.381739037575147,5.889922521293311,-4.912714835662589
7.8086769173029165,3.1823653817482858,5.840795372936685,-4.828002159512771
7.840500571120399,2.9886736137620873,5.7925153513415575,-4.767560567436484
7.87038730725802,2.798497278072443,5.744839745667193,-4.729382712514202
7.898372280038744,2.610073892145673,5.69754591854205,-4.711814162491634
7.924473018960201,2.42200842124688,5.650427776917134,-4.713403190875051
7.94869310317267,2.2332645328371674,5.603293745008384,-4.732765802391142
7.971025748501042,2.04317811747103,5.555966086984473,-4.768459561835843
7.991457529675752,1.8514875069578567,5.508281491366114,-4.818863968983935
8.00997240474533,1.6583735217079412,5.460092851676275,-4.882069583475637
8.026556139962409,1.4645001017361068,5.411272155841519,-4.955782992120016
8.04120114097977,1.2710432478328912,5.361714325920318,-5.03725970973867
8.053911573458098,1.0796931965287657,5.311341728822931,-5.123281247679283
8.064708505423386,0.8926135970194848,5.260108916346138,-5.2101941814624055
8.07363464139358,0.7123437609572619,5.208006974531514,-5.294025943395264
8.080758079003154,0.5416374192018529,5.155066715097561,-5.370682439779775
8.086174453195172,0.38324418585997677,5.101359890699763,-5.436216316073168
8.090006895053772,0.23965605938297427,5.046997727539032,-5.487134691695673
8.092403455647602,0.11285600885636748,4.992126380622075,-5.5206977360617415
8.093532015736166,0.004112788656396582,4.936919403261458,-5.535152356062669
8.09357314362273,-0.08613909506175069,4.881567879700831,-5.52985398314477
8.092711752672113,-0.15831291692461497,4.826269339869383,-5.505253294254483
8.091128623502867,-0.2135797621937797,4.771216806926838,-5.462755955250678
8.08899282588093,-0.25370039143601997,4.716589247374332,-5.404490838875307
8.086455821966569,-0.28081711460762226,4.662544338985579,-5.333036566966755
8.083647650820492,-0.29724449648779966,4.609213973315911,-5.251155022946569
8.080675205855615,-0.3052886816812366,4.5567024230864455,-5.161567552423447
8.077622319038802,-0.3071117359849885,4.505086747562211,-5.0667919854620145
8.074551201678952,-0.3046447403115582,4.454418827707591,-4.969042738749817
8.071504754275837,-0.2995444341356564,4.404728400320093,-4.870185563525771
8.06850930993448,-0.29318366480024166,4.356026544684835,-4.771733515532955
8.065577473286478,-0.28666492193285703,4.308309209529505,-4.674870145729798
8.06271082406715,-0.2808474520515043,4.261560508072208,-4.580487908452607
8.059902349546634,-0.27638061584925494,4.215755628987681,-4.489232782729077
8.057138543388142,-0.27373842792053416,4.170863301160391,-4.4015490831868505
8.054401159108936,-0.27325216580193856,4.126847810328522,-4.317720899936424
8.051668637450916,-0.2751394018613181,4.083670601329158,-4.237908410253371
8.048917243432303,-0.27952881284263315,4.041291517226624,-4.162178501219191
8.046121955303876,-0.2864807445497799,3.9996697322144326,-4.090529860805366
8.043257147858379,-0.2960038556214135,3.9587644336063788,-4.022913073838078
8.040297109302164,-0.30806832551854746,3.918535302867998,-3.9592464166590235
8.03721642604698,-0.3226161579808757,3.8789428387014078,-3.899428068438441
8.033990264467171,-0.3395690919337754,3.8399485580170234,-3.8433454088064813
8.030594573547834,-0.35883457981756933,3.8015151039289585,-3.7908819897636175
8.027006227749657,-0.38031022872215914,3.7636062840313222,-3.7419226780808708
8.023203125462436,-0.40388703411884247,3.7261870572505136,-3.6963573755042463
8.019164255121247,-0.42945167540979673,3.689223483495471,-3.654083644322212
8.01486973836715,-0.45688808958572485,3.6526826470522487,-3.6150084975897907
8.010300857471293,-0.486078494652419,3.6165325620763507,-3.5790495566871208
8.005440072524769,-0.5169039977708495,3.5807420665094796,-3.5461357329809506
8.00027103254706,-0.549244893378574,3.54528070917967,-3.5162075537529494
7.994778583613274,-0.5829807328837158,3.5101186336421404,-3.4892172237592503
7.988948776284437,-0.6179902288174378,3.475226461404548,-3.46512849137844
7.982768873996263,-0.6541510416629969,3.4405751764907637,-3.4439163710461793
7.976227363579633,-0.6913394861441773,3.4061360127803018,-3.4255667605127136
7.969313968718191,-0.7294301848820488,3.3718803451751747,-3.4100759815304644
7.96201966686937,-0.7682956904700277,3.33777958535987,-3.3974502651853893
7.95433670996467,-0.8078060917357924,3.303805082708016,-3.3877051976726325
7.946258649047312,-0.8478286159095256,3.2699280307312897,-3.3808651384460915
7.937780362888217,-0.8882272353319387,3.2361193793468286,-3.3769626199995297
7.928898090534898,-0.9288622850046591,3.2023497531468332,-3.3760377367955705
7.919609467684851,-0.969590095550827,3.1685893757788777,-3.3781375298391625
7.909913566729343,-1.0102626448948069,3.134808000480486,-3.3833153729306664
7.899810940280395,-1.0507272310966451,3.1009748467511793,-3.3916303666025
7.889303667969429,-1.0908261682227467,3.0670585430851545,-3.4031467460408935
7.8783954062872015,-1.1303965068510269,3.0330270756247457,-3.4179333098389644
7.867091441218691,-1.1692697807628396,2.998847742526356,-3.4360628771509325
7.855398743411063,-1.207271781543486,2.9644871137548465,-3.457611781660305
7.843326025595628,-1.2442223631866156,2.9299109959382434,-3.482659411681261
7.830883801963762,-1.2799352793739807,2.895084401821431,-3.511287806624838
7.818084449170022,-1.3142180568905788,2.8599715237551826,-3.5435813209153078
7.804942268601116,-1.346871909659803,2.8245357105460296,-3.5796263671591717
7.791473549504518,-1.37769169918576,2.788739446874438,-3.619511250849133
7.777696632512661,-1.406465948837974,2.752544334365947,-3.663326108995085
7.763631973024281,-1.432976921510829,2.715911073275996,-3.711162964632881
7.749302203809172,-1.4570007728910122,2.6787994436296674,-3.763115907921715
7.734732196080262,-1.4783077960978614,2.6411682845504503,-3.819281412160273
7.719949118119284,-1.4966627781526174,2.6029754704288477,-3.8797587890565577
7.704982490337757,-1.5118254950546979,2.564177882538282,-3.9446507813181992
7.68986423538721,-1.5235513808671945,2.5247313747251,-4.0140642811731295
7.6746287215785385,-1.5315924180880345,2.4845907319133684,-4.088111149508341
7.659312797397658,-1.535698313039399,2.443709620418285,-4.166909090147388
7.643955814267264,-1.5356180429051254,2.402040529516811,-4.250582504894461
7.628599633838213,-1.5311018929620002,2.3595347044678663,-4.339263213902232
7.613288614908593,-1.5219041470327224,2.316142072328844,-4.433090867887182
7.598069573438266,-1.507786656063534,2.2718111636499723,-4.532212797132728
7.582991706877631,-1.4885235954723486,2.226489035678645,-4.63678292812154
7.568106470922907,-1.463907840015837,2.1801212063974296,-4.746959240039613
7.553467392522749,-1.4337595461459025,2.1326516139970333,-4.862899014731673
7.53912979706129,-1.3979377490279132,2.0840226238497164,-4.9847508356898915
7.525150419571011,-1.3563560683383469,2.0341751154928174,-5.112641892436762
7.511586858887627,-1.3090039848674981,1.9830486965684497,-5.2466586255931436
7.4984968190389525,-1.2559755995319204,1.9305821103125183,-5.3868180953365785
7.485937063043633,-1.197508291370116,1.8767139293591524,-5.533026694049489
7.473961980129932,-1.1340341667423464,1.8213836624186575,-5.685022047798594
7.462621638462508,-1.0662474396804928,1.7645334419406715,-5.8422934027148985
7.451959164065703,-0.99519050201559,1.7061105079135226,-6.003975980427561
7.442007259045547,-0.9223597071055861,1.646070748109247,-6.168716655926748
7.432783661974491,-0.8498276410879373,1.5843835815499794,-6.334513408589653
7.4242853855636115,-0.7803703212543857,1.5210384474640828,-6.498541458987951
7.416481682351067,-0.7175738599907489,1.4560530328742032,-6.65699693068363
7.40930594375116,-0.6658757748508051,1.389483063567367,-6.805014349351312
7.4026471860026515,-0.6304760037990456,1.3214329200738537,-6.936741369601108
7.396342425964661,-0.6170447975930734,1.2520655063778425,-7.045665781283552
7.39017197798873,-0.6311806644681696,1.181608848565007,-7.125257383078274
7.383860171344048,-0.6776507168525862,1.1103562747342242,-7.1698849961973945
7.3770836641755215,-0.7595684393745868,1.0386574247722502,-7.17580956101485
7.369487979781776,-0.8777673197823684,0.9668993291621018,-7.141921366499394
7.360710306583952,-1.0306194248361495,0.8954801154971078,-7.069906433258156
7.350404112335591,-1.2143868784688414,0.8247810511645263,-6.963742574699698
7.338260243550902,-1.4239662377602587,0.7551436254175293,-6.8287229585919915
7.3240205811733,-1.653744111349492,0.6868563958316094,-6.6703807742134575
7.307483140059805,-1.8983059678413436,0.6201525880894748,-6.493644307482759
7.288500080381391,-2.1528737491819916,0.5552161450146472,-6.302368005391585
7.266971342889572,-2.413481980110088,0.4921924649607314,-6.099209522129752
7.242836523088471,-2.6769723697562973,0.4312003697394339,-5.885736673601448
7.216066799390908,-2.9408950704731374,0.3723430030034194,-5.6626445139041754
7.186657848686177,-3.2033815641600594,0.31571655786437763,-5.429997870884407
7.154624033044576,-3.463025820218842,0.26141657915553357,-5.1874536991177465
7.119993774842388,-3.7187888677022323,0.2095420421643561,-4.934445715681695
7.0828058861653655,-3.969929104449605,0.16019758500753914,-4.6703296127399065
7.04310659512087,-4.215954346218343,0.11349428888014007,-4.39449430814588
7.000947051658686,-4.456589101633862,0.06954934579868127,-4.106447133752843
6.956381160642348,-4.691749841339852,0.028484874461152845,-3.8058813483593794
6.90946366222895,-4.921520890152849,-0.009573939022440948,-3.4927345188727785
6.860248453327421,-5.146123326905445,-0.04450128421116874,-3.1672469859422354
6.808787220058367,-5.365868552021639,-0.0761737540705911,-2.830031224782749
6.755128534538151,-5.58108678442293,-0.10447406631841859,-2.4821655588484703
6.699317666693921,-5.7920186864279835,-0.1292957219069033,-2.1253291993384593
6.641397479829641,-5.998656018286059,-0.1505490139002879,-1.7619991488340438
6.581410919646781,-6.20051607377814,-0.16816900538862833,-1.3957309134788847
6.5194057589089995,-6.396337961556445,-0.18212631452341718,-1.0315392246429753
6.4554423792934355,-6.583703240179748,-0.19244170676984693,-0.6763723464386169
6.389605346891638,-6.758619966201724,-0.1992054302342331,-0.33961834867939245
6.3220191472296206,-6.915180401635612,-0.20260161372102703,-0.03347657110434349
6.252867343213264,-7.045508709116145,-0.20293637943207046,0.22712643599773225
6.182412256122102,-7.140311369515863,-0.20066511507209314,0.4255332035394598
6.111009142426944,-7.190303653890331,-0.19640978303669854,0.5456541052413345
6.039106105888041,-7.18843986813244,-0.1909532419842852,0.5754431760142612
5.967221707206717,-7.132229746903763,-0.18519881022414258,0.5104730386352632
5.895899409737679,-7.024939746669915,-0.18009407983778997,0.3558160006935639
5.82565001227098,-6.874837696632881,-0.17653591983085432,0.12495952604329047
5.756901635304652,-6.692819191915033,-0.1752863245704214,-0.16377812704812783
5.689973443385501,-6.48970601427293,-0.17692410584090268,-0.4914339634786791
5.625076383242772,-6.274383347806007,-0.18183844547568948,-0.8414238347802163
5.562332549764712,-6.053115616983955,-0.19025268382349164,-1.2008338922060533
5.501801393594872,-5.829722170261187,-0.2022610227455522,-1.5603971879500305
5.443504171892259,-5.606136128173515,-0.2178649946250525,-1.9138393952123018
