th1 (rad),w1 (rad/s),th2 (rad),w2 (rad/s),a1 (rad/s^2),a2 (rad/s^2)
4.70324328555954,0.6224549372990709,6.101461901194412,0.10452022610146237,9.830620393587973,-0.2987281220012508
4.709467834932531,0.7207611412349506,6.102507103455427,0.10153294488144987,9.84850489518861,-0.49171884196665117
4.716675446344881,0.8192461901868368,6.103522432904241,0.09661575646178336,9.86979157925879,-0.7139219255227681
4.724867908246749,0.9179441059794247,6.1044885904688595,0.08947653720655568,9.894896824608702,-0.9655091228602801
4.734047349306543,1.0168930742255118,6.105383355840925,0.07982144597795288,9.924333779102279,-1.246688185406473
4.744216280048798,1.1161364120165347,6.106181570300705,0.06735456412388814,9.95872532426997,-1.55770982875035
4.755377644168964,1.2157236652592345,6.1068551159419435,0.051777465836384644,9.998818818099387,-1.8988766657520721
4.767534880821556,1.3157118534402283,6.107372890600307,0.03278869917886392,10.045502683093362,-2.27055443897092
4.780691999355958,1.416166880271162,6.107700777592096,0.010083154789154721,10.09982491092515,-2.67318589182201
4.7948536681586695,1.5171651293804136,6.107801609139988,-0.01664870412906538,10.163013551574057,-3.107307606601246
4.810025319452474,1.618795264896154,6.107635122098697,-0.04772178019507784,10.23649923676901,-3.573570092310473
4.826213272101436,1.7211602572638443,6.107157904296746,-0.08345748111818257,10.321939743446832,-4.07276130700165
4.843424874674074,1.8243796546983126,6.106323329485564,-0.12418509418819906,10.421246514134321,-4.605833618718836
4.861668671221057,1.9285921198396558,6.105081478543682,-0.17024343037538742,10.536612887813842,-5.1739339005067615
4.880954592419454,2.033958248717794,6.1033790442399285,-0.22198276938045503,10.670543509358463,-5.778435947662827
4.901294174906632,2.1406636838113786,6.101159216546124,-0.2797671288570833,10.825883902656425,-6.420973589336943
4.922700811744746,2.248922522837943,6.0983615452575535,-0.34397686475045275,11.005848393069748,-7.103471569929803
4.945190036973125,2.3589810067686403,6.0949217766100485,-0.4150115804497508,11.214043261353059,-7.828169230023264
4.968779847040811,2.4711214393821708,6.090771660805551,-0.4932932727499834,11.454479908668704,-8.597628802054297
4.993491061434633,2.585666238468858,6.085838728078051,-0.5792695607705264,11.73156944823426,-9.414715097130687
5.019347723819322,2.7029819329512006,6.080046032470346,-0.6734167117418333,12.050084790763291,-10.28252547616226
5.046377543148834,2.8234827808588334,6.073311865352927,-0.7762419665034559,12.41506783764768,-11.204236694378771
5.074612370957422,2.9476334592353104,6.065549445687893,-0.8882843334472437,12.831646122203873,-12.182816077976517
5.104088705549775,3.075949920457349,6.05666660235342,-1.0101124942270088,13.304702575596858,-13.220514946031592
5.1348482047543484,3.2089969462133174,6.04656547741115,-1.1423176436873246,13.838310336124284,-14.31801708162262
5.166938174216481,3.3473800495745603,6.035142300974277,-1.2854978145035507,14.434796696685227,-15.473047524424404
5.200411974712227,3.4917280165414124,6.022287322829242,-1.4402282897477947,15.093230670709696,-16.67814922394779
5.235329254877642,3.6426603232485095,6.007885039931764,-1.6070097819872726,15.807033225209521,-17.917202028665695
5.271755858110127,3.8007306555006046,5.9918149421118905,-1.7861818022739295,16.560293054102075,-19.160098234200696
5.309763164665132,3.9663335860416256,5.973953124089151,-1.9777827846159366,17.322266726332114,-20.354849553204424
5.349426500525548,4.139556253304947,5.954175296242992,-2.181331280147981,18.039552356831177,-21.416428843950825
5.3908220630585975,4.319951776873259,5.932361983441512,-2.395495568587489,18.625801287336486,-22.21220391494542
5.43402158082733,4.506209789746624,5.908407027755637,-2.617617607736943,18.950085988542366,-22.54562928868047
5.479083678724796,4.695710649632048,5.882230851678268,-2.8430739006237475,18.82800112035209,-22.14409401391983
5.526040785221116,4.883990660835568,5.8538001126720305,-3.064514840762946,18.02497525825944,-20.66451152569075
5.574880691829471,5.064240413418163,5.823154964264401,-3.2711599560198534,16.288010699516185,-17.739789539693973
5.625523095963653,5.227120520413324,5.790443364704203,-3.448557851416793,13.4233972081189,-13.091118477923757
5.677794301167786,5.361354492494513,5.755957786190034,-3.5794690361960306,9.41895940803645,-6.703890026090279
5.731407846092732,5.455544086574878,5.720163095828074,-3.6465079364569335,4.559246138990607,1.0064067686506704
5.785963286958481,5.501136547964784,5.683698016463504,-3.6364438687704266,-0.5688530545144801,9.184641202259058
5.8409746524381285,5.495448017419639,5.647333577775799,-3.544597456747836,-5.249710164942319,16.782923297798014
5.895929132612325,5.442950915770216,5.611887603208321,-3.3767682237698557,-8.914378433715683,22.955047918471365
5.950358641770028,5.353807131433059,5.5781199209706225,-3.147217744585142,-11.327613014981406,27.327940448472223
6.003896713084359,5.2405310012832444,5.546647743524771,-2.8739383401004197,-12.577437237197069,29.992762321362697
6.056302023097191,5.114756628911274,5.517908360123767,-2.574010716886793,-12.932983694366555,31.306334157413286
6.107449589386304,4.985426791967608,5.492168252954898,-2.26094737531266,-12.698683824928503,31.684074813549728
6.157303857305981,4.858439953718324,5.469558779201772,-1.9441066271771625,-12.13122764358708,31.480036287174208
6.2058882568431635,4.737127677282452,5.45011771293,-1.6293062643054204,-11.415509095014588,30.950267224332002
6.253259533615988,4.622972586332306,5.433824650286946,-1.3198035920621003,-10.671851687499288,30.261098682621654
6.29948925947931,4.516254069457314,5.420626614366324,-1.0171926052358837,-9.972772229165843,29.511717914666214
6.344651800173883,4.4165263471656555,5.4104546883139655,-0.7220754260892216,-9.358870339789295,28.756132414052345
6.38881706364554,4.322937643767762,5.403233934053073,-0.43451410194869816,-8.850740765120296,28.019919878800913
6.432046440083218,4.234430236116559,5.398888793033587,-0.15431490316068902,-8.456963909554748,27.311672886348532
6.474390742444383,4.149860597021012,5.39734564400198,0.1188018257027963,-8.179129804758436,26.63037692187401
6.515889348414593,4.068069298973427,5.398533662259008,0.3851055949215364,-8.014859295459884,25.9700154767942
6.556570041404327,3.987920706018828,5.402384718208223,0.6448057496894783,-7.959553733884437,25.3223938228104
6.596449248464515,3.908325168679984,5.408832775705118,0.8980296879175824,-8.007368845247973,24.678854745323008
6.6355325001513155,3.8282514802275043,5.417813072584294,1.1448182353708125,-8.15173065184915,24.031315940691155
6.673815014953591,3.746734173709013,5.429261254938002,1.3851313947777242,-8.385591525827305,23.372893467888876
6.711282356690681,3.66287825845074,5.443112568885779,1.6188603294566128,-8.701547881224037,22.69826992163098
6.747911139275189,3.5758627796384994,5.459301172180345,1.8458430286729226,-9.091893300771035,22.003900690539478
6.783669767071574,3.484943846630789,5.477759602467074,2.0658820355783174,-9.54865137093854,21.288112349146495
6.818519205537882,3.3894573329214035,5.498418422822858,2.2787631590697823,-10.06361411558678,20.55112419233952
6.8524137788670965,3.288821191765536,5.521206054413556,2.4842744009931774,-10.6284002559436,19.795010934746212
6.885301990784752,3.1825371892061,5.546048798423487,2.6822245103406397,-11.234539910058285,19.023617763551854
6.917127362676813,3.0701917901055173,5.572871043526893,2.872460687976158,-11.873587204730361,18.242435810777604
6.947829280577868,2.9514559180582136,5.601595650406655,3.054885046083934,-12.537258704902962,17.458445158601513
6.977343839758451,2.826083331009184,5.632144500867494,3.229469497669949,-13.217593067498566,16.679932716160042
7.005604673068542,2.6939074003341985,5.664439195844194,3.39626882483155,-13.907125627127042,15.916293052137243
7.032543747071884,2.554836144062928,5.69840188409251,3.555431755352922,-14.59907057251665,15.177821086959728
7.058092108512513,2.4088454383377615,5.7339562016460395,3.707209966222519,-15.287502882428663,14.475506125687769
7.082180562895891,2.2559704095134747,5.771028301308265,3.851965027479397,-15.96753217315601,13.82083681373067
7.104740266991025,2.0962950877819146,5.809547951583059,3.9901733956167034,-16.63546095236752,13.225626033330949
7.125703217868844,1.9299404782582394,5.849449685539226,4.122429655950013,-17.28892030037511,12.701863349503848
7.145002622651427,1.7570512752544882,5.890673982098726,4.249448289445051,-17.9269764377566,12.261600142776013
7.162573135403972,1.5777815108769222,5.933168464993177,4.372064290872811,-18.55020157399959,11.916868708288638
7.1783509505127405,1.3922794951369264,5.976889107901905,4.491232977955698,-19.16070124298046,11.679630812612357
7.19227374546411,1.2006724827071218,6.021801437681462,4.6080292860818215,-19.76208707791736,11.561742536364608
7.204280470291182,1.0030516119279482,6.06788173054228,4.723646711445467,-20.35937722450915,11.574909058072612
7.214310986410461,0.7994578396828567,6.115118197656734,4.839395802026194,-20.95879410949541,11.730582573151164
7.222305564807289,0.5898698985879025,6.1635121556769965,4.956701627757705,-21.56740759159498,12.039724167263834
7.2282042637931685,0.3741958226719527,6.213079171954574,5.077098869430343,-22.192535199723523,12.512298684997564
7.2319462220198885,0.1522704706747175,6.263850160648877,5.202221856280318,-22.840751949242332,13.156288755011122
7.233468926726635,-0.07613704881770583,6.31587237921168,5.33378474383043,-23.516268201529606,13.975882946605351
7.232707556238458,-0.3112997308330019,6.369210226649985,5.4735435732964834,-24.218289973212848,14.968291042239995
7.2295945589301285,-0.5534826305651304,6.42394566238295,5.6232264837188835,-24.936768347082243,16.118345100014903
7.224059732624477,-0.8028503140359529,6.480177927220139,5.784409934719032,-25.64567925417364,17.38966230821394
7.216031229484117,-1.0593071065776893,6.5380220265673294,5.958306557801172,-26.29272984323772,18.710775591579416
7.205438158418341,-1.3222344050100665,6.597605092145341,6.145414313716966,-26.784440277020128,19.954655343013894
7.19221581436824,-1.5900788077802677,6.659059235282511,6.344960867147105,-26.96663729543731,20.91146373306798
7.176315026290438,-1.8597451807346408,6.722508843953982,6.554075504477785,-26.604093490418798,21.259390226712743
7.157717574483091,-2.125786115638829,6.78804959899876,6.766669406744913,-25.371792327756474,20.55044091883001
7.136459713326703,-2.3795040389163935,6.855716293066209,6.972173815933213,-22.88519918038767,18.248759484701885
7.112664672937539,-2.60835603072027,6.925438031225541,7.154661410780232,-18.809589443254975,13.877040852124697
7.086581112630337,-2.79645192515282,6.9969846453333435,7.293431819301479,-13.067968160298198,7.299110416988803
7.058616593378809,-2.9271316067558018,7.069918963526359,7.366422923471367,-6.07111341634521,-0.9650068891901329
7.029345277311251,-2.987842740919254,7.1435831927610725,7.356772854579465,1.2402421790657625,-9.679167252780887
6.999466849902058,-2.9754403191285963,7.217150921306867,7.259981182051656,7.7142797793659845,-17.32329769780275
6.969712446710772,-2.8982975213349365,7.289750733127384,7.086748205073628,12.507534769837282,-22.796150528765768
6.940729471497423,-2.7732221736365634,7.36061821517812,6.858786699785971,15.385928822273916,-25.81592693242695
6.912997249761057,-2.6193628854138242,7.42920608217598,6.600627430461701,16.621781573722636,-26.771522513907097
6.886803620906918,-2.453145069676598,7.4952123564805975,6.33291220532263,16.695301108958297,-26.3151205952745
6.862272170210153,-2.286192058587015,7.558541478533824,6.069760999369885,16.06116157248624,-25.05035416046077
6.839410249624282,-2.1255804428621525,7.6192390885275225,5.819257457765278,15.055236244893203,-23.412942532985884
6.818154445195661,-1.9750280804132205,7.6774316631051756,5.585128032435419,13.892697959768942,-21.6736914102875
6.7984041643915285,-1.836101100815531,7.73328294342953,5.368391118332544,12.698419434499899,-19.982772317537332
6.780043153383374,-1.709116906470532,7.786966854612856,5.16856339515717,11.538694455857758,-18.413884255244724
6.7629519843186685,-1.5937299619119545,7.838652488564428,4.984424552604723,10.444828395572362,-16.996336446823143
6.747014684699549,-1.4892816779562308,7.888496734090475,4.814461188136491,9.428408268031594,-15.735396878379355
6.732121867919987,-1.3949975952759148,7.9366413459718395,4.657107219352698,8.49049551646013,-14.62427350788747
6.718171891967228,-1.3100926401113135,7.983212418165366,4.510864484273823,7.626921279504077,-13.650829312177684
6.705070965566115,-1.2338234273162727,8.028321063008104,4.374356191152046,6.831237601400313,-12.801188764922426
6.692732731292953,-1.1655110513022695,8.072064624919625,4.246344303502822,6.096308551371817,-12.061578221899753
6.68107762077993,-1.1045479657885513,8.114528067954653,4.125728521283824,5.415130206567667,-11.41919046067
6.670032141122045,-1.0503966637228745,8.155785353167492,4.011536616677124,4.781221648779426,-10.862524374270064
6.659528174484816,-1.0025844472350802,8.195900719334263,3.9029113729344234,4.1887823742900165,-10.38145213133298
6.649502330012465,-0.9606966234921801,8.234929833063607,3.7990968516210937,3.6327264260570784,-9.967152667289223
6.639895363777543,-0.9243693592316093,8.272920801579817,3.6994253249482014,3.108654864772187,-9.611986538706688
6.630651670185228,-0.8932828105838875,8.309915054829299,3.6033054595611347,2.612800535195195,-9.309351620070979
6.621718842079389,-0.8671548052319356,8.34594810942491,3.510211943360425,2.1419634535318415,-9.053539512273517
6.613047294027069,-0.8457351706966172,8.381050228858514,3.41967654823769,1.6934463589814195,-8.839601854041053
6.604589942320103,-0.828800707106803,8.415246994340892,3.3312805296972794,1.264995079257189,-8.66323003083486
6.596301935249034,-0.8161507563142311,8.448559799637865,3.2446482293889307,0.8547456707717641,-8.520648842648539
6.588140427685892,-0.8076032996065134,8.481006281931753,3.1594417409624453,0.4611788494271392,-8.408523280256748
6.580064394689827,-0.8029915111122421,8.512600699341379,3.075356508159878,0.08308148022810088,-8.323876974333766
6.572034479578704,-0.8021606963099611,8.543354264422977,2.9921177384165403,-0.28048546906507965,-8.264020736799962
6.564012872615605,-0.804965551000612,8.573275441807143,2.9094775310485406,-0.6302132613544494,-8.226489695069404
6.555963217105599,-0.8112676836141565,8.602370217117628,2.8272126340978465,-0.9665668124983677,-8.208987710962933
6.547850540269457,-0.8209333517391402,8.630642343458605,2.7451227569882173,-1.2898020060612845,-8.209338014558236
6.539641206752066,-0.833831371799753,8.658093571028488,2.6630293768426347,-1.5999796879666905,-8.225439236744643
6.531302893034068,-0.8498311686794199,8.684723864796913,2.5807749844751884,-1.8969771104427928,-8.255226276358634
6.522804581347274,-0.8688009397838478,8.710531614641665,2.498222721711602,-2.180497581675061,-8.296635680195696
6.514116571949436,-0.8906059156005983,8.735513841858781,2.4152563649096455,-2.4500790711604643,-8.347575442066256
6.50521051279343,-0.9151067063122029,8.759666405507877,2.331780610488983,-2.7051025187703868,-8.405899336272658
6.496059445730308,-0.9421577314999068,8.782984211612767,2.2477216171262566,-2.9448005933608217,-8.469386086510058
6.4866378684153085,-0.971605737433515,8.80546142778403,2.163027756261156,-3.168267638020027,-8.535723826704485
6.476921811040973,-1.0032884138137153,8.827091705346641,2.077670517994111,-3.3744715160707344,-8.602500427296892
6.466888926902836,-1.0370331289744226,8.847868410526582,1.9916455137211422,-3.5622680264234114,-8.66720032891617
6.456518595613092,-1.0726558092386567,8.867784865663793,1.9049735104319805,-3.730418480501615,-8.727208534243427
6.445792037520706,-1.1099599940436728,8.886834600768113,1.8177014250895462,-3.877610918323003,-8.779822347316038
6.434692437580269,-1.1487361032269028,8.905011615019008,1.7299032016163858,-4.002485282987301,-8.822271308458072
6.423205076548,-1.1887609560567758,8.922310647035172,1.641680488531805,-4.10366266854947,-8.851745547011282
6.411317466987432,-1.2297975827422705,8.93872745192049,1.5531630330616921,-4.1797785082017125,-8.86543246335587
6.39901949116001,-1.2715953678242875,8.954259082251108,1.4645087084281334,-4.229519285458444,-8.86056126430715
6.3863035374817665,-1.313890560678872,8.968904169335389,1.375903095785062,-4.251662044311563,-8.834454428961566
6.373164631874978,-1.3564071811219875,8.982663200293239,1.2875585514954464,-4.245115664804087,-8.784584702305603
6.359600560063758,-1.3988583377700283,8.995538785808193,1.1997127044723903,-4.208962582961727,-8.708635737337962
6.345611976686058,-1.4409479635996456,9.007535912852918,1.1126263470990108,-4.142499396503469,-8.604564075920115
6.331202497050062,-1.4823729575646802,9.018662176323907,1.0265807063398096,-4.045274638504206,-8.470659820000721
6.316378767474415,-1.5228257039497224,9.028927983387305,0.9418741081398023,-3.9171219452222035,-8.305603142203847
6.301150510434918,-1.5619969234019444,9.038346724468703,0.8588180767177639,-3.7581869095804783,-8.108513754139022
6.285530541200899,-1.5995787924977491,9.04693490523588,0.7777329391763736,-3.5689461057657397,-7.878990614732744
6.269534753275921,-1.6352682535554066,9.054712234627644,0.6989430330290463,-3.350217087686584,-7.617139523796372
6.253182070740367,-1.6687704244322725,9.061701664957935,0.6227716377910826,-3.1031585856221664,-7.32358679170195
6.236494366496045,-1.699802010288494,9.067929381335846,0.549535769874063,-2.829260619936966,-6.999477867889722
6.21949634639316,-1.7280946164878637,9.073424739034586,0.4795409911951658,-2.530324777702185,-6.64646059546097
6.202215400228281,-1.7533978642648855,9.078220148946537,0.4130763852405561,-2.2084354124768075,-6.266653571832891
6.1846814215856325,-1.7754822183896537,9.082350912798942,0.3504098495222272,-1.8659229855116193,-5.862600868691701
6.166926599401736,-1.79414144824477,9.085855011294164,0.29178384083531017,-1.5053211309603973,-5.437215035723932
6.1489851849192885,-1.809194659554374,9.088772849702517,0.23741169047807084,-1.129319272007509,-4.993710831799895
6.130893238323745,-1.820487852274449,9.091146966607297,0.1874745821600719,-0.7407127264972214,-4.535532462243063
6.112688359801001,-1.8278949795394213,9.093021712428898,0.14211925753764126,-0.3423522212553543,-4.066277239719499
6.094409410005607,-1.8313185017519749,9.094442905004275,0.10145648514044628,0.06290540181483623,-3.5896185371567713
6.076096224988087,-1.8306894477338265,9.09545746985568,0.06556029976887856,0.4722437335422979,-3.109230688707661
6.057789330510749,-1.8259670103984036,9.096113072853369,0.034467992881801954,0.8829293365380028,-2.6287181556237127
6.039529660406765,-1.8171377170330236,9.096457752782186,0.008180811325564825,1.2923493361223815,-2.1515508504824985
6.0213582832364345,-1.8042142236717997,9.096539560895442,-0.013334697179260162,1.6980434497220682,-1.6810070483718964
6.003316140999717,-1.787233789174579,9.096406213923649,-0.030144767662979126,2.097730145977182,-1.2201248459621346
5.985443803107971,-1.7662564877148073,9.096104766247018,-0.04234601612260047,2.4893268908514283,-0.7716626900219876
5.967781238230823,-1.741363218806293,9.095681306085792,-0.05006264302282035,2.8709646553058947,-0.3380691079578035
5.95036760604276,-1.7126535722532341,9.095180679655565,-0.053443334102398384,3.240997023997667,0.07853855271006796
5.933241070320228,-1.6802436020132574,9.094646246314541,-0.0526579485752977,3.598004358803586,0.47638682662355125
5.916438634300095,-1.6442635584252216,9.094119666828789,-0.04789408030906219,3.940793540405468,0.8540509165900029
5.899995998715843,-1.604855623021167,9.093640726025699,-0.03935357114316216,4.268393843605721,1.2104523364711106
5.883947442485631,-1.56217168458511,9.093247190314267,-0.027249047778451052,4.580049506173245,1.54485026396397
5.86832572563978,-1.5163711895233773,9.092974699836482,-0.01180054513881135,4.8752095352158324,1.8568274944321972
5.853162013744546,-1.467619094171219,9.092856694385095,0.006767729805510624,5.153515266596178,2.1462718926815896
