th1 (rad),w1 (rad/s),th2 (rad),w2 (rad/s),a1 (rad/s^2),a2 (rad/s^2)
2.370930953449029,-1.377376606804606,3.027785247846567,-1.5316734965652243,-7.59160820022865,3.7405528268791857
2.357157187380983,-1.4532926888068927,3.0124685128809148,-1.4942679682964324,-7.630468625242685,3.5008747796396373
2.342624260492914,-1.5295973750593195,2.9975258331979506,-1.459259220500036,-7.660932315191589,3.2439219660237026
2.327328286742321,-1.6062066982112353,2.98293324099295,-1.426820000839799,-7.682913702977507,2.9689320027990274
2.3112662197602085,-1.6830358352410104,2.9686650409845523,-1.397130680811809,-7.696286985926844,2.6751096279730318
2.2944358614077984,-1.7599987051002788,2.954693734176434,-1.3703795845320785,-7.700892686402205,2.361644068526053
2.2768358743567956,-1.8370076319643007,2.9409899383311133,-1.346763143846818,-7.696545271922285,2.027729303389893
2.2584657980371525,-1.9139730846835237,2.9275223068926453,-1.326485850812919,-7.683041149196204,1.6725863562354621
2.2393260671903175,-1.9908034961754857,2.9142574483845163,-1.3097599872505643,-7.660166290420282,1.2954866690459679
2.2194180322285626,-2.0674051590796885,2.9011598485120107,-1.2968051205601046,-7.627702730101976,0.8957755714116116
2.1987439806377655,-2.1436821863807083,2.8881917973064097,-1.2878473648459885,-7.5854331906068,0.4728948777011962
2.1773071587739583,-2.2195365182867763,2.87531332365795,-1.2831184160689766,-7.533143157006731,0.026403718071525802
2.1551117935910904,-2.294867949856844,2.8624821394972604,-1.2828543788882614,-7.470619826660586,-0.44400316066465106
2.132163114092522,-2.3695741481234496,2.8496535957083777,-1.2872944104949078,-7.397647503224368,-0.9384802070087687
2.1084673726112872,-2.4435506231556934,2.8367806516034286,-1.2966792125649955,-7.313999182042514,-1.4570193500524156
2.08403186637973,-2.5166906149761186,2.8238138594777786,-1.3112494060655198,-7.219424274482019,-1.999441870714736
2.058864960229969,-2.588884857720939,2.8107013654171236,-1.3312438247726672,-7.113632630624917,-2.5653937177028974
2.0329761116527596,-2.660021184027188,2.797388927169397,-1.3568977619496962,-6.996275229418735,-3.1543438889397244
2.006375899812488,-2.7299839363213754,2.7838199495499,-1.3884412008390934,-6.866922099691021,-3.765585299283097
1.979076060449274,-2.798653157318286,2.769935537541509,-1.4260970538319244,-6.725038202938824,-4.398237413642391
1.9510895288760912,-2.865903539347674,2.7556745670031897,-1.4700794279683482,-6.56995814124048,-5.051249856874699
1.9224304934826144,-2.931603120760079,2.7409737727235064,-1.5205919265370953,-6.400860646817994,-5.723406227969399
1.8931144622750136,-2.9956117272282587,2.7257678534581355,-1.5778259888167894,-6.216743863892282,-6.413327449057956
1.863158345002731,-3.0577791658671813,2.7099895935699676,-1.641959263307369,-6.01640245269562,-7.119474165994994
1.8325805533440591,-3.1179431903941377,2.693570000936894,-1.7131540049673188,-5.798407536987236,-7.840147976955266
1.8014011214401178,-3.17592726576401,2.676438460887221,-1.7915554847368715,-5.561090488828249,-8.573491584374853
1.7696418487824777,-3.2315381706522928,2.658522906039852,-1.8772904005806201,-5.302531506216452,-9.31748832631252
1.7373264670759547,-3.2845634857144574,2.639750002034046,-1.9704652838437453,-5.020553897160764,-10.069961927077461
1.70448083221881,-3.3347690246860653,2.6200453491956086,-2.07116490311452,-4.712724941398758,-10.828577694539227
1.6711331419719495,-3.3818962741000527,2.5993337001644634,-2.1794506800599125,-4.376364157596406,-11.590846763898524
1.637314179230949,-3.425659915676017,2.5775391933638643,-2.295359147698898,-4.008559754333392,-12.354135326097484
1.6030575800741886,-3.4657455132193506,2.5545856018868753,-2.418900500959873,-3.6061939779302135,-13.115681064509264
1.5684001249419952,-3.5018074529986527,2.5303965968772766,-2.5500573116049656,-3.1659779761464777,-13.872619236078036
1.5333820504120086,-3.5334672327601173,2.5048960237612268,-2.688783503965746,-2.6844966588697767,-14.62202095074775
1.4980473780844075,-3.560312199348815,2.4780081887215695,-2.8350037134732236,-2.1582638401984275,-15.360946201092519
1.4624442560909192,-3.581894837750799,2.449658151586837,-2.988613175484149,-1.5837876790947,-16.08651404435834
1.4266253077134112,-3.597732714541746,2.4197720198319956,-3.149478315927732,-0.9576460935898462,-16.795992009529424
1.3906479805679939,-3.6073091754776443,2.3882772366727183,-3.3174382360230266,-0.2765714143977874,-17.486906255971345
1.3545748888132174,-3.610074889621622,2.355102854312488,-3.49230729858274,0.4624569049051908,-18.157173205504733
1.3184741399170012,-3.60545032057257,2.3201797813266607,-3.6738790306377873,1.2621131367123062,-18.805252255814274
1.2824196367112755,-3.592829189205447,2.283440991020283,-3.86193155319593,2.124621624160244,-19.43031769448343
1.246491344819221,-3.5715829729638444,2.2448216754883235,-4.056234730140765,3.0516506177074088,-20.032445976624636
1.2107755150895825,-3.5410664667867704,2.204259328186916,-4.256559189907011,4.044205167326682,-20.61281196047466
1.1753648504217147,-3.5006244151135038,2.161693736287846,-4.462687309511757,5.10251937340065,-21.173884276249687
1.1403586062705797,-3.449599221379497,2.1170668631927283,-4.674426152274254,6.225945715969046,-21.71960533113491
1.1058626140567847,-3.3873397642198064,2.070322601669986,-4.891622205585604,7.4128345529764585,-22.255534843840948
1.0719892164145866,-3.3132114186900417,2.0214063796141297,-5.114177554024013,8.660389139673486,-22.78892610657706
1.0388571022276862,-3.226607527293307,1.9702646040738896,-5.342066815089784,9.9644690956713,-23.328689490613513
1.006591026954753,-3.126962836336594,1.9168439359229918,-5.57535370999592,11.319295784832937,-23.88517496766828
0.9753213985913871,-3.0137698784882647,1.8610903988230327,-5.8142054596726025,12.716983099901782,-24.469669763122628
0.9451836998065044,-2.886600047489247,1.8029483442263068,-6.058902157303828,14.146771630809956,-25.09345131815964
0.9163176993316119,-2.7451323311811473,1.7423593226532685,-6.309836670485425,15.593776265987525,-25.766148951212116
0.8888663760198005,-2.589194568521272,1.6792609559484144,-6.567498159997546,17.036958664061533,-26.493036402351954
0.8629744303345878,-2.4188249818806566,1.6135859743484389,-6.832428524021066,18.445900044393703,-27.27068854814167
0.8387861805157812,-2.23436598143672,1.5452616891082283,-7.105135409502482,19.77578102379159,-28.080188200776334
0.8164425207014141,-2.0366081711988038,1.4742103350132034,-7.3859372915102455,20.9598160345476,-28.87680899275243
0.796076438989426,-1.8270100108533278,1.400350962098101,-7.67470538143777,21.89838202874915,-29.575003503264515
0.7778063388808928,-1.6080261905658364,1.3236039082837232,-7.970455416470415,22.444593032150838,-30.028070884473784
0.7617260769752344,-1.3835802602443281,1.243899354119019,-8.270736125315153,22.38790429929317,-30.00413632980753
0.7478902743727911,-1.1597012172513965,1.1611919928658676,-8.570777488613228,21.441875264133206,-29.165954557073036
0.7362932622002771,-0.9452824646100645,1.0754842179797353,-8.862437034183959,19.25095479694466,-27.073664232816043
0.7268404375541765,-0.7527729166406179,0.9868598476378957,-9.133173676512119,15.442782352085553,-23.24549186923781
0.7193127083877703,-0.5983450931197623,0.8955281108727745,-9.365628595204496,9.755860641338684,-17.316830719081675
0.7133292574565726,-0.5007864867063754,0.8018718249207295,-9.538796902395314,2.240329105102881,-9.29658699644888
0.7083213925895089,-0.4783831956553466,0.7064838558967763,-9.631762772359803,-6.560052419204747,0.19866213764692686
0.7035375606329554,-0.543983719847394,0.6101662281731783,-9.629776150983334,-15.62626509620195,9.970351959634524
0.6980977234344814,-0.7002463708094135,0.513868466663345,-9.53007263138699,-23.79004555946847,18.66010210332344
0.6910952597263873,-0.9381468264040982,0.4185677403494751,-9.343471610353754,-30.195301897647486,25.334570117453232
0.6817137914623463,-1.240099845380573,0.32513302424593754,-9.090125909179221,-34.5535253541479,29.78632377323609
0.6693127930085406,-1.585635098922052,0.23423176515414534,-8.79226267144686,-37.058129129582326,32.39081389248672
0.6534564420193201,-1.9562163902178753,0.14630913843967674,-8.468354532521992,-38.12739360614547,33.75832854740946
0.6338942781171413,-2.33749032627933,0.061625593114456825,-8.130771247047898,-38.19001702341244,34.46072986212079
0.6105193748543479,-2.7193904965134545,-0.019682119356022154,-7.78616394842669,-37.586453358127784,34.917277389068374
0.5833254698892134,-3.0952550300947324,-0.09754375884028905,-7.436991174536007,-36.55449806821004,35.38889386730655
0.5523729195882661,-3.4608000107768326,-0.17191367058564913,-7.083102235862942,-35.250393622502195,36.014102855325824
0.5177649194804977,-3.8133039470018546,-0.24274469294427856,-6.722961207309684,-33.77602783949683,36.84899837133325
0.4796318800104792,-4.151064225396823,-0.3099743050173754,-6.354471223596351,-32.20104937480589,37.89845642938497
0.43812123775651096,-4.473074719144882,-0.3735190172533389,-5.975486659302502,-30.57791899290036,39.13746835077441
0.39339049056506215,-4.778853909073885,-0.43327388384636395,-5.584111975794757,-28.951049586713914,40.52495301662974
0.34560195147432327,-5.068364404941025,-0.48911500360431154,-5.17886244562846,-27.36169850369953,42.01256062732745
0.29491830742491304,-5.34198138997802,-0.5409036280605961,-4.758736839355185,-25.849971523967564,43.55023399561014
0.24149849352513283,-5.600481105217696,-0.5884909964541479,-4.323234499399084,-24.4548651578702,45.08951079718749
0.18549368247295586,-5.845029756796398,-0.6317233414481388,-3.872339391427209,-23.212893547902773,46.584933625351084
0.12704338490499187,-6.077158692275426,-0.6704467353624108,-3.4064900551736983,-22.155519258540583,47.99346325770611
0.0662717979822376,-6.298713884860832,-0.7045116359141478,-2.9265554225966373,-21.3052861243793,49.271387209877055
0.0032846591336292835,-6.511766746104625,-0.7337771901401141,-2.4338415504978665,-20.670188180886587,50.36780376995448
-0.06183300832741696,-6.718468627913491,-0.7581156056450927,-1.9301635127983219,-20.235379368014403,51.21330217170938
-0.12901769460655188,-6.920822421593635,-0.777417240773076,-1.418030491081228,-19.95089469536554,51.70203264874404
-0.19822591882248825,-7.120331368547291,-0.7915975456838882,-0.9010101645937877,-19.713902480944085,51.66537562344162
-0.26942923250796114,-7.317470393356731,-0.800607647329826,-0.38435640835937146,-19.34497730878634,50.83707897317148
-0.3426039364415284,-7.510920166444595,-0.8044512114134198,0.12401438137234333,-18.561911237793264,48.815798061113156
-0.4177131381059744,-7.696539278822527,-0.8032110675996964,0.6121723619834749,-16.965037343937908,45.04619734377635
-0.49467853089419966,-7.866189652261906,-0.7970893439798616,1.0626343354212384,-14.067613268476284,38.86777344512287
-0.5733404274168188,-8.006865784946669,-0.7864630006256492,1.451312069872467,-9.425339720132836,29.70918262828744
-0.6534090852662855,-8.101119182147997,-0.7719498799269245,1.7484038961553414,-2.900965557787349,17.477842106483738
-0.7344202770877655,-8.13012883772587,-0.7544658409653712,1.9231823172201787,5.02361853427232,3.014309298953987
-0.8157215654650242,-8.079892652383148,-0.7352340177931694,1.9533254102097186,13.174485553475115,-11.807310582177214
-0.8965204919888556,-7.948147796848397,-0.7157007636910723,1.8352523043879465,20.11603384612275,-24.71862862325064
-0.9760019699573396,-7.746987458387169,-0.6973482406471928,1.58806601815544,24.866860078968177,-34.12226960874125
-1.0534718445412112,-7.4983188575974875,-0.6814675804656384,1.2468433220680275,27.283452046547254,-39.68070736230255
-1.128455033117186,-7.2254843371320145,-0.6689991472449581,0.850036248445002,27.858713127668953,-42.043641957762205
-1.2007098764885062,-6.946897205855325,-0.660498784760508,0.42959982886737996,27.281337454658487,-42.20469431548075
-1.2701788485470595,-6.67408383130874,-0.6562027864718343,0.007552885712572455,26.13488408663085,-41.04502881593507
-1.336919686860147,-6.412734990442431,-0.6561272576147086,-0.40289740244677824,24.808159509229235,-39.18255628813922
-1.4010470367645713,-6.164653395350138,-0.6601562316391764,-0.7947229653281704,23.521271323130236,-36.995749731313985
-1.4626935707180726,-5.929440682118836,-0.668103461292458,-1.1646804626413103,22.38048679081926,-34.696290879616164
-1.5219879775392609,-5.705635814210643,-0.6797502659188711,-1.511643371437472,21.42471960806529,-32.39408241883493
-1.5790443356813673,-5.4913886181299905,-0.6948666996332459,-1.8355841956258212,20.65643382312847,-30.141834790646744
-1.6339582218626671,-5.2848242798987055,-0.713222541589504,-2.137002543532289,20.059993380691733,-27.962208247681527
-1.6868064646616543,-5.084224346091788,-0.7345925670248269,-2.416624626009104,19.611889603921107,-25.863256132229928
-1.7376487081225722,-4.888105450052577,-0.7587588132849179,-2.6752571873314035,19.286208692654053,-23.846783065854513
-1.786529762623098,-4.695243363126036,-0.7855113851582319,-2.9137250179899485,19.05745373121396,-21.912628183804166
-1.8334821962543584,-4.504668825813897,-0.8146486353381315,-3.13285129982799,18.90194229942717,-20.060676380421008
-1.8785288845124974,-4.315649402819625,-0.8459771483364114,-3.3334580636322,18.79845230522829,-18.29163602954787
-1.9216853785406938,-4.127664879767343,-0.8793117289727334,-3.516374423927679,18.72847501032632,-16.6071711650961
-1.9629620273383672,-3.9403801296640797,-0.9144754732120102,-3.68244613557864,18.676261881350392,-15.009718900406515
-2.002365828635008,-3.753617510850576,-0.9512999345677966,-3.832543324582705,18.628759925609398,-13.502177473424867
-2.0399020037435136,-3.5673299115944817,-0.9896253678136236,-3.967565099316954,18.57548254708122,-12.087567784664682
-2.0755753028594586,-3.3815750861236693,-1.0293010188067933,-4.0884407771636,18.508339294543127,-10.768723765994187
-2.1093910537206955,-3.196491693178238,-1.0701854265784292,-4.196128014823542,18.421436843405047,-9.548038926280718
-2.141355970652478,-3.012277324744187,-1.1121467067266646,-4.291608404086349,18.310858917397905,-8.427279517898528
-2.17147874389992,-2.829168735570208,-1.1550627907675282,-4.375881199265335,18.1744312047054,-7.407464359081715
-2.199770431255622,-2.647424423523154,-1.1988216027601815,-4.449955842856152,18.011476819462693,-6.488804909086499
-2.2262446754908534,-2.4673096553285268,-1.243321161188743,-4.5148438919470175,17.822567553049296,-5.670695301710021
-2.2509177720441387,-2.2890839797980336,-1.288469600108213,-4.571550844964118,17.60927560062279,-4.951739842587425
-2.273808611842119,-2.1129912237918056,-1.3341851085578542,-4.621068243389992,17.373929469607408,-4.329804402161267
-2.2949385240800373,-1.9392519290957315,-1.3803957909917541,-4.664366287411605,17.119376365879656,-3.80207777548597
-2.3143310433709945,-1.768058165436935,-1.4270394538658702,-4.702387065166465,16.848751577850525,-3.3651291068371303
-2.332011625025364,-1.5995706496584297,-1.4740633245175347,-4.736038356234836,16.565253346341635,-3.014947637078692
-2.348007331521948,-1.4339181161950134,-1.5214237080798831,-4.766187832605623,16.271919554212502,-2.746951153233394
-2.362346512683898,-1.2711989206528884,-1.5690855864059394,-4.793657344137957,15.971400470128462,-2.555949551441674
-2.375058501890427,-1.1114849159516038,-1.617022159847319,-4.819216839652373,15.665719996363837,-2.4360500044903124
-2.386173351049943,-0.9548277159879655,-1.6652143282438425,-4.843577339697276,15.356016827596969,-2.3804907923833194
-2.395721628209823,-0.8012675477119957,-1.7136501016408152,-4.8673822476211095,15.042257344362376,-2.3813928175890067
-2.4037343036869427,-0.650844974268372,-1.7623239241170263,-4.891196175797,14.72291512147656,-2.4294227937995028
-2.4102427534296265,-0.5036158230536063,-1.8112358858749964,-4.915490403734995,14.394619460129256,-2.5133726371472345
-2.4152789116601627,-0.35966962845231376,-1.8603907899123464,-4.9406241301064675,14.051789952835296,-2.619679403835988
-2.418875607944686,-0.2191517289239608,-1.9097970312134112,-4.966820924144828,13.68629895471719,-2.731943824189707
-2.4210671252339258,-0.08228873937678888,-1.9594652404548594,-4.994140362386725,13.28724183177331,-2.8305573890691416
-2.4218900126276934,0.05058367894094423,-2.0094066440787266,-5.022445936277416,12.840946175898985,-2.8926188381296387
-2.421384175838284,0.17899314069993408,-2.0596311034415007,-5.051372124658712,12.33140874164728,-2.8924017230311954
-2.419594244431285,0.30230722811640687,-2.1101448246880876,-5.080296141889025,11.741391484453475,-2.8026970224357064
-2.416571172150121,0.41972114296094165,-2.160947786106978,-5.108323112113382,11.054394003598544,-2.597341521641564
-2.4123739607205117,0.5302650829969271,-2.212031017228112,-5.134296527329798,10.257588566764221,-2.25507042227072
-2.4070713098905423,0.6328409686645693,-2.26337398250141,-5.156847231552505,9.345501271973744,-1.7644248127925781
-2.4007429002038965,0.7262959813843067,-2.314942454816935,-5.174491479680431,8.323758364143355,-1.1288112590132275
-2.3934799403900535,0.8095335650257403,-2.3666873696137394,-5.185779592270563,7.2117388252717145,-0.3701524320531925
-2.385384604739796,0.8816509532784574,-2.418545165536445,-5.189481116591096,6.042790718922289,0.47069534051954354
-2.3765680952070114,0.9420788604676803,-2.4704399767023557,-5.1847741631859,4.861109549075028,1.3379956396116912
-2.3671473066023347,0.9906899559584306,-2.5222877183342147,-5.171394206789784,3.7154967352590083,2.1693813801109196
-2.3572404070427506,1.0278449233110207,-2.5740016604021125,-5.149700392988675,2.6515618462665698,2.9062016054573827
-2.3469619578096403,1.0543605417736863,-2.625498664331999,-5.1206383769341,1.704712554163513,3.5028125352249835
-2.3364183523919033,1.0714076673153214,-2.67670504810134,-5.08561025158185,0.8959500600160581,3.9321083875234395
-2.32570427571875,1.080367167915482,-2.7275611506171584,-5.046289167706616,0.23124748713924934,4.1862702991480045
-2.3149006040395954,1.0826796427868746,-2.7780240422942244,-5.004426464715136,-0.29608879703578705,4.273567224991743
-2.3040738076117266,1.0797187548165168,-2.828068306941376,-4.961690792465219,-0.7014674833942458,4.213093861292146
-2.2932766200635615,1.0727040799825744,-2.877685214866028,-4.919559853852297,-1.0048772842429963,4.029327377849231
-2.2825495792637356,1.0626553071401446,-2.926880813404551,-4.879266580073804,-1.2274949518587968,3.747721474363771
-2.271923026192334,1.0503803576215567,-2.9756734792052892,-4.8417893653301665,-1.3893900488932291,3.391781945545339
-2.2614192226161185,1.0364864571326244,-3.024091372858591,-4.807871545874713,-1.5082685706976633,2.98152087248892
-2.2510543580447924,1.0214037714256479,-3.072170088317338,-4.778056337149824,-1.5990039092439694,2.532937053371344
-2.240840320330536,1.0054137323332082,-3.1199506516888365,-4.752726966616111,-1.6736718048677577,2.0581374865603212
-2.2307861830072038,0.9886770142845306,-3.1674779213549975,-4.732145591750507,-1.7418557242625807,1.5657884330036256
-2.2208994128643584,0.9712584570419048,-3.2147993772725028,-4.716487707420471,-1.8110614430964773,1.0616852144445565
-2.2111868282939393,0.9531478426109401,-3.2619642543467076,-4.705870855276026,-1.887144144424795,0.5493175643483258
-2.20165534986783,0.9342764011666922,-3.309022962899468,-4.700377679632543,-1.9746981875327274,0.030369846273659764
-2.192312585856163,0.9145294192913649,-3.3560267396957935,-4.7000739811698065,-2.0773893993192325,-0.4948656334731784
-2.183167291663249,0.8937555252981726,-3.4030274795074917,-4.7050226375045385,-2.1982264631859456,-1.0271625331937042
-2.1742297364102674,0.8717732606663131,-3.450077705882537,-4.715294262836475,-2.3397761423258547,-1.5681117042219284
-2.165512003803604,0.8483754992430546,-3.497230648510902,-4.730975379878695,-2.5043301189904055,-2.1199361211679215
-2.157028248811174,0.8233321980531505,-3.5445404023096887,-4.752174741090374,-2.6940314708658417,-2.685355504961625
-2.148794926830642,0.7963918833444921,-3.5920621497205922,-4.77902829613999,-2.9109676377664147,-3.2674876518754616
