th1 (rad),w1 (rad/s),th2 (rad),w2 (rad/s)
0.09006386731933075,0.931728160960396,0.4170016802404406,0.24949907046321781
0.09938114892893471,0.9523975048635956,0.41949667094507276,0.18744461880792063
0.10890512397757067,0.9717428532848101,0.42137111713315195,0.1263122466870956
0.11862255251041877,0.9896965794997582,0.4226342396000229,0.06624190282759918
0.12851951830541636,1.0061869859909873,0.4232966586282989,0.007379453615392308
0.13858138816532622,1.0211380725544068,0.4233704531644528,-0.05012337411045901
0.1487927688908703,1.034469476077964,0.4228692194233482,-0.10610927785043958
0.15913746365164994,1.04609660674763,0.4218081266448438,-0.1604159219726187
0.16959842971912623,1.0559310046140298,0.4202039674251176,-0.21287676689263288
0.18015773976526653,1.0638809377427723,0.4180751997561913,-0.2633222099706068
0.19079654914269426,1.0698522581574346,0.4154419776564852,-0.31158105615877885
0.20149507172426862,1.073749524140073,0.41232616709489744,-0.3574823257923097
0.21223256696566933,1.075477387021038,0.40875134383697437,-0.4008573924720296
0.2229873408358797,1.0749422274624987,0.40474276991225405,-0.44154242590705595
0.2337367631105047,1.0720540108495553,0.4003273456531835,-0.4793810935032642
0.24445730321900025,1.0667283145768838,0.3955335347181509,-0.514227451587728
0.2551245863647691,1.0588884629977489,0.3903912602022736,-0.5459489342054531
0.26571347099474657,1.0484676901886747,0.38493177086021907,-0.5744293266627847
0.27619814789663333,1.0354112383118548,0.3791874775935912,-0.5995715949777619
0.2865522602797519,1.0196782920834913,0.3731917616438136,-0.6213004336933678
0.2967490432005868,1.0012436492805625,0.36697875730687995,-0.6395643952973704
0.30676147969339246,0.9800990343917001,0.36058311335390625,-0.6543374761618689
0.3165624700373095,0.9562539776803471,0.35403973859228755,-0.6656200567046293
0.32612500981411296,0.9297362043498407,0.34738353802524125,-0.6734391262529934
0.33542237185761137,0.9005915064712096,0.3406491467627113,-0.6778477633618281
0.34442828692232347,0.8688831013349376,0.333870669129093,-0.6789238864817201
0.35311711793567285,0.8346905109147081,0.32708143026427583,-0.6767683336256551
0.36146402304481995,0.7981080251305531,0.3203137469280193,-0.6715023687397109
0.36944510329612545,0.7592428339169099,0.31359872324062216,-0.6632647431428306
0.3770375316352946,0.7182129278600843,0.30696607580919383,-0.652208460084178
0.3842196609138954,0.6751448734967805,0.300443991208352,-0.6384973980336266
0.3909711096488632,0.6301715674371094,0.29405901722801575,-0.6223029441204336
0.3972728253232343,0.5834300643845053,0.2878359877868114,-0.6038007748063605
0.40310712596707937,0.5350595596161504,0.2817979800387478,-0.5831678989699159
0.4084577215632409,0.4851995886301689,0.2759663010490486,-0.5605800520749111
0.4133097174495426,0.4339884875325528,0.2703605005282995,-0.5362095019687283
0.41764960232486814,0.3815621391432295,0.26499840550861226,-0.5102232996890822
0.42146522371630046,0.328053013138211,0.2598961725117214,-0.48278198441989595
0.4247457538476826,0.273589494710865,0.2550683526675225,-0.45403873168231035
0.4274816487947912,0.21829548564827883,0.2505279653506994,-0.4241389185439879
0.429664603651274,0.16229025439085187,0.2462865761652595,-0.39322006906805146
0.4312875061951825,0.10568850728517307,0.242354375474579,-0.3614121369632706
0.43234439126803426,0.048600651370733924,0.2387402541049463,-0.3288380797307211
0.4328303977817416,-0.008866780913942718,0.2354518733076391,-0.2956146786920655
0.4327417299726022,-0.06661057334964696,0.23249572652071843,-0.2618535612765635
0.4320756242391057,-0.12453015997732836,0.22987719090795278,-0.2276623850428692
0.43083032263933246,-0.18252687521800975,0.22760056705752407,-0.19314614642634642
0.4290050538871524,-0.24050314138674364,0.22566910559326062,-0.15840858056469725
0.42660002247328493,-0.29836161298364705,0.22408501978761364,-0.12355362132034606
0.42361640634344844,-0.35600429585233095,0.22284948357441017,-0.088686892459753
0.42005636338492514,-0.41333165879980915,0.22196261464981265,-0.053917201644893026
0.41592304679692704,-0.47024175566394294,0.22142344263336372,-0.01935800831273666
0.4112206292402876,-0.526629377123943,0.22122986255023636,0.014871165372663739
0.4059543354690482,-0.5823852537413328,0.22137857420396298,0.04864341445810529
0.40013048293163483,-0.6373953346861038,0.22186500834854403,0.08182326023516796
0.3937565295847738,-0.6915401701541539,0.2226832409508957,0.11426563163375625
0.38684112788323227,-0.7446944293257561,0.22382589726723326,0.14581506768408403
0.37939418358997473,-0.7967265894426496,0.2252840479440741,0.176305194994356
0.37142691769554825,-0.8474988346574042,0.22704709989401767,0.20555853844445618
0.3629519293489742,-0.8968672050688216,0.22910268527846223,0.23338672560058935
0.35398325729828595,-0.9446820360277746,0.23143655253446813,0.259591144591602
0.34453643693800823,-0.990788724542766,0.23403246398038416,0.2839641101438532
0.33462854969258055,-1.0350288526165894,0.2368721050818227,0.3062905819646399
0.32427826116641467,-1.0772416859279745,0.2399350109014691,0.32635046271212925
0.3135058443071349,-1.1172660500548093,0.2431985155285904,0.34392147883629065
0.3023331838065868,-1.154942565511918,0.2466377303169533,0.35878261674497103
0.2907837581514676,-1.1901161979832224,0.25022555648440303,0.37071805009209036
0.2788825961716354,-1.2226390527663464,0.2539327369853239,0.3795214536522715
0.26665620564397197,-1.2523733149053613,0.25772795152184663,0.3850005585269343
0.2541324724949183,-1.2791942117179889,0.26157795710711595,0.38698176657757266
0.24134053037773845,-1.3029928557531623,0.26544777477289166,0.3853146138109903
0.22831060182020682,-1.3236788168847067,0.26930092091100155,0.3798758576574513
0.21507381365135975,-1.3411822748491602,0.2730996794875761,0.37057296548704743
0.20166199090286815,-1.3554556194447434,0.27680540914244656,0.3573468033775904
0.18810743470842073,-1.3664743945418292,0.28037887717622245,0.340173364791868
0.17444269076300245,-1.3742375218946115,0.28378061082414113,0.3190644355231541
0.16070031554405634,-1.3787667876992296,0.28697125517937266,0.29406715869128364
0.14691264766706405,-1.3801056239663885,0.2899119267662855,0.2652625346852522
0.13311159142740017,-1.3783172627288287,0.29256455211313803,0.23276295811152448
0.11932841880011189,-1.3734823790242905,0.2948921816942533,0.1967089500023919
0.10559359500986898,-1.3656963648627558,0.29685927119427724,0.1572652834697892
0.09193663136124142,-1.3550663891236916,0.2984319240289751,0.11461672181039287
0.0783859674700045,-1.3417083975391682,0.29957809124707907,0.0689635896042074
0.06496888349461281,-1.3257441942790777,0.30026772714312117,0.020517381822426954
0.051711441551822036,-1.3072987250390324,0.30047290096134543,-0.030503412672183976
0.038638454301431716,-1.2864976544067983,0.3001678668346236,-0.0838771337431582
0.02577347775736373,-1.2634653011194104,0.299329095497192,-0.13938231948576868
0.013138824746169626,-1.2383229666261624,0.2979352723023343,-0.1968005627316337
0.0007555950799080016,-1.2111876673964532,0.29596726667501794,-0.25591882984296066
-0.01135628159405653,-1.1821712610556872,0.29340807837658833,-0.31653124604634963
-0.023177994204613403,-1.1513799412918746,0.29024276591612486,-0.3784403733727904
-0.03469179361753215,-1.1189140664883828,0.28645836218239695,-0.4414580219534989
-0.04588093428241598,-1.0848682816787123,0.28204378196286195,-0.5054056436456662
-0.0567296170992031,-1.0493318918902823,0.2769897255264053,-0.5701143598000427
-0.06722293601810592,-1.0123894463415073,0.2712885819284048,-0.6354246736718678
-0.077346830481521,-0.9741214963886359,0.26493433519168613,-0.7011859137508342
-0.08708804544540735,-0.9346054947837272,0.2579224760541778,-0.7672554482622984
-0.09643410039324463,-0.8939168090265579,0.2502499215715548,-0.8334977042186877
-0.10537326848351021,-0.8521298268280165,0.2419149445293679,-0.8997830174422207
-0.11389456675179038,-0.8093191365274276,0.2329171143549457,-0.9659863335363379
-0.12198775811706467,-0.7655607693936702,0.22325725101958233,-1.0319857743181509
-0.12964336581100136,-0.720933493829072,0.21293739327640082,-1.0976610801077782
-0.13685270074929207,-0.6755201533634211,0.20196078247532304,-1.1628919358175556
-0.14360790228292628,-0.6294090407647179,0.19033186311714748,-1.2275561882889936
-0.14990199269057344,-0.582695299391874,0.17805630123425753,-1.2915279640869208
-0.1557289456844922,-0.535482339849646,0.1651410215933883,-1.3546757012947421
-0.16108376908298866,-0.487883254848105,0.1515942645804409,-1.4168601160917254
-0.1659626016314697,-0.44002220770208655,0.13742566341952364,-1.477932135349571
-0.17036282370849057,-0.39203575996913054,0.12264634206602792,-1.5377308404113503
-0.17428318130818188,-0.34407409127669997,0.10726903366191443,-1.5960814847058786
-0.17772392222094888,-0.29630204960531853,0.09130821881485564,-1.6527936687147897
-0.18068694271700206,-0.2488999536873547,0.07478028212770774,-1.7076597794024344
-0.1831759422538756,-0.20206405175257716,0.05770368433368339,-1.7604538262328417
-0.18519658277140136,-0.15600652424548433,0.04009914607135497,-1.810930830144797
-0.1867566480138562,-0.1109549047738066,0.021989837769907,-1.8588269420770889
-0.18786619706159427,-0.06715078666755092,0.003401568349136113,-1.9038604794165788
-0.18853770492826977,-0.024847686108131928,-0.015637036445029676,-1.945734066628736
-0.18878618178935108,0.01569204880190729,-0.035094377111317035,-1.9841380442714234
-0.188629261301332,0.05420135629614999,-0.05493575755403127,-2.018755262807176
-0.18808724773837052,0.09041362060292266,-0.07512331018210303,-2.049267299954301
-0.1871831115323413,0.12406880568122355,-0.09561598318164603,-2.075362031946012
-0.18594242347552906,0.15492039556925233,-0.11636960350110616,-2.0967423543898454
-0.18439321951983653,0.18274286331402972,-0.1373370270450046,-2.11313569845161
-0.18256579088669622,0.20733928282641323,-0.1584683840295207,-2.124303840791962
-0.1804923980584321,0.22854861064231546,-0.17971142243744032,-2.1300523845155706
-0.17820691195200894,0.24625211608021277,-0.20101194628259603,-2.1302392187184735
-0.17574439079120682,0.2603784445945853,-0.22231433846978077,-2.124781267900944
-0.17314060634526096,0.2709068690118281,-0.2435621511487902,-2.1136589318061385
-0.17043153765514268,0.2778684148028815,-0.2646987404668516,-2.0969177888199577
-0.16765285350711387,0.28134472445768,-0.2856679183550512,-2.0746673731006777
-0.16483940626253707,0.28146472789135496,-0.3064145920860579,-2.0470771041747398
-0.1620247589836235,0.278399380618705,-0.3268853631278053,-2.01436970736376
-0.15924076517743646,0.27235489025458787,-0.3470290602014429,-1.976812675054983
-0.15651721627489057,0.2635649532857232,-0.36679718695199276,-1.9347084535735504
-0.15388156674203335,0.25228255827763124,-0.3861442714877283,-1.8883840852035314
-0.15135874115925704,0.23877188164738394,-0.4050281123397636,-1.838180993797559
-0.1489710223427832,0.22330072115127603,-0.4234099222777392,-1.7844454934771068
-0.14673801513127044,0.20613379962190068,-0.44125437721251026,-1.7275204492663023
-0.14467667713505142,0.18752714767248732,-0.4585295817051733,-1.6677383536273764
-0.14280140565832655,0.1677236565859136,-0.475206965241447,-1.6054159272368531
-0.14112416909246742,0.14694979365496683,-0.49126112451381554,-1.5408502222041334
-0.13965467115591776,0.12541339817023042,-0.5066696267358569,-1.4743161095339052
-0.13840053717421547,0.10330242822180404,-0.5214127878311959,-1.406064971254021
-0.13736751289199742,0.08078450394216777,-0.5354734375437361,-1.336324387606171
-0.13655966785257573,0.05800708713651065,-0.5488366814197978,-1.2652986046265053
-0.13597959698121062,0.035098145099267744,-0.5614896674660629,-1.193169580072344
-0.13562861553021793,0.012167162768158518,-0.5734213632667863,-1.1200984291852163
-0.13550694390253634,-0.010693611967597497,-0.5846223475586384,-1.0462271206169076
-0.1356138800222123,-0.033407783144876364,-0.5950846187648074,-0.9716803028313207
-0.13594795785366107,-0.0559133542201692,-0.6048014217931207,-0.896567169671785
-0.13650709139586276,-0.0781612618783902,-0.6137670934898385,-0.820983298959856
-0.13728870401464666,-0.10011393389017179,-0.621976926479437,-0.7450124192584784
-0.13828984335354838,-0.12174389567623095,-0.6294270506720219,-0.6687280771860209
-0.13950728231031068,-0.14303243989393433,-0.6361143314438821,-0.5921951911777646
-0.14093760670925,-0.16396836543235288,-0.6420362833556598,-0.5154714878245077
-0.14257729036357353,-0.1845467863076643,-0.6471909982339048,-0.43860882441466303
-0.14442275822665018,-0.20476800670675632,-0.6515770864780515,-0.36165440660263165
-0.14647043829371775,-0.22463645548074201,-0.6551936305440778,-0.28465191370874665
-0.14871680284852518,-0.2441596714384304,-0.6580401496811652,-0.2076425464395344
-0.15115839956290947,-0.26334732958493606,-0.6601165751455605,-0.1306660131376018
-0.15379187285875884,-0.2822102978004933,-0.6614232352769366,-0.053761471287137694
-0.15661397583676376,-0.3007597132192556,-0.661960849989808,0.02303155889870094
-0.15962157296895632,-0.31900606765499995,-0.661730534400821,0.0996722922754121
-0.16281163364550633,-0.3369582917807589,-0.6607338114780669,0.17611777203833656
-0.16618121656331392,-0.354622828392272,-0.6589726337576836,0.25232194349391507
-0.16972744484723665,-0.37200268599717146,-0.6564494143227444,0.328234694648678
-0.17344747170720837,-0.3890964652343949,-0.6531670673762576,0.40380085166192947
-0.17733843635955232,-0.40589735233684054,-0.6491290588596383,0.4789591195033224
-0.18139740988292072,-0.4223920761331658,-0.6443394676646051,0.5536409611932673
-0.18562133064425237,-0.43855982810126243,-0.6388030580526725,0.6277694129993444
-0.190006928925265,-0.45437114892218133,-0.632525363922679,0.7012578381692578
-0.1945506404144868,-0.469786790042515,-0.6255127855409864,0.7740086284791466
-0.19924850831491195,-0.4847565651405252,-0.6177726992561949,0.8459118713480882
-0.2040960739663172,-0.4992182142874657,-0.609313580542714,0.9168440107677974
-0.20908825610919188,-0.51309631311802,-0.6001451404350361,0.986666542990077
-0.21421921924037207,-0.5263012704708777,-0.5902784750051353,1.0552248028143634
-0.21948223194508085,-0.5387284705373551,-0.5797262269769917,1.1223469131757962
-0.2248695166504544,-0.5502576290829826,-0.5685027578452337,1.1878429889192759
-0.23037209294128422,-0.5607524469167634,-0.556624327956041,1.2515047040018605
-0.23597961741045184,-0.5700606561199157,-0.5441092809160224,1.3131053480784147
-0.241680223971651,-0.5780145636945373,-0.5309782274352383,1.372400510916989
-0.24746036960859638,-0.584432200770017,-0.5172542223260683,1.429129538013534
-0.25330469161629654,-0.5891191803703294,-0.502962926945933,1.483017894159306
-0.25919588341999983,-0.5918713498778787,-0.48813274800434,1.5337805493425765
-0.2651145969187786,-0.592478292919439,-0.4727949425109142,1.5811264594463414
-0.271039379847973,-0.5907276876586207,-0.4569836779164508,1.6247641503354484
-0.2769466567245592,-0.586410464512139,-0.4407360364130963,1.6644083282903668
-0.2828107613696806,-0.5793266289918034,-0.4240919531301926,1.699787336298346
-0.28860402765959864,-0.5692915309944293,-0.4070940797672091,1.730651163046323
-0.29429694296954295,-0.5561422801719162,-0.3897875681367459,1.7567796028693778
-0.2998583657712621,-0.539743940432511,-0.3722197721080521,1.777990077273397
-0.30525580517558726,-0.5199950984163769,-0.3544398713353182,1.7941445799261062
-0.310455756159751,-0.4968324023875243,-0.33649842553605713,1.8051552125537238
-0.3154240801836263,-0.47023371598909525,-0.3184468734105199,1.8109878476480723
-0.3201264173435172,-0.4402196249940586,-0.3003369949340392,1.8116635838652162
-0.3245286135934578,-0.4068531654243219,-0.28222035909538706,1.807257838590468
-0.328597145247701,-0.37023779164563597,-0.26414778070948236,1.7978971263909806
-0.33229952316415734,-0.3305137522739978,-0.24616880944557257,1.7837537731318471
-0.3356046606868973,-0.2878531688498352,-0.2283312717142541,1.7650389846620347
-0.33848319237539565,-0.24245420049032892,-0.21068088186763376,1.7419948036510053
-0.3409077343802989,-0.19453471796640984,-0.1932609338311237,1.714885536456646
-0.342853081559963,-0.14432590253908112,-0.17611207846655724,1.683989214078837
-0.34429634058535385,-0.09206613593675281,-0.15927218632576887,1.6495895782422405
-0.3452170019447214,-0.037995470778993755,-0.14277629054334645,1.6119689733824674
-0.34559695665251133,0.0176491198240816,-0.1266566008095218,1.571402398095863
-0.3454204654542705,0.07463760532810389,-0.11094257682856316,1.5281528440151664
-0.3446740894009895,0.13274984549591945,-0.0956610483884115,1.482467940108811
-0.34334659094603026,0.19177765839485528,-0.08083636898732338,1.4345778344005202
-0.3414288143620817,0.2515260887159106,-0.06649059064331818,1.384694185984198
-0.33891355347492264,0.31181398263367105,-0.0526436487834762,1.3330101066512223
-0.33579541364858595,0.37247398594176906,-0.03931354771696398,1.279700879442423
-0.33207067378916827,0.4333520807413174,-0.02651653892253975,1.224925285737651
-0.3277371529817551,0.49430676632800497,-0.01426728606516324,1.1688273877478133
-0.32279408531847503,0.5552079755191549,-0.0025790121876851074,1.1115386347394036
-0.31724200556328347,0.6159358012222139,0.00853637415970893,1.0531801852284568
-0.31108264755106135,0.6763790915784694,0.019068176011993496,0.9938653609965393
-0.30431885663527664,0.736433956861594,0.02900682962195889,0.9337021703085248
-0.2969545170666607,0.796002218272863,0.038343851325044136,0.8727958561005316
-0.2889944948839321,0.854989818264752,0.04707180988604945,0.811251439643734
-0.2804445967012846,0.9133052041983235,0.05518432428248679,0.7491762411068245
-0.27131154465930135,0.9708576920115816,0.06267608669355504,0.6866823655537881
-0.2616029677391855,1.0275558141021337,0.06954291034909292,0.6238891463114256
-0.2513274095981642,1.0833056557620833,0.07578180181220717,0.560925537404525
-0.24049435304054334,1.1380091872268234,0.08139105718625242,0.4979324429245027
-0.2291142611682751,1.191562603724381,0.08637038161549744,0.4350649637621653
-0.2171986351310313,1.243854693862305,0.09072103125311909,0.37249453107333985
-0.20476008819240826,1.2947652672573644,0.0944459765638525,0.3104108811820944
-0.19181243551983462,1.3441636853907515,0.09755008537567343,0.24902380853391237
-0.17837079866592712,1.391907554951068,0.10004032346101256,0.18856461225219487
-0.16445172311641643,1.4378416597812387,0.1019259695835345,0.12928712874953513
-0.15007330651860404,1.48179722488441,0.10321884087102985,0.07146821928426386
-0.13525533426975994,1.523591622076626,0.10393352306387249,0.015407559773359766
-0.12001941804899369,1.563028639399418,0.10408759866160609,-0.03857343597993591
-0.10438913165499951,1.599899442187227,0.10370186430180674,-0.09013373473434341
-0.08839013723312725,1.6339843489766894,0.1028005269544633,-0.13891601004864407
-0.07205029374336036,1.6650555262410396,0.10141136685397686,-0.18455131256452825
-0.055399738480949964,1.692880668602348,0.09956585372833159,-0.22666516476886794
-0.038470931794926486,1.7172276733963627,0.09729920208064291,-0.26488507572662684
-0.02129865506096286,1.737870240383611,0.09465035132337664,-0.29884935760760833
-0.00391995265712675,1.754594232790028,0.09166185774730055,-0.3282169890474702
0.013625989670773529,1.7672045329459203,0.08837968785682584,-0.3526781224589609
0.03129803500023273,1.775532027284559,0.08485290663223624,-0.3719646917007884
0.049053355273078324,1.7794402773969913,0.08113325971522836,-0.38586046607380153
0.06684775804704823,1.778831393048996,0.07727465505449034,-0.39420984056109
0.0846360719775382,1.77365063353738,0.07333255664887944,-0.3969246705198741
0.102372578312912,1.7638893326791674,0.0693633099436807,-0.39398856181164926
0.12001147163970366,1.7495858673707874,0.06542342432556421,-0.38545821053387125
0.13750733031341153,1.7308245563935223,0.061568842220225496,-0.37146163033912605
0.15481557587734676,1.7077325622355868,0.057854225916834236,-0.35219337697853836
0.17189290149970263,1.6804750467522331,0.05433229214704885,-0.3279071396843281
0.18869765196722496,1.649248975383395,0.05105322075020557,-0.2989062796482852
