th1 (rad),w1 (rad/s),th2 (rad),w2 (rad/s)
1.517713108884542,-0.011509336653078418,2.050557912743408,0.24974256070456768
1.517598015518011,-0.10731047782432182,2.0530553383504535,0.24532539048595245
1.5165249107397678,-0.20307375687544493,2.055508592255313,0.24080339148018412
1.5144941731710133,-0.29869670122005726,2.057916626170115,0.2359469918255103
1.5115072061588128,-0.3940768977708513,2.06027609608837,0.23052469996675495
1.5075664371811044,-0.4891119447147343,2.0625813430880378,0.2243028130565674
1.5026753177339571,-0.5836994766941114,2.0648243712186036,0.21704526071457184
1.496838322967016,-0.677737272667953,2.066994823825749,0.20851361337657898
1.4900609502403364,-0.7711234500209949,2.069079959959515,0.1984672763271643
1.4823497157401264,-0.8637567419578234,2.0710646327227864,0.18666388110484755
1.4737121483205482,-0.9555368482176625,2.072931271533835,0.17285987578675016
1.4641567798383717,-1.0463648421000271,2.0746598702917027,0.15681130528427076
1.4536931314173713,-1.1361436101708593,2.0762279833445456,0.13827476286746873
1.4423316953156626,-1.2247782953055406,2.07761073097322,0.11700848536239525
1.4300839123626072,-1.3121767093729835,2.078780815826844,0.09277355747852818
1.4169621452688774,-1.3982496792543488,2.0797085514016294,0.065335186071427
1.402979648476334,-1.4829112892856813,2.0803619032623435,0.034464003217316797
1.3881505355834771,-1.566078984731695,2.0807065432945167,-6.264205165550096e-05
1.3724897457361602,-1.6476735044865027,2.0807059168740003,-0.03845943969673262
1.356013010691295,-1.7276186166384004,2.080321322477033,-0.08093195232625089
1.3387368245249112,-1.8058406374672862,2.079512002953771,-0.12767554826722594
1.3206784181502382,-1.882267722397378,2.0782352474710986,-0.1788744461926041
1.3018557409262645,-1.9568289258846074,2.0764465030091723,-0.23470087341109785
1.2822874516674185,-2.0294530356625224,2.0740994942750612,-0.29531433027759785
1.2619929213107932,-2.1000671947469653,2.071146350972285,-0.36086094469754293
1.2409922493633236,-2.168595331754688,2.06753774152531,-0.43147289404088696
1.2193062960457768,-2.2349564261999344,2.063223012584901,-0.5072678674482
1.1969567317837775,-2.2990626404083203,2.058150333910419,-0.588348539814541
1.1739661053796944,-2.360817353568563,2.0522668485122733,-0.6748020298028042
1.1503579318440087,-2.4201131363711066,2.045518828214245,-0.7666993180291474
1.1261568004802975,-2.476829706866775,2.037851835033954,-0.8640946079077272
1.1013885034116297,-2.530831909853419,2.029210888954877,-0.9670246202725852
1.0760801843130956,-2.5819677634866425,2.0195406427521507,-1.0755078234812516
1.0502605066782291,-2.6300666180860612,2.0087855645173383,-1.1895436128824137
1.0239598404973684,-2.6749374733681437,1.996890128388514,-1.3091114669154709
0.997210465763687,-2.7163675015797515,1.9837990137193593,-1.43417012130705
0.9700467907478895,-2.754120825123255,1.9694573125062889,-1.5646568174258315
0.942505582496657,-2.7879375980331913,1.9538107443320305,-1.7004866954111346
0.914626206516325,-2.817533440759693,1.936805877377919,-1.841552416717209
0.8864508721087281,-2.842599276720297,1.918390353210747,-1.9877241136686477
0.8580248793415252,-2.8628016165216796,1.8985131120740604,-2.1388497748846738
0.8293968631763083,-2.877783331123661,1.8771246143252136,-2.294756184304546
0.8006190298650717,-2.8871649480427255,1.8541770524821681,-2.45525053725958
0.7717473803846444,-2.890546494586545,1.8296245471095722,-2.6201228587496184
0.742841915438779,-2.8875098988664676,1.803423318522076,-2.7891493459029575
0.7139668164501143,-2.877621943025936,1.7755318250630465,-2.9620967476026556
0.685190597019855,-2.8604377442376907,1.74591085758702,-3.138727878488238
0.6565862195774781,-2.8355047186277624,1.7145235788021376,-3.3188083409628124
0.6282311723912004,-2.8023669632311794,1.6813354953925095,-3.5021144962602073
0.6002075027588886,-2.7605699742791336,1.6463143504299074,-3.6884426824883496
0.5726018030160972,-2.7096656108859953,1.6094299236050238,-3.877619621524508
0.5455051469072373,-2.649217217811012,1.5706537273897787,-4.069513883891018
0.5190129747291271,-2.578804848383031,1.5299585885508686,-4.264048184868317
0.4932249262452968,-2.4980305917427637,1.4873181067021854,-4.461212155225709
0.4682446203278692,-2.406524125814042,1.4427059851499284,-4.6610750478247125
0.44417937906972876,-2.3039488159127464,1.3960952346716813,-4.86379757688848
0.4211398909106013,-2.190008998516776,1.3474572589027964,-5.069641691232706
0.39923980092543354,-2.064459589566164,1.2967608419904695,-5.278976478934734
0.3785952050297719,-1.9271199240834833,1.243971077201122,-5.492277468889832
0.3593240057889371,-1.7778948957726117,1.1890483025122238,-5.710115153913083
0.34154505683121095,-1.6168081986820602,1.131947150973093,-5.933126350429894
0.3253769748443903,-1.444055005456944,1.072615887468794,-6.161958684713105
0.31093642478982086,-1.2600849877294262,1.0109963006216631,-6.397173662652172
0.2983355749125266,-1.0657313014083187,0.9470245639951413,-6.639087180120372
0.2876782618984434,-0.862406599571298,0.8806336921939376,-6.887518359062444
0.27905419590273045,-0.652391400816577,0.8117585086033132,-7.1414105622119
0.2725302818945647,-0.4392379306824663,0.7403444029811942,-7.398289208368168
0.26813790258774,-0.22829196322950698,0.6663615108975125,-7.653545448064729
0.26585498295544496,-0.02727454790961481,0.5898260564168653,-7.8996123486257845
0.2655822374763488,0.15326284221425046,0.5108299329306074,-8.125269544556351
0.2671148658984913,0.2999968318821615,0.4295772374850439,-8.315582213336086
0.2701148342173129,0.39796877054900254,0.346421415351683,-8.453225303137563
0.2740945219228029,0.43323417395820984,0.2618891623203074,-8.521783154419204
0.278426863662385,0.39667180783199785,0.17667133077611535,-8.510573368164929
0.282393581740705,0.28733220844765006,0.09156559709446606,-8.418863369612842
0.2852669038251815,0.11319082260980376,0.007376963398337641,-8.2566873824724
0.28639881205127954,-0.11141851131287844,-0.07518991042638636,-8.041382654130105
0.28528462693815076,-0.3700975470505105,-0.15560373696768742,-7.792025259329218
0.28158365146764563,-0.6480110377570492,-0.2335239895609796,-7.524915601868079
0.2751035410900751,-0.9336407127430921,-0.3087731455796604,-7.251602767232284
0.2657671339626442,-1.2189291424692024,-0.38128917325198325,-6.978991047385351
0.2535778425379521,-1.4986258191225812,-0.45107908372583677,-6.710407311617344
0.2385915843467263,-1.769467749049826,-0.5181831568420102,-6.446800757915307
0.22089690685622804,-2.029488918872168,-0.5826511644211633,-6.187714687228156
0.20060201766750635,-2.2775290820789116,-0.6445283112934448,-5.931964091850262
0.17782672684671724,-2.5129170395501035,-0.7038479522119474,-5.678069400906953
0.15269755645121622,-2.735280436983995,-0.7606286462210169,-5.4245186722708825
0.12534475208137627,-2.944438945078897,-0.8148738329437257,-5.169918376727383
0.0959003626305873,-3.1403491116110946,-0.8665730167109995,-4.913074656569407
0.06449687151447635,-3.3230795284027335,-0.9157037632766936,-4.65303182030511
0.03126607623044901,-3.4928025444736988,-0.9622340814797447,-4.3890844040914745
-0.003661949214287981,-3.6497938653722892,-1.0061249255206595,-4.120772559879527
-0.04015988786801088,-3.7944347017781563,-1.0473326511194547,-3.8478666312517733
-0.07810423488579243,-3.927213274982973,-1.0858113174319726,-3.570344582608869
-0.11737636763562216,-4.048723877949112,-1.1215147632580613,-3.2883647853172837
-0.1578636064151133,-4.1596625969343854,-1.1543984111112342,-3.00223610367468
-0.19946023238445715,-4.260819378932564,-1.184420772147981,-2.71238699775666
-0.2420684261737828,-4.353066472977929,-1.2115446421255476,-2.4193353130501603
-0.28559909090356206,-4.437343424684299,-1.2357379952560492,-2.1236604751310604
-0.32997252515040504,-4.514638784113802,-1.2569746000073598,-1.8259799185431969
-0.37511891299154304,-4.585968503236857,-1.275234399192792,-1.5269317550556802
-0.42097859802391163,-4.652350648002856,-1.2905037167433486,-1.227165955180682
-0.4675021045039402,-4.714775524269874,-1.3027753762951555,-0.9273467203954481
-0.5146498597466389,-4.774169612341622,-1.31204884349911,-0.6281693035707143
-0.5623915558700552,-4.831350836318596,-1.3183305365348172,-0.33039530491055497
-0.6107050642332411,-4.886971730662843,-1.3216344895839227,-0.03491136056425831
-0.6595747815398696,-4.941446201527472,-1.3219836031895653,0.2571831059588546
-0.7089892435551444,-4.994855265332859,-1.3194117721299767,0.5444534139565338
-0.7589377962084729,-5.046828301107211,-1.3139672379904115,0.8249688645481583
-0.809406079219545,-5.096400636950112,-1.30571754934493,1.0961066143219833
-0.8603700855890462,-5.141858275292622,-1.2947564832017102,1.354337635095722
-0.9117886683419724,-5.1805992704045325,-1.281213106850753,1.5950389585344884
-0.9635946610460177,-5.209069982474714,-1.2652627172654083,1.8124169903775118
-1.0156853608707648,-5.222867282638666,-1.2471385473616332,1.9996724743677583
-1.0679140336971515,-5.217113603050225,-1.2271418226179556,2.1495583012685238
-1.1200851697276537,-5.187170889308616,-1.2056462396052703,2.2554204230908854
-1.17195687862074,-5.129624817940047,-1.1830920353743615,2.312617356597588
-1.2232531268001403,-5.043265146091582,-1.1599658618083857,2.319919361053224
-1.2736857782610562,-4.929645773598942,-1.1367666681978534,2.280286748841355
-1.3229822359970456,-4.792905729965125,-1.11396380070944,2.2005703150613036
-1.370911293296697,-4.638883746850109,-1.0919580975588268,2.090184381750335
-1.417300130765198,-4.473917065567078,-1.0710562537413235,1.9593195202534113
-1.4620393014208688,-4.30380019085747,-1.0514630585387894,1.8173862197217805
-1.5050773033294436,-4.133178238281892,-1.0332891963415716,1.6720921463488345
-1.5464090857122625,-3.9653802562720304,-1.0165682748780833,1.5291661850478888
-1.5860628882749828,-3.802544138793719,-1.0012766130276045,1.3925173305049696
-1.62408832966292,-3.6458683438680137,-0.9873514397225548,1.2645893938766568
-1.6605470131016002,-3.4958777929789013,-0.9747055457837882,1.1467457853429113
-1.6955057910313893,-3.352649665155318,-0.9632380879303591,1.0396024710010656
-1.7290322876829425,-3.2159839748856305,-0.9528420632203485,0.9432843538620913
-1.7611921274317988,-3.0855231458897387,-0.9434092196817275,0.8576091196543262
-1.7920473588906962,-2.9608313674074664,-0.9348331284851843,0.782212886083424
-1.8216556725647708,-2.8414448497052214,-0.9270109996243501,0.7166330578534359
-1.850070121061823,-2.7269021282697183,-0.9198446690458157,0.6603613244308529
-1.87733914234452,-2.616761199256212,-0.9132410558015072,0.6128765356890387
-1.903506754337082,-2.5106082254116213,-0.9071122904446167,0.573664351111719
-1.9286128365911983,-2.4080610029948946,-0.9013756469334995,0.5422283702025338
-1.9526934466211472,-2.3087692832240445,-0.8959533632314741,0.5180958812083425
-1.9757811394533877,-2.2124132950284014,-0.8907724044193907,0.5008202829307992
-1.9979052724036717,-2.1187013201951332,-0.8857642015900826,0.4899815069530059
-2.019092285605623,-2.027366848550065,-0.8808643865205525,0.48518528656299637
-2.0393659540911235,-1.9381656324431171,-0.8760125336549226,0.4860618041261706
-2.058747610415555,-1.850872827048591,-0.8711519156136609,0.4922640448026777
-2.0772563386860408,-1.765280319356601,-0.8662292751656341,0.5034660534350971
-2.0949091418796066,-1.681194296763009,-0.8611946146312831,0.5193612078915382
-2.1117210848472365,-1.5984330744750892,-0.8560010025523678,0.5396605694837694
-2.1277054155919872,-1.5168251821668437,-0.8506043968575301,0.5640913383751991
-2.1428736674136557,-1.4362076996918542,-0.8449634834737781,0.5923954220260031
-2.157235744410574,-1.3564248261442484,-0.8390395292535181,0.6243281130554585
-2.1707999926720167,-1.2773266641997518,-0.8327962481229635,0.6596568664232642
-2.1835732593140142,-1.1987682012262342,-0.8261996794587309,0.6981601625922911
-2.1955609413262764,-1.120608469338363,-0.819218077832808,0.7396264420774442
-2.20676702601966,-1.04270986788688,-0.8118218134120335,0.7838530967039155
-2.2171941246985285,-0.9649376335085869,-0.8039832824449944,0.8306455034830802
-2.2268435010336143,-0.8871594446255456,-0.7956768274101635,0.8798160879484056
-2.2357150954798697,-0.8092451490530683,-0.7868786665306795,0.9311834048855467
-2.2438075469704004,-0.7310666050839453,-0.777566832481824,0.984571225530832
-2.2511182130212397,-0.6524976280175675,-0.7677211202265157,1.0398076214443612
-2.2576431893014153,-0.5734140355701787,-0.7573230440120721,1.0967240363662567
-2.263377329657117,-0.4936937869185949,-0.7463558036484095,1.1551543384377299
-2.268314267526303,-0.4132172112807122,-0.7348042602640322,1.214933846227281
-2.27244643963911,-0.3318673229094717,-0.7226549218017594,1.275898323070203
-2.275765112868205,-0.24953022015938564,-0.7098959385710574,1.3378829353358026
-2.2782604150697985,-0.1660955668610193,-0.6965171092176994,1.4007211714136814
-2.2799213707384087,-0.08145715459124349,-0.6825098975035626,1.4642437194918554
-2.280735942284321,0.00448645546475486,-0.6678674603086441,1.5282773036193342
-2.280691077729674,0.09183121252261171,-0.6525846872724508,1.5926434791368815
-2.2797727656044477,0.18066677999262698,-0.636658252481082,1.6571573903525088
-2.2779660978045215,0.27107566573990227,-0.620086678577557,1.7216264953594869
-2.2752553411471226,0.3631322826031663,-0.6028704136239621,1.7858492651655196
-2.271624018321091,0.45690194444166665,-0.5850119209723069,1.8496138668359423
-2.267054998876674,0.5524398048422112,-0.5665157823039475,1.9126968431554305
-2.261530600828252,0.6497897478801463,-0.5473888138723932,1.9748618043734032
-2.2550327033494506,0.7489832429931167,-0.5276401958286592,2.0358581508947067
-2.2475428709195193,0.8500381790874514,-0.5072816143197121,2.0954198492677865
-2.2390424891286447,0.9529576964317242,-0.4863274158270342,2.153264287444981
-2.2295129121643273,1.057729038660493,-0.46479477295258437,2.209091238957677
-2.2189356217777223,1.1643224512530101,-0.4427038605630076,2.262581969250632
-2.207292397265192,1.2726901570837432,-0.42007804087050127,2.3133985208147925
-2.1945654956943548,1.3827654439565773,-0.39694405566235336,2.361183216777499
-2.180737841254789,1.494461903300595,-0.37333222349457834,2.405558425055288
-2.165793222221783,1.6076728632660942,-0.34927663924402547,2.4461266268216377
-2.149716493589122,1.7222710631363183,-0.3248153729758091,2.482470833637819
-2.132493782957759,1.838108619064958,-0.2999906646394309,2.5141553968636168
-2.1141126967671093,1.955017333448021,-0.27484911067079476,2.5407272506098546
-2.094562523432629,2.072809401516683,-0.24944183816469623,2.561717625203369
-2.073834429417462,2.191278568765661,-0.22382466191266254,2.5766442615818894
-2.0519216437298056,2.310201791381107,-0.19805821929684364,2.585014147888176
-2.0288196258159945,2.4293414486829574,-0.17220807781796188,2.5863267874559592
-2.004526211329165,2.548448151546122,-0.1463448099434023,2.5800779920501076
-1.979041729813704,2.6672641836390514,-0.12054403002290122,2.565764175340162
-1.9523690879773135,2.78552760298944,-0.0948863882694996,2.542887098899223
-1.924513811947419,2.902977019799234,-0.06945751728050738,2.5109589963636365
-1.8954840417494268,3.0193570526369733,-0.04434792731687101,2.4695079707332788
-1.865290471223057,3.134424449345425,-0.019652847609538223,2.418083525308559
-1.8339462267296027,3.247954841650387,0.004527987643547369,2.356262050897126
-1.8014666783130988,3.359750084276361,0.02809060815251863,2.2836520514851952
-1.7678691774703352,3.469646111483554,0.05092712866737058,2.1998988487811673
-1.7331727163554997,3.5775212279144757,0.07292611715518225,2.1046884645775354
-1.697397504076355,3.68330473856544,0.0939730018009576,1.9977503408271307
-1.6605644566907005,3.786985817186613,0.11395050520922892,1.878858523055637
-1.6226945985188344,3.8886225165334674,0.1327390904397853,1.7478309056239585
-1.5838083733534998,3.9883508410316675,0.1502173994960249,1.6045261194500102
-1.5439248649431832,4.086393836050874,0.16626266069052498,1.448837635308369
-1.5030609265826744,4.183070701347521,0.18075103704360868,1.2806846586119967
-1.4612302195691993,4.27880601193113,0.19355788362972864,1.0999994027329498
-1.418442159449888,4.37413922911916,0.20455787765705813,0.9067103435985716
-1.3747007671586964,4.469734807654423,0.21362498109304384,0.7007210731334058
-1.3300034190821521,4.566393348684167,0.2206321918243779,0.48188437757335817
-1.2843394855953105,4.665064406261927,0.22545103560011148,0.24997116610956832
-1.2376888415326912,4.766861712780454,0.22795074726120718,0.0046338719163701025
-1.1900202244048868,4.873081718729804,0.22799708598037088,-0.25463603232149956
-1.1412894072175888,4.98522638979216,0.22545072565715588,-0.5285566509613953
-1.0914371433196672,5.105031060495059,0.22016515914754192,-0.8181103075979752
-1.0403868327147165,5.234497589130749,0.21198405607156218,-1.1246031978787359
-0.9880418568234091,5.375931651096173,0.20073802409277483,-1.4497269366063632
-0.9342825403124473,5.531979855794375,0.1862407547267112,-1.795614310260643
-0.8789627417545035,5.705655686439981,0.16828461162410477,-2.164871953686699
-0.8219061848901037,5.900329485462549,0.14663589208723776,-2.5605530231055544
-0.7629028900354782,6.1196299206356715,0.12103036185618221,-2.9859934939619173
-0.7017065908291215,6.367149736284486,0.09117042691656305,-3.444358488366822
-0.6380350934662766,6.645745864220457,0.056726842032894825,-3.9376004127852267
-0.5715776348240721,6.956048030443312,0.017350837905042556,-4.464284162405459
-0.502017154519639,7.293552807101864,-0.027292003719012033,-5.015405181092115
-0.42908162644862036,7.643597443251975,-0.07744605552993318,-5.567222361500181
-0.3526456520161006,7.974446426149965,-0.133118279144935,-6.071478755995272
-0.2729011877546009,8.232637073659244,-0.1938330667048877,-6.44894866863394
-0.1905748170180085,8.352116627714855,-0.2583225533912271,-6.602711659238736
-0.10705365074085994,8.28793270299131,-0.3243496699836145,-6.4664167557791155
-0.024174323710946855,8.05447471017496,-0.3890138375414056,-6.059128494425297
0.05637042339080274,7.719859557047989,-0.4496051224856586,-5.477896269341713
0.13356901896128265,7.358387542500052,-0.5043840851790757,-4.8302844905159334
0.20715289438628315,7.017243212519686,-0.5526869300842351,-4.186410331809622
0.27732532651148,6.715967952095735,-0.5945510334023313,-3.577374809538978
0.34448500603243737,6.458027054272884,-0.6303247814977211,-3.011234707749453
0.4090652765751662,6.239972504514588,-0.6604371285752156,-2.4859154662254364
0.47146500162031213,6.056180633432596,-0.68529628323747,-1.9960082881839525
0.5320268079546381,5.9008416375264545,-0.7052563661193095,-1.535707214430556
0.5910352243299026,5.768650846605948,-0.7206134382636151,-1.0998933049899553
0.6487217327959621,5.654964196511279,-0.7316123713135146,-0.6844338420410603
0.7052713747610749,5.555758404069853,-0.7384567097339253,-0.28617857760340737
0.7608289588017735,5.467535944438426,-0.7413184955099593,0.09714596578430984
0.8155043182461578,5.387228393859968,-0.7403470358521163,0.46706560509884065
0.8693766021847574,5.3121160672368095,-0.7356763798011279,0.8244833286825299
0.9224977628571255,5.239767779342493,-0.7274315465143025,1.1697923138853108
0.9748954406505504,5.16799930324775,-0.7157336233754494,1.5029769149924295
1.026575433683028,5.09484738194868,-0.7007038542255252,1.8237034888290924
1.0775239075025147,5.018555796150601,-0.6824668193372343,2.131402979130948
1.1277094654640207,4.937570139364975,-0.6611527895459248,2.425346561743127
1.1770851668576705,4.8505382762555,-0.6368993239284936,2.7047149328970965
1.2255905496202255,4.756313849922382,-0.6098521745995226,2.968661235086936
1.2731536881194494,4.65396062294552,-0.5801655622486532,3.2163672386883855
1.3196932943489046,4.5427558702041555,-0.5480018898617693,3.4470922367500183
1.3651208530509462,4.422191474117805,-0.5135309674942692,3.6602141311345067
1.4093427677921242,4.291971787582943,-0.4769288261829241,3.8552623382682794
1.4522624856679536,4.152007709249505,-0.4383762028002413,4.031942366453182
1.4937825627604486,4.002406746983582,-0.39805677913570947,4.190152165186551
