th1 (rad),w1 (rad/s),th2 (rad),w2 (rad/s),a1 (rad/s^2),a2 (rad/s^2)
0.2666613440019628,-0.8481989887029718,2.93346116590891,-0.615622185767053,-5.860349140370024,-7.5660110143173815
0.2581793541149331,-0.9068024801066721,2.9273049440512393,-0.6912822959102268,-5.778890957579622,-7.603999768093952
0.24911132931386637,-0.9645913896824683,2.920392121092137,-0.7673222935911663,-5.689571346677372,-7.6436086013185385
0.2394654154170417,-1.021487103149242,2.9127188981562253,-0.8437583796043517,-5.592222409297078,-7.684491433107551
0.22925054438554926,-1.077409327242213,2.904281314360182,-0.9206032939354273,-5.4866678314233095,-7.726290927885262
0.21847645111312713,-1.132276005556446,2.895075281420828,-0.9978662032142799,-5.372723562918562,-7.768639395492463
0.20715369105756268,-1.1860032411856316,2.885096619388685,-1.0755525971692046,-5.250198294440423,-7.811159374445215
0.19529365864570636,-1.2385052241300358,2.874341093416993,-1.1536641909136567,-5.118893713303798,-7.853463860472407
0.182908606404406,-1.289694161263074,2.8628044515078566,-1.2321988295183808,-4.978604526041635,-7.895156149188646
0.17001166479177526,-1.3394802065234903,2.8504824632126726,-1.3111503910102673,-4.829118243610425,-7.9358292713550815
0.15661686272654035,-1.3877713889595946,2.8373709593025698,-1.390508683723818,-4.67021473555417,-7.975065011964396
0.1427391488369444,-1.4344735363151364,2.8234658724653316,-1.470259333843462,-4.501665572125904,-8.012432520638082
0.12839441347379305,-1.4794901920363954,2.808763279126897,-1.5503836590498428,-4.3232331884598,-8.047486540769462
0.1135995115534291,-1.5227225239209934,2.7932594425363986,-1.6308585244575373,-4.134669922408155,-8.07976530863028
0.09837228631421915,-1.564069223145075,2.776950857291823,-1.7116561775438401,-3.935716997527849,-8.10878820132006
0.0827315940827684,-1.6034263931203534,2.759834295516385,-1.7927440595570407,-3.726103544716234,-8.134053243870364
0.06669733015156486,-1.6406874285675157,2.7419068549208143,-1.8740845919957443,-3.5055457797891014,-8.155034620728479
0.0502904558658897,-1.6757428863654067,2.723166009000857,-1.9556349382030291,-3.273746479290076,-8.171180374704809
0.033533027002235635,-1.7084803511583075,2.703609659618827,-2.0373467419500773,-3.0303949221924533,-8.181910516442322
0.016448223490652558,-1.7387843003802321,2.683236192199326,-2.1191658471145005,-2.7751674897621434,-8.186615808348291
-0.0009396195131497649,-1.7665359752778536,2.662044533728181,-2.2010320051979835,-2.5077291381898097,-8.184657527064196
-0.0186049792659283,-1.7916132666597517,2.640034213676201,-2.2828785804686254,-2.2277359767507097,-8.175368545759587
-0.036521111932525815,-1.8138906264272587,2.617205427871515,-2.3646322659262213,-1.9348391958368945,-8.158056109048914
-0.0546600181967984,-1.8332390183856277,2.5935591052122526,-2.4462128270167103,-1.62869059138557,-8.132006695739667
-0.07299240838065468,-1.8495259242994835,2.5690969769420855,-2.527532893974107,-1.3089499217183416,-8.096493373880671
-0.09148766762364952,-1.862615423516667,2.5438216480023446,-2.6084978277129136,-0.9752943059778362,-8.050786044070383
-0.11011382185881619,-1.8723683665764452,2.5177366697252155,-2.6890056881536175,-0.627429826392509,-7.9941649356673965
-0.12883750552458065,-1.8786426648403702,2.4908466128436793,-2.7689473375102915,-0.2651054258072903,-7.925937661241157
-0.14762393217298436,-1.8812937190984431,2.4631571394685765,-2.848206714122703,0.11187090592647024,-7.845460042423557
-0.1664368693639688,-1.8801750100391783,2.4346750723273494,-2.9266613145469385,0.5036137901919043,-7.752160791278016
-0.18523861946436057,-1.8751388721372593,2.40540845918188,-3.0041829224597185,0.9101402528042853,-7.645569963062261
-0.20399000818573315,-1.8660374696092163,2.375366629957283,-3.080638622090341,1.3313481271776568,-7.525350889077181
-0.22265038288182532,-1.8527239883374398,2.3445602437363795,-3.1558921309811128,1.766993749930829,-7.3913350560015605
-0.24117762276519972,-1.8350540508381314,2.3130013224265684,-3.2298054815411286,2.2166698527009543,-7.243559129096788
-0.259528163273581,-1.812887352311122,2.280703267611157,-3.3022410728320963,2.6797847758308686,-7.082303034642482
-0.27765703679669224,-1.7860895045528133,2.247680856882836,-3.373064103178521,3.1555443344990906,-6.9081277413583155
-0.29551793184222036,-1.7545340612078224,2.213950215851051,-3.442145380592104,3.6429378343515513,-6.721911136269822
-0.3130632724542986,-1.718104682864307,2.17952876204513,-3.5093644919548024,4.140729837813615,-6.524880206749486
-0.3302443192829417,-1.6766973844861708,2.144435117125582,-3.5746132940222974,4.647459299629441,-6.318637648859625
-0.3470112931278034,-1.6302227914898764,2.1086889841853593,-3.6377996705108937,5.1614475989110815,-6.105181053368926
-0.36331352104270215,-1.5786083155007655,2.0723109874802503,-3.698851481044583,5.68081677923124,-5.886913000849384
-0.3790996041977098,-1.521800147708453,2.0353224726698045,-3.757720611053077,6.203518961981845,-5.666640742803774
-0.39431760567479435,-1.4597649580886347,1.9977452665592736,-3.814387018481115,6.727377428425316,-5.447564660045504
-0.4089152552556807,-1.3924911838043816,1.9596013963744625,-3.86886266508157,7.250139295154368,-5.233255358950866
-0.4228401670937245,-1.319989790852838,1.9209127697236468,-3.9211952186710786,7.769539074699006,-5.027620058772347
-0.4360400650022529,-1.2422944001058478,1.881700817536936,-3.971471419258802,8.283371770817022,-4.834859789620925
-0.4484630090033114,-1.1594606823976776,1.841986103344348,-4.019820017155011,8.789573569839831,-4.659419798210786
-0.46005761582728816,-1.0715649466992794,1.801787903172798,-4.066414215137119,9.28630772240031,-4.505936377483416
-0.47077326529428093,-0.9787018694752763,1.7611237610214268,-4.111473578911953,9.772052926956048,-4.379184029378604
-0.48056028398903367,-0.8809813402057158,1.7200090252323073,-4.155265419205739,10.245691478514257,-4.28402738180082
-0.48937009739109083,-0.7785244254205732,1.6784563710402498,-4.198105693023748,10.706594664347344,-4.225382576827426
-0.49715534164529657,-0.6714584787770997,1.6364753141100123,-4.2403595187920216,11.154703380898107,-4.208192921024216
-0.5038699264330676,-0.5599114449681186,1.594071718922092,-4.282441448002264,11.590602695191496,-4.237423465378267
-0.5094690408827488,-0.44400541801620363,1.5512473044420694,-4.324815682656046,12.015590040284398,-4.318078917318063
-0.5139090950629108,-0.32384951761335967,1.507999147615509,-4.367996471829227,12.431737861610332,-4.455248961289279
-0.5171475902390444,-0.19953213899725636,1.4643191828972169,-4.41254896144212,12.841952755007426,-4.654184774310948
-0.519142911629017,-0.07111261144718209,1.4201936932827957,-4.45909080918523,13.250034392459506,-4.920410369917479
-0.5198540377434888,0.06138773247741297,1.3756027851909434,-4.508294912884405,13.660738756948223,-5.259872478389159
-0.5192401604187147,0.1979951200468952,1.3305198360620993,-4.560893637668296,14.079851344875655,-5.6791330346184505
-0.5172602092182458,0.3387936334956517,1.2849108996854164,-4.617684968014481,14.514276975148775,-6.185609003445777
-0.5138722728832893,0.4839364032471395,1.2387340500052715,-4.6795410580489385,14.9721535592165,-6.78786513311305
-0.5090329088508179,0.6336579388393044,1.1919386394247822,-4.747419709380069,15.462997422457581,-7.495966019148968
-0.5026963294624248,0.7882879130638802,1.1444644423309815,-4.822379369571559,15.997887083256908,-8.321893979120036
-0.49481345033178603,0.9482667838964494,1.096240648635266,-4.905598309362759,16.58968989005313,-9.280037444412068
-0.4853307824928215,1.1141636827969807,1.0471846655416384,-4.9983986838068795,17.2533297807592,-10.387748403987061
-0.4741891456648517,1.2866969806045727,0.9972006787035695,-5.10227616784675,18.006081092830833,-11.665952036763654
-0.46132217585880597,1.466757791532881,0.946177917025102,-5.218935688214386,18.86784582331811,-13.13975753200661
-0.44665459794347717,1.6554362497660622,0.8939885601429581,-5.350333263534452,19.861316374783122,-14.838947582285092
-0.43010023544581655,1.8540494135138934,0.8404852275076136,-5.498722739357303,21.011816073224452,-16.798078654819445
-0.41155974131067763,2.064167574246138,0.7854980001140406,-5.666703525905498,22.346394149106924,-19.05563375830046
-0.39091806556821623,2.2876315157372074,0.7288309648549856,-5.857259863488503,23.89133180563511,-21.651096821338054
-0.36804175041084414,2.5265448337935585,0.6702583662201005,-6.073770831701884,25.6664073772252,-24.617705250612563
-0.34277630207290855,2.7832089075658106,0.6095206579030816,-6.31994788420801,27.672748005356492,-27.966528466732022
-0.31494421299725045,3.0599363876193757,0.5463211790610015,-6.59961316887533,29.868373370003397,-31.653716223225466
-0.2843448491210567,3.35862012131941,0.48032504737224824,-6.916150331107585,32.12118171215163,-35.51661553530547
-0.25075864790786256,3.679831938440926,0.4111635440611724,-7.271316486460639,34.124076564304566,-39.157178297483455
-0.2139603285234533,4.021072704083972,0.338450379196566,-7.662888269435474,35.2583669879887,-41.7525096628282
-0.1737496014826136,4.3736563739638585,0.26182149650221126,-8.080413366063755,34.42595357325025,-41.81922219478783
-0.130013037742975,4.7179159096963605,0.18101736284157371,-8.498605588011634,30.00022058094912,-37.13712647170523
-0.08283387864601141,5.017918115505852,0.09603130696145738,-8.869976852728685,20.30936467757381,-25.404774860295387
-0.03265469749095289,5.22101176228159,0.007331538434170531,-9.124024601331639,5.120229022994686,-6.277677556116249
0.019555420131863004,5.272214052511536,-0.08390870757914586,-9.186801376892802,-12.637369257638374,16.26191545181929
0.07227756065697838,5.1458403599351525,-0.17577672134807387,-9.024182222374609,-27.703034982460174,35.07009766987769
0.1237359642563299,4.8688100101105505,-0.26601854357182,-8.673481245675832,-36.454948350337375,45.30435807054995
0.1724240643574354,4.504260526607177,-0.35275335602857827,-8.220437664970333,-39.135938107331526,47.41942220135703
0.21746666962350716,4.112901145533861,-0.43495773267828164,-7.7462434429567635,-38.068615376588625,44.64923500560489
0.2585956810788458,3.732214991767975,-0.5124201671078493,-7.299751092900714,-35.374733846805974,39.88261208739208
0.2959178309965255,3.3784676532999156,-0.5854176780368565,-6.900924972026793,-32.286200730691306,34.75985618572624
0.3297025075295247,3.0556056459930026,-0.6544269277571244,-6.5533264101695305,-29.357198255889546,29.9926442221906
0.3602585639894547,2.762033663434107,-0.7199601918588198,-6.253399967947624,-26.780717597191728,25.808113659463977
0.38787890062379576,2.4942264874621896,-0.782494191538296,-5.995318831352985,-24.588289860551185,22.22325638635611
0.41282116549841763,2.248343588856678,-0.8424473798518258,-5.773086267489424,-22.74901165734688,19.178417560321577
0.4353046013869844,2.020853472283209,-0.9001782425267201,-5.581302091886208,-21.213279324084027,16.59482287291918
0.4555131361098165,1.8087206790423689,-0.9559912634455822,-5.415353863157016,-19.93045055050162,14.396885893576245
0.47360034290024017,1.6094161735373527,-1.0101448020771524,-5.271385004221253,-18.85508117271437,12.519403997792514
0.4896945046356137,1.420865361810209,-1.062858652119365,-5.146190964243328,-17.948428174910724,10.908684925568275
0.5039031582537158,1.2413810800611018,-1.1143205617617984,-5.0371041149876445,-17.178141668710126,9.52147783703284
0.5163169690543268,1.0695996633740006,-1.1646916029116747,-4.941889336617316,-16.517380188263218,8.323300069194804
0.5270129656880668,0.9044258614913684,-1.214110496277848,-4.858656335925368,-15.943846479237763,7.286771447722717
0.5360572243029804,0.7449873966989907,-1.2626970596371017,-4.785788621448141,-15.438925339912702,6.390158743776927
0.5435070982699703,0.5905981432998637,-1.310554945851583,-4.721887034010372,-14.986973709949694,5.616169038550799
0.5494130797029689,0.4407284062003668,-1.3577738161916868,-4.665725343624864,-14.574761519934324,4.950971034512267
0.5538203637649726,0.2949807910010236,-1.4044310696279354,-4.616215633279741,-14.191043960736614,4.383406644454015
0.5567701716749828,0.15307035139365743,-1.4505932259607328,-4.572381566835201,-13.826241786593496,3.9043552858079504
0.5583008751889194,0.014807933527722472,-1.4963170416290847,-4.533338013977121,-13.47220738602503,3.5062191288061726
0.5584489545241966,-0.11991414033252784,-1.541650421768856,-4.49827582268906,-13.122057016303295,3.1825045565584515
0.5572498131208713,-0.2511347104955608,-1.5866331799957467,-4.466450777123475,-12.770052386956536,2.9274815542666537
0.5547384660159157,-0.37883523436512617,-1.6312976877669814,-4.437175961580809,-12.411517244592513,2.7359080805249594
0.5509501136722644,-0.5029504068110513,-1.6756694473827896,-4.409816880775559,-12.042776707690708,2.6028105747972528
0.5459206096041539,-0.6233781738879584,-1.719767616190545,-4.383788775027587,-11.661108930021726,2.5233146790080436
0.5396868278652743,-0.7399892631881756,-1.763605503940821,-4.358555628237506,-11.264700374706537,2.4925221110707008
0.5322869352333925,-0.852636266935241,-1.807191060223196,-4.333630407126799,-10.852597677978418,2.505430559164082
0.5237605725640402,-0.9611622437150251,-1.850527364294464,-4.3085761015351585,-10.424650846973472,2.556893620746002
0.5141489501268899,-1.06540875218476,-1.8936131253098156,-4.283007165327699,-9.981444386980085,2.6416173650815806
0.5034948626050423,-1.1652231960545607,-1.9364431969630926,-4.256590991676883,-9.524214850963475,2.754189251555402
0.4918426306444967,-1.2604653445641953,-1.9790091068798614,-4.229049099161329,-9.05475515994056,2.8891341045611925
0.47923797719885475,-1.351012896163601,-2.0212995978714745,-4.200157758115717,-8.575307737322648,3.0409908479999657
0.46572784823721874,-1.4367659735368274,-2.0633011754526316,-4.169747849635717,-8.088449904593567,3.2044029382610493
0.45136018850185045,-1.517650472582763,-2.104998653948989,-4.137703820253107,-7.596975985265815,3.3742150620985583
0.4361836837760228,-1.5936202324354212,-2.14637569215152,-4.103961669632122,-7.103781081082997,3.5455687816621526
0.42024748145166857,-1.6646580432462512,-2.187415308847841,-4.068505981815501,-6.61175149282926,3.7139904367141305
0.40360090101920604,-1.7307755581745439,-2.2281003686659964,-4.03136607744836,-6.12366628934877,3.875465704058106
0.3862931454374606,-1.7920122210680316,-2.2684140294404798,-3.992611420407779,-5.642113666867091,4.026496654711454
0.36837302322678034,-1.8484333577367025,-2.3083401436445574,-3.9523464538606645,-5.169424610002033,4.164138787408854
0.34988868964941333,-1.9001276038367227,-2.347863608183164,-3.910705065986576,-4.707625109073855,4.286017184270829
0.3308874136110461,-1.9472038549274613,-2.3869706588430297,-3.8678448941438677,-4.258406946936288,4.390322472986686
0.3114153750617715,-1.9897879243968242,-2.4256491077844684,-3.8239416694140007,-3.823115963668683,4.475788563246913
0.2915174958178033,-2.028019084033511,-2.4638885244786084,-3.7791837837815314,-3.402755826809612,4.541655071714073
0.2712373049774682,-2.062046642301607,-2.501680362316424,-3.7337672330643907,-2.9980047267185217,4.587617926696897
0.2506168385544521,-2.0920266895687925,-2.539018034647068,-3.6878910537974217,-2.6092420910469447,4.613771862896925
0.22969657165876417,-2.118119110479262,-2.575896945185042,-3.6417533351684526,-2.236582347021786,4.6205484251208535
0.20851538055397156,-2.14048493394948,-2.6123144785367267,-3.595547850917244,-1.8799129105855956,4.608652766821272
0.18711053121447677,-2.1592840630553356,-2.648269957045899,-3.5494613232490315,-1.5389338906089778,4.579002032964607
0.1655176905839234,-2.1746734019614253,-2.6837645702783894,-3.5036713029193853,-1.2131974050190166,4.532667533208077
0.14377095656430916,-2.1868053760116153,-2.718801283307583,-3.4583446275873047,-0.9021448591978927,4.470822306815288
0.12190290280419301,-2.195826824603594,-2.7533847295834564,-3.413636404519152,-0.605140990348942,4.39469510663296
0.09994463455815707,-2.2018782345070838,-2.787521093628648,-3.369689453452822,-0.32150390138124635,4.305531321159977
0.07792585221308623,-2.2050932735208963,-2.821217988163176,-3.3266341402412225,-0.05053067275832215,4.2045609314258785
0.05587491947787727,-2.2055985802484797,-2.8544843295655884,-3.2845885309269636,0.20848156023189274,4.092973270420847
0.033818933675392474,-2.2035137646461607,-2.887330214874858,-3.243658798222755,0.4562189466744475,3.9718981148528982
0.011783796028930867,-2.198951575179416,-2.9197668028570853,-3.203939817074226,0.6933383916661875,3.842392483211341
-0.010205719722863296,-2.192018191262754,-2.9518062010278276,-3.1655158922421127,0.9204587677188818,3.7054324279762474
-0.03212590163549084,-2.1828136035855654,-2.983461359950249,-3.12846156796235,1.1381554124119142,3.561909079412673
-0.05395403767134649,-2.1714320494614463,-3.0147459756298725,-3.0928424771682232,1.3469574357751213,3.4126282100424943
-0.07566835816596096,-2.157962475103695,-3.0456744004015546,-3.0587161950677983,1.5473473661904413,3.2583126301943786
-0.0972479829169979,-2.1424890014417906,-3.0762615623522325,-3.0261330687658545,1.739762688768115,3.0996067854381604
-0.11867287293141582,-2.1250913745541093,-3.106522893039891,-2.995137000911473,1.9245988680778878,2.937082997693626
-0.1399237866769569,-2.1058453858733306,-3.1364742630490055,-2.9657661709345366,2.102213492118325,2.7712488668226483
-0.1609822405356902,-2.084823250952147,-3.166131924758351,-2.93805368226631,2.2729312221450093,2.6025554237905704
-0.1818304730452117,-2.062093938730697,-3.1955124615810138,-2.9120281280284046,2.4370492802816273,2.431405696720954
-0.20245141243251866,-2.037723445927881,-3.224632742861298,-2.887714071061195,2.594843251507882,2.2581634152472643
-0.22282864689179746,-2.011775013412802,-3.25350988357191,-2.8651324369087225,2.7465730172219973,2.0831616352547835
-0.2429463970259255,-1.9843092832405822,-3.282161207940997,-2.8443008205561746,2.8924886732571977,1.9067111148116773
-0.26278948985833134,-1.9553843965080102,-3.310604216146559,-2.825233709408058,3.0328363155498534,1.7291083126464222
-0.2823433338234114,-1.9250560333525117,-3.3388565532406393,-2.807942626281594,3.1678636014544517,1.5506429130457833
-0.30159389415693655,-1.8933773973379673,-3.3669359795034555,-2.7924361971511362,3.2978250140046956,1.3716048057819679
-0.32052766813031625,-1.8603991471979204,-3.394860341474967,-2.7787201490933167,3.422986770372213,1.1922904669636991
-0.33913165960229547,-1.8261692794941984,-3.4226475429659002,-2.7667972444236795,3.5436313245862046,1.0130086969059868
-0.35739335239723746,-1.7907329662483364,-3.450315515410137,-2.7566671574546198,3.660061418509776,0.8340856746054647
-0.37530068205972084,-1.7541323520632386,-3.4778821869846834,-2.748326300708565,3.77260363443073,0.65586928559102
-0.3928420055803532,-1.7164063157189313,-3.505365449991769,-2.741767607852655,3.8816113977909508,0.4787326712470669
-0.41000606873754253,-1.6775902017410218,-3.5327831260702958,-2.7369802811401844,3.9874673700225274,0.30307693373641903
-0.4267819707549527,-1.6377155280407965,-3.5601529288816978,-2.73394951180282,4.090585159800517,0.1293329121129825
-0.4431591260353607,-1.5968096764427913,-3.587492423999726,-2.73265618268169,4.191410267087478,-0.042038076899643
-0.45912722279978857,-1.5548955737719166,-3.614818985826543,-2.7330765634506866,4.290420159234196,-0.2105446643342396
-0.47467617853750776,-1.5119913721795746,-3.64214975146105,-2.735182010094029,4.388123363561083,-0.37566717625856144
-0.48979609225930354,-1.4681101385439637,-3.6695015715619905,-2.738938681856615,4.4850574481352155,-0.536860881404319
-0.5044771936447432,-1.4232595640626116,-3.6968909583805565,-2.744307290670658,4.581785754200444,-0.693560935576646
-0.5187097892853693,-1.377441706520607,-3.7243340312872633,-2.7512429000264245,4.678892742711004,-0.8451892286298249
-0.5324842063505754,-1.330652779093497,-3.7518464602875277,-2.7596947923127226,4.776977826895839,-0.9911633362844173
-0.5457907341415104,-1.2828830008245387,-3.7794434082106547,-2.769606425675567,4.876647586284849,-1.1309077579073221
-0.5586195641497558,-1.23411652496169,-3.8071394724674104,-2.78091550325464,4.9785062987798065,-1.2638675776021564
