th1 (rad),w1 (rad/s),th2 (rad),w2 (rad/s)
3.3841668632838333,-1.4526859149327578,2.4392299086854092,1.0244869574210913
3.3696400041345056,-1.4130677719639662,2.4494747782596202,0.9550717405449162
3.355509326414866,-1.3730776214960145,2.4590254956650694,0.8841978387909857
3.3417785501999058,-1.3327696701617529,2.467867474052979,0.811941106555682
3.328450853498288,-1.2922042032604295,2.475986885118536,0.7383838058400163
3.315528811465684,-1.2514466300854965,2.4833707231769364,0.6636134577425368
3.303014345164829,-1.2105664558084765,2.490006857754362,0.5877215496292177
3.2909086806067442,-1.1696362128345574,2.495884073250654,0.5108021458773403
3.2792123184783986,-1.1287303878633739,2.5009920947094275,0.43295045474033367
3.267925014599765,-1.087924382093024,2.5053215992568307,0.35426140564535025
3.2570457707788347,-1.0472935410126243,2.5088642133132844,0.27482828996431874
3.2465728353687084,-1.006912287142619,2.5116124962129276,0.19474151410761437
3.2365037124972824,-0.9668533841785136,2.5135599113540037,0.11408750703806435
3.2268351786554974,-0.9271873546837609,2.514700786424384,0.03294781554809649
3.21756330510866,-0.8879820662563599,2.515030264579865,-0.04860158943417965
3.2086834844460963,-0.8493024934838689,2.514544248685523,-0.1304907829161239
3.2001904595112576,-0.8112106554991606,2.513239340856362,-0.21265613026495916
3.192078352956266,-0.773765721980466,2.511112779553712,-0.2950403138245477
3.1843406957364615,-0.7370242743312952,2.5081623764154664,-0.37759215824995995
3.1769704529931486,-0.7010407037445656,2.5043864548329666,-0.4602662782782151
3.169960045955703,-0.6658677240080272,2.4997837920501844,-0.543022578188362
3.1633013687156226,-0.6315569742583556,2.494353566268301,-0.6258256360482701
3.156985798973039,-0.5981596853810983,2.4880953099078185,-0.7086440080691594
3.151004202119228,-0.5657273832787577,2.481008869827127,-0.7914494891300125
3.1453469282864406,-0.5343126026632662,2.473094374935827,-0.8742163649652468
3.140003802259808,-0.5039695862432216,2.4643522112861747,-0.9569206898099937
3.134964106397376,-0.474754946053158,2.4547830043880747,-1.0395396206351442
3.130216556936844,-0.4467282661127842,2.444387608181723,-1.1220508356233736
3.1257492742757162,-0.4199526285281339,2.4331670998254893,-1.2044320603580494
3.121549747990435,-0.39449504848717787,2.4211227792219088,-1.2866607204217588
3.117604797505563,-0.3704268072977454,2.4082561720176914,-1.3687137338259576
3.1139005294325854,-0.3478236765979499,2.394569034679432,-1.4505674510206534
3.110422292666606,-0.32676603105511565,2.3800633601692254,-1.5321977442858716
3.1071546323560546,-0.30733885115092663,2.3647413827263666,-1.6135802422376975
3.1040812438445453,-0.2896316218927259,2.34860558030399,-1.694690699178273
3.101184927625618,-0.2737381373314192,2.331658673312207,-1.7755054833006372
3.098447546252304,-0.25975622442316854,2.3139036184792006,-1.8560021625671193
3.095849984008072,-0.24778740285497244,2.295343596853529,-1.9361601626605995
3.0933721099795224,-0.237936499781429,2.2759819952269233,-2.01596146799066
3.0909927449817083,-0.2303112398357362,2.255822380547017,-2.0953913345092503
3.088689632583351,-0.22502183117030455,2.2348684672019243,-2.174438982175798
3.086439414271648,-0.22218056759731436,2.2131240773801664,-2.2530982353489777
3.084217608595675,-0.22190146515017303,2.1905930950266765,-2.3313680811167328
3.0819985939441734,-0.22429994865479838,2.167279414215509,-2.409253118457787
3.0797555944576254,-0.22949260032931365,2.1431868830309315,-2.4867638749222416
3.077460668454332,-0.23759697821601358,2.118319244281709,-2.563916971926135
3.075084698672172,-0.2487315076153848,2.092680074562448,-2.640735124437
3.072597383596018,-0.26301544387336045,2.066272723318078,-2.7172469654388216
3.0699672291572844,-0.2805689000931342,2.03910025366369,-2.793486689782221
3.067161540156353,-0.301512928794873,2.011165386765868,-2.869493515575288
3.0641464108684042,-0.3259696423798236,1.982470451610115,-2.9453109639472386
3.060886714444606,-0.35406235356752086,1.9530173419706427,-3.020985959696543
3.057346090908931,-0.38591571381175543,1.9228074823736772,-3.0965677559767433
3.0534869337708135,-0.4216558250612257,1.8918418048139096,-3.172106685815654
3.049270375520201,-0.46141029807595735,1.8601207379557532,-3.2476527420157812
3.0446562725394415,-0.5053082287786234,1.8276442105355954,-3.32325398501113
3.0396031902516554,-0.5534800627404755,1.7944116706854842,-3.3989547757669003
3.0340683896242506,-0.6060573168115242,1.7604221229278152,-3.4747938280432935
3.0280078164561353,-0.6631721260626168,1.7256741846473822,-3.550802071563011
3.021376095195509,-0.724956583606992,1.690166163931752,-3.6270003150986603
3.014126529359439,-0.7915418405508488,1.6538961607807654,-3.7033966965172187
3.0062111109539305,-0.863056933381732,1.6168621938155932,-3.7799839056814406
2.9975805416201133,-0.9396273066971272,1.5790623547587788,-3.8567361661232433
2.988184268553142,-1.0213730005260895,1.5404949930975462,-3.9336059628975204
2.977970538547881,-1.1084064738927244,1.501158933468571,-4.010520507338059
2.9668864738089535,-1.2008300400633656,1.4610537283951905,-4.087377934924305
2.95487817340832,-1.2987328945148302,1.4201799490459475,-4.164043240486098
2.9418908444631717,-1.4021877245029328,1.3785395166410865,-4.240343965866823
2.9278689672181426,-1.5112468996558108,1.3361360769824182,-4.3160656692360035
2.9127564982215843,-1.6259382567007954,1.292975420290058,-4.3909472227119295
2.8964971156545762,-1.7462605086216505,1.2490659480629387,-4.464676005912617
2.87903451056836,-1.8721783294687393,1.2044191880038124,-4.536883087392407
2.8603127272736724,-2.0036171907375295,1.1590503571298885,-4.607138513266969
2.840276555366297,-2.1404580534351147,1.1129789719972187,-4.674946851964034
2.818871974831946,-2.2825320510479497,1.0662295034775784,-4.739743174834244
2.7960466543214664,-2.4296153315482867,1.0188320717292358,-4.800889682734749
2.7717505010059833,-2.5814242597943218,0.9708231749018883,-4.8576732166135095
2.7459362584080402,-2.737611213176787,0.9222464427357532,-4.909303913116805
2.7185601462762725,-2.8977612307234994,0.8731534036045852,-4.954915281563828
2.6895825339690376,-3.0613897964182755,0.8236042507889468,-4.9935659834327035
2.658968636004855,-3.227942048527827,0.7736685909546198,-5.024243587110044
2.6266892155195767,-3.3967937058579976,0.7234261550835194,-5.04587054689096
2.5927212784609965,-3.5672539873189715,0.6729674496146097,-5.057312614697539
2.557048738587807,-3.738570772176068,0.6223943234676343,-5.05738983535391
2.519663030866046,-3.9099382052948966,0.5718204251140953,-5.044890202231747
2.480563648813097,-4.080506896164563,0.5213715230917778,-5.018585961250701
2.4397585798514516,-4.249396795071426,0.4711856634792708,-4.977252449551674
2.3972646119007375,-4.415712757493992,0.4214131389837541,-4.919689242259373
2.3531074843257977,-4.578562731250454,0.37221624656116037,-4.844743257008266
2.307321857013293,-4.73707842164839,0.3237688139910777,-4.75133332984234
2.259951072796809,-4.890438207610847,0.2762554806926543,-4.638475624241275
2.2110466907207007,-5.037891994486614,0.22987072445024156,-4.505309062723953
2.1606677707758344,-5.178787594153369,0.18481763382300204,-4.35111977391974
2.108879894834301,-5.312598118387051,0.14130643608380464,-4.175363327373286
2.05575391365043,-5.438949759664088,0.09955280281007178,-3.977683291701176
2.0013644160537893,-5.557649224353052,0.05977596989306002,-3.757924418376423
1.945787923810259,-5.66870999657908,0.02219672570929579,-3.51613855548375
1.889100823844468,-5.772376577965147,-0.01296465984554171,-3.2525812759591832
1.8313770580648165,-5.869145909065692,-0.045490472605133545,-2.967697209200639
1.7726855989741597,-5.95978537601503,-0.07516744469713993,-2.6620922306769197
1.7130877452140094,-6.0453471785060335,-0.10178836700390913,-2.3364910037269326
1.652634273428949,-6.127179404612014,-0.12515327704117846,-1.9916788535258614
1.591362479382829,-6.2069349216142555,-0.14507006557643706,-1.628427508127135
1.5292931301666863,-6.286580119044644,-0.16135434065770843,-1.2474047414133336
1.46642732897624,-6.368406573771986,-0.17382838807184176,-0.8490682453153318
1.4027432632385202,-6.455049770079644,-0.18231907052499507,-0.4335440014853787
1.3381927655377237,-6.549520002038061,-0.18665451053984886,-0.0004889455972482692
1.2726975655173431,-6.6552513616062665,-0.18665939999582135,0.45106307655734396
1.2061450519012804,-6.776174967977651,-0.18214876923024792,0.9228737099390253
1.138383302221504,-6.916821580430221,-0.17292003213085766,1.4176917736634973
1.0692150864172016,-7.082454603802614,-0.15874311439422267,1.9394601386067907
0.9983905403791755,-7.27922266990955,-0.13934851300815476,2.4935175759863233
0.92559831368008,-7.514290396506851,-0.11441333724829153,3.0867321025852035
0.8504554097150115,-7.795830313183103,-0.0835460162224395,3.7273946270424174
0.7724971065831805,-8.132577725954915,-0.04627206995201532,4.424444122967157
0.6911713293236313,-8.532233301999844,-0.002027628722343751,5.185005623316058
0.6058489963036329,-8.997116978310205,0.04982242751081683,6.007982005555556
0.5158778265205308,-9.514001250903043,0.1099022475663724,6.869378456803876
0.4207378140115004,-10.03441150189986,0.17859603213441116,7.694202080324976
0.3203936989925018,-10.450012785372326,0.2555380529376609,8.321704931098688
0.21589357113877855,-10.60189141818867,0.3387551022486478,8.51926770506518
0.10987465695689186,-10.38909625531447,0.4239477792992996,8.137760574774473
0.0059836944037471584,-9.897450639280013,0.5053253850470444,7.29640737527591
-0.09299081198905297,-9.322158233514473,0.5782894587998035,6.274841333242817
-0.18621239432419773,-8.797027517356181,0.6410378721322317,5.269559474774968
-0.27418266949775955,-8.365107023554211,0.6937334668799814,4.348954983616005
-0.3578337397333017,-8.02479389720262,0.7372230167161414,3.5169408356476435
-0.4380816787053279,-7.761723093857626,0.7723924250726178,2.758113781254181
-0.5156989096439042,-7.560618490406262,0.7999735628851596,2.055063288929167
-0.5913050945479668,-7.4083429196764605,0.8205241957744513,1.393208091799445
-0.6653885237447313,-7.2941334353423315,0.8344562766924458,0.7615262294524567
-0.7383298580981547,-7.209140634396915,0.8420715389869704,0.15218443359156597
-0.8104212644421238,-7.14590958314581,0.843593383322886,-0.44001172149591405
-0.881880360273582,-7.0979626663208535,0.8391932661079269,-1.0181089578600306
-0.9528599869367905,-7.059504635059362,0.8290121765293266,-1.5834061414783716
-1.0234550332873842,-7.025234378134086,0.8131781151145429,-2.135783379185721
-1.0937073770687251,-6.990242024112944,0.7918202813226857,-2.673987458333442
-1.1636097973098545,-6.949971192554204,0.7650804067393513,-3.1958941299759474
-1.2331095092353965,-6.900228282852645,0.7331214654395918,-3.6987585642979903
-1.302111792063923,-6.837222467768917,0.6961338797966119,-4.17945705801601
-1.3704840167416121,-6.757621811317131,0.6543393092164518,-4.634717061040388
-1.4380602348547835,-6.65861307514964,0.607992138606048,-5.061329286178199
-1.5046463656062798,-6.537955450404875,0.557378845744266,-5.456334980340702
-1.5700259201103286,-6.394021437096509,0.502815495940859,-5.817182785605638
-1.6339661344812937,-6.2258209482868105,0.44464366808480255,-6.14185208276201
-1.6962243439641618,-6.033006990459646,0.38322514725718243,-6.428942300258435
-1.7565544138687583,-5.815862707292709,0.3189357242545981,-6.677729625651312
-1.8147130409416854,-5.575270210672758,0.25215842799808497,-6.888193536885289
-1.870465743048413,-5.312661766140271,0.18327649262923207,-7.061015693013571
-1.9235923607098158,-5.029953984387983,0.11266633569909636,-7.197553423906407
-1.9738919005536957,-4.729466078097935,0.04069080146003229,-7.2997898632102975
-2.021186561334675,-4.413824154462347,-0.032307097172070684,-7.370263070150922
-2.0653248028792985,-4.085854842220219,-0.1060097278735799,-7.411977396039263
-2.106183351301501,-3.748472985105743,-0.18012950183397253,-7.428301682014134
-2.1436680811525584,-3.404569253157288,-0.25441251865411385,-7.422860229747659
-2.177713773684131,-3.0569039599643544,-0.3286411209515904,-7.399423423654852
-2.2082828132837746,-2.7080129343244455,-0.402635355188139,-7.361805072381886
-2.235362942627019,-2.360130018606605,-0.47625340591195786,-7.313772866135004
-2.258964242813085,-2.015128899672985,-0.5493911345733079,-7.258976934052707
-2.279115531809815,-1.6744848856700518,-0.621980903913835,-7.20089962095392
-2.2958603806665154,-1.3392552954779933,-0.6939899001233741,-7.142827637426052
-2.3092529336212952,-1.0100756176400236,-0.7654181764976347,-7.08784598062818
-2.3193536897976954,-0.6871676878968798,-0.8362966363039165,-7.038851666936005
-2.326225366676664,-0.3703558777554436,-0.9066851529732766,-6.998584401222786
-2.3299289254542184,-0.0590876610833761,-0.9766709969855044,-6.969670713982806
-2.330519802065052,0.24754408180526644,-1.0463677041253325,-6.954677552502621
-2.328044361246999,0.5507779655751757,-1.1159144796503588,-6.9561703569605395
-2.3225365815912475,0.8521584384185485,-1.1854761832199643,-6.976768550334117
-2.314014997207062,1.1535013593385302,-1.2552438687233054,-7.019186904759701
-2.3024799836136767,1.456837098187999,-1.3254357377709025,-7.086242347293856
-2.2879116126317967,1.7643044148565816,-1.396298161243841,-7.180788942577605
-2.270268568483231,2.0779459554884827,-1.468106050669617,-7.305513494925721
-2.249489108928346,2.399319282461007,-1.5411611856188743,-7.462473054878201
-2.225495916103736,2.728782857927615,-1.6157859161676562,-7.652178718799657
-2.19820808752446,3.064256720583288,-1.6923077033556528,-7.871943564549444
-2.167565520318627,3.399260222795069,-1.7710271390011472,-8.113208513925112
-2.1335729180906764,3.720299723152428,-1.8521592241403984,-8.35792293119293
-2.096369920859152,4.004622673672202,-1.9357384534523276,-8.57535263041922
-2.05632369412243,4.221197242371801,-2.0214919797565196,-8.723242804726102
-2.014111721698712,4.338943181910014,-2.1087244078037806,-8.758908418852009
-1.970722289879612,4.342002928447576,-2.1963134919923006,-8.6600091896745
-1.9273022605951362,4.241289069743372,-2.2829135838890457,-8.440231632689727
-1.8848893698977025,4.069510889444011,-2.367315900215943,-8.142387401762557
-1.8441942610032624,3.863845258293778,-2.4487397742335686,-7.814841406921839
-1.8055558084203247,3.652425400611944,-2.526888188302787,-7.493441100420677
-1.7690315544142052,3.4513340804381722,-2.601822599306994,-7.197821161810022
-1.7345182136098236,3.2675952305302194,-2.673800810925094,-6.93570892953455
-1.7018422613045214,3.102983236357547,-2.7431579002204396,-6.708158369878481
-1.670812428940946,2.956708223383705,-2.8102394839192244,-6.513154671124839
-1.641245346707109,2.826931991456234,-2.8753710306304727,-6.347598701533245
-1.6129760267925468,2.7115242749437947,-2.9388470176458052,-6.208262568575789
-1.585860784043109,2.6084036437139084,-3.0009296433315633,-6.092194889581874
-1.5597767476059698,2.515670666863076,-3.061851592227382,-5.996858185203123
-1.5346200409373392,2.4316437654508762,-3.121820174079413,-5.92014532180959
-1.5103036032828303,2.354853061652814,-3.181021627297509,-5.860346389564376
-1.4867550726663021,2.2840190135528853,-3.239625091193153,-5.816098787012508
-1.4639148825307733,2.218028572075205,-3.297786079063278,-5.786334315317118
-1.4417345968100213,2.1559149612358715,-3.355649422216449,-5.7702279076685485
-1.4201754471976626,2.096844277452241,-3.4133517012931347,-5.767148122259277
-1.3992070044231402,2.0401110821625568,-3.4710231825157276,-5.776607167114188
-1.3788058936015146,1.9851451092650025,-3.5287892541868695,-5.798206769769022
-1.3589544425088647,1.9315316423250153,-3.5867713218845596,-5.831575105001855
-1.3396391260856144,1.8790487024906815,-3.645087072934578,-5.876289115534808
-1.3208486390607077,1.827724545772665,-3.703849964089926,-5.93177613016665
-1.302571393602981,1.7779184919836637,-3.7631677253915927,-5.997189372542903
-1.2847922086831445,1.7304257902105156,-3.823139619117022,-6.071255043589746
-1.2674879507810393,1.6866015508269179,-3.8838521695529193,-6.152096163152019
-1.25062193527277,1.6484878988258682,-3.9453731311844393,-6.237052769581918
-1.2341370562845113,1.6189111924328827,-4.007743658880258,-6.322541150459042
-1.2179479443601824,1.6014940734425225,-4.070969070384849,-6.404024457773592
-1.2019330036257572,1.6005085909622314,-4.135009314962585,-6.476192456558782
-1.1859279177161348,1.6204997005872108,-4.1997712395281726,-6.533445368697408
-1.1697229207102626,1.6656570052094979,-4.265105693215147,-6.5707138721738545
-1.1530663506581675,1.73901795952652,-4.3308128319368855,-6.584508927384345
-1.1356761710629024,1.8417168270423652,-4.396657921210729,-6.573922019215682
-1.1172590027924787,1.9725665062618634,-4.462397141402886,-6.5411995766008495
-1.0975333377298602,2.1281875452142205,-4.527809137168894,-6.491610204651922
-1.076251462277718,2.303682534199002,-4.592725239215413,-6.4326067201659995
-1.053214636935728,2.493620572154487,-4.657051306417073,-6.372590886312565
-1.0282784312141833,2.692998190426054,-4.720777215280199,-6.319717428782309
-1.0013484493099227,2.8979229929723496,-4.783974389568022,-6.281070226721596
-0.9723692193801993,3.105937324814353,-4.846785091835238,-6.262322066461606
-0.9413098461320557,3.3160443377009967,-4.9094083124998535,-6.267802756477999
-0.9081494027550457,3.52856192243188,-4.972086340064633,-6.300821067744155
-0.8728637835307269,3.7449236404070754,-5.035094550742075,-6.364097433199521
-0.8354145471266562,3.9675087883154534,-5.09873552507407,-6.460216625007572
-0.7957394592435016,4.199546550931792,-5.163337691324146,-6.592063837386149
-0.7537439937341838,4.445114876666115,-5.229258329698007,-6.763247484760186
-0.7092928449675227,4.709244159689929,-5.296890804545609,-6.978536683822554
-0.6622004033706234,4.998134772699387,-5.366676171383834,-7.244355215883779
-0.6122190556436294,5.31949965072456,-5.439119723542672,-7.569379134666332
-0.5590240591363839,5.683037916078275,-5.514813514889335,-7.965275455680015
-0.5021936799756012,6.10100735380566,-5.594466269446135,-8.44756385771188
-0.44118360643754456,6.588719590183607,-5.678941908023254,-9.036383684869044
-0.3752964105357085,7.164319924569919,-5.769305744871945,-9.756311018622656
-0.30365321129000933,7.845834164892378,-5.866868855058171,-10.6324583481097
-0.22519486964108554,8.63966710137921,-5.973193438539268,-11.67479714993822
-0.13879819862729342,9.506321565304475,-6.089941410038651,-12.830850134349793
-0.04373498297424867,10.283766916559738,-6.2182499113821486,-13.879234048694775
0.059102686191348716,10.617676236290595,-6.357042251869096,-14.332232128338164
0.1652794485542547,10.186072428895812,-6.500364573152478,-13.747755448823701
0.2671401728432128,9.206122051317953,-6.637842127640715,-12.430269565501597
0.35920139335639234,8.17520681530012,-6.762144823295731,-11.06459366435097
0.4409534615093935,7.311179962140676,-6.872790759939241,-9.944688103668422
0.5140652611308003,6.622263210605756,-6.972237640975925,-9.077450899595462
0.5802878932368579,6.069128591944931,-7.063012149971879,-8.407084219407121
0.6409791791563072,5.615018473615108,-7.14708299216595,-7.883009820319389
0.6971293638924583,5.2327367155961015,-7.225913090369144,-7.468711480540742
0.7494567310484193,4.902951151619696,-7.300600205174552,-7.139007951591196
0.7984862425646162,4.6118092408069495,-7.371990284690464,-6.8765717534111435
0.8446043349726857,4.349165343965076,-7.440756002224576,-6.669357058896106
0.8880959884123365,4.107415708188852,-7.507449572813536,-6.508862750076569
0.929170145494225,3.880771215477634,-7.572538200314302,-6.3889511766503375
0.9679778576490013,3.6648326352921683,-7.636427712080805,-6.304998727856954
1.004626184001923,3.4563821263251975,-7.699477699359375,-6.253227045081731
1.039190005265175,3.2533363622122136,-7.762009969810192,-6.230120682295419
1.0717233688872971,3.0548174769019356,-7.824311176633146,-6.231885642292814
1.1022715436563164,2.861287990396454,-7.886630033056075,-6.253955489149225
1.1308844235602808,2.674667260336097,-7.949169587947567,-6.290613683799544
1.1576310961636418,2.4983111176038557,-8.012075724785563,-6.33486273986137
