th1 (rad),w1 (rad/s),th2 (rad),w2 (rad/s),a1 (rad/s^2),a2 (rad/s^2)
2.4870987955037465,2.573313311337766,0.2402131231433987,2.5997041829565477,-9.593270721213333,-3.1691938278879586
2.512831928617124,2.4773806041256328,0.2662101649729642,2.5680122446776683,-9.504671439479013,-3.7353663753573647
2.53760573465838,2.382333889730843,0.2918902874197409,2.5306585809240945,-9.396765716268433,-4.2602977415025265
2.5614290735556886,2.2883662325681584,0.3171968732289818,2.488055603509069,-9.27129604464365,-4.745564631202099
2.5843127358813702,2.195653272121722,0.34207742926407253,2.440599957197048,-9.130066165935773,-5.192886091691601
2.6062692686025875,2.104352610462364,0.366483428836043,2.388671096280132,-8.974912264713181,-5.604088165135497
2.627312794707211,2.0146034878152324,0.39037013979884433,2.332630214628777,-8.80767797603928,-5.981071955734796
2.6474588295853634,1.9265267080548396,0.4136964419451321,2.272819495071429,-8.63019291681231,-6.325785021390113
2.6667240966659116,1.8402247788867165,0.4364246368958464,2.2095616448575277,-8.44425446802742,-6.6401959688562116
2.685126344454779,1.7557822342064424,0.45852025334442165,2.1431596851689654,-8.251612551212034,-6.926272115624595
2.702684166796843,1.6732661086943221,0.4799518501961113,2.0738969640127194,-8.053957156779775,-7.185960073664399
2.7194168278837862,1.5927265371265245,0.5006908198362385,2.0020373632760755,-7.852908393218241,-7.421169104727102
2.7353440932550517,1.514197453194342,0.5207111934689993,1.9278256722288045,-7.65000883377982,-7.633757091530191
2.750486067786995,1.4376973648565439,0.5399894501912873,1.8514881013135027,-7.446717942399356,-7.825518962775346
2.7648630414355604,1.3632301854325504,0.5585043312044223,1.7732329116857493,-7.244408364020571,-7.998177402685514
2.778495343289886,1.2907861017923445,0.5762366603212798,1.6932511376588941,-7.04436386755015,-8.153375668208774
2.791403204307809,1.2203424631168431,0.5931691716978688,1.6117173809768064,-6.84777873330969,-8.292672330106994
2.8036066289389776,1.1518646757837463,0.6092863455076368,1.5287906576757364,-6.655758381899696,-8.417537748672883
2.8151252756968153,1.0853070919647494,0.6245742520843942,1.4446152801890075,-6.4693210483012455,-8.529352091476614
2.8259783466164627,1.020613881481737,0.6390204048862843,1.3593217592742415,-6.2894003139987165,-8.629404699765603
2.8361844854312803,0.9577198783417498,0.6526136224790268,1.2730277122765854,-6.1168483208363496,-8.718894612105224
2.8457616842146978,0.8965513951333862,0.6653438996017926,1.1858387661555332,-5.952439502952032,-8.798932058500327
2.8547271981660316,0.8370270001038659,0.677202287263348,1.0978494455705299,-5.796874687063061,-8.87054074533881
2.8630974681670702,0.7790582532332353,0.6881807817190533,1.0091440381171417,-5.650785426140428,-8.93466076068191
2.870888050699403,0.722550398971831,0.6982722221002247,0.9197974305103226,-5.51473844661306,-8.99215194024953
2.8781135546891212,0.6674030145057004,0.7074701964053279,0.8298759111078273,-5.38924010422773,-9.04379754644373
2.884787584834178,0.6135106134634231,0.7157689555164062,0.73943793564339,-5.274740758142609,-9.09030812546366
2.8909226909688126,0.560763205881997,0.7231633348728401,0.6485348543887534,-5.171638986413608,-9.132325420575217
2.8965303230276325,0.509046816017861,0.7296486834167276,0.5572116001830012,-5.08028557848158,-9.17042623255224
2.901620791187811,0.45824396023304514,0.7352207994185577,0.4655073378574788,-5.000987251407506,-9.205126130917392
2.9062032307901418,0.4082340877189701,0.7398758727971324,0.3734560765483048,-4.934010046330945,-9.236882931666425
2.9102855716673313,0.35889398725566063,0.7436104335626155,0.2810872472316406,-4.879582369914999,-9.26609986851839
2.913874511539888,0.31009816355651065,0.7464213060349318,0.18842624854645668,-4.837897652421876,-9.2931283953209
2.9169754931754532,0.2617191870322919,0.7483055685203964,0.09549496459324766,-4.809116599623384,-9.318270567040203
2.9195926850457763,0.21362802103605807,0.7492605181663289,0.002312258922845631,-4.793369020120735,-9.34178095581695
2.9217289652561367,0.16569433083485072,0.7492836407555573,-0.09110555063532386,-4.790755212995927,-9.363868066953586
2.923385908564485,0.11778677870489143,0.748372585249204,-0.18474423130485973,-4.801346903239276,-9.384695227538138
2.924563776351534,0.06977330967249867,0.7465251429361555,-0.2785911835802411,-4.825187714316658,-9.404380927854055
2.925261509448259,0.021521432529332092,0.743739231100353,-0.37263499285878166,-4.862293168797003,-9.422998602954406
2.9254767237735524,-0.027101499158637944,0.7400128811717652,-0.46686497888832573,-4.91265020941471,-9.440575848991031
2.925205708781966,-0.07622800125278503,0.735344231382882,-0.5612707373782361,-4.976216234565509,-9.45709307630012
2.9244434287694383,-0.12599016359844012,0.7297315240090996,-0.6558416681412372,-5.0529176443121875,-9.472481609083179
2.923183527133454,-0.176519340041562,0.7231731073276872,-0.7505664842320691,-5.142647895801247,-9.48662125001895
2.9214183337330386,-0.22794581899957447,0.7156674424853665,-0.8454326967322585,-5.245265070859261,-9.499337337528592
2.9191388755430427,-0.28039846970816706,0.7072131155180439,-0.9404260701075444,-5.3605889637433055,-9.510397333913664
2.916334890845961,-0.33400435934560013,0.6978088548169684,-1.035530043446681,-5.488397703846292,-9.519506994388939
2.912994847252505,-0.38888833638406306,0.6874535543825016,-1.1307251133905705,-5.628423936865916,-9.526306180294322
2.9091059638886643,-0.44517257575272223,0.6761463032485958,-1.2259881751935138,-5.780350598755181,-9.53036439458441
2.904654238131137,-0.5029760817402741,0.6638864214966607,-1.321291819139358,-5.943806329841879,-9.531176134063351
2.899624477313734,-0.5624141450386929,0.6506735033052671,-1.4166035804799915,-6.118360591903522,-9.528156170639859
2.894000335863347,-0.6235977509577282,0.6365074675004672,-1.5118851421863901,-6.303518568661094,-9.520634892848776
2.8877643583537695,-0.6866329366443391,0.6213886160786033,-1.607091491114878,-6.498715949896802,-9.507853858551425
2.880898028987326,-0.7516200961433072,0.6053177011674545,-1.702170029700392,-6.703313720792648,-9.488961729378847
2.873381828025893,-0.8186532333512336,0.5882960008704506,-1.7970596469941806,-6.916593100464693,-9.463010776134148
2.8651952956923807,-0.8878191643558806,0.5703254044005088,-1.891689754755522,-7.13775079607931,-9.428954160727438
2.8563171040488218,-0.9591966723166737,0.5514085068529536,-1.9859792963627965,-7.3658947601032185,-9.3856442126554
2.846725137325655,-1.032855619917706,0.5315487138893257,-2.0798357384893507,-7.6000406565316245,-9.331831924609338
2.8363965811264777,-1.108856026483022,0.5107503565044321,-2.1731540577354442,-7.839109255387227,-9.26616789026734
2.8253080208616477,-1.1872471190368943,0.4890188159270777,-2.2658157366381175,-8.081924981105464,-9.187204895256983
2.813435549671279,-1.268066368847949,0.46636065856069653,-2.3576877855906875,-8.32721583711147,-9.093402347159554
2.8007548859827995,-1.3513385272190637,0.44278378070478963,-2.448621809062283,-8.573614913355625,-8.983132689894388
2.787241500710609,-1.4370746763526199,0.4182975626141668,-2.538453135961227,-8.81966365333091,-8.854689889916273
2.7728707539470827,-1.525271312885929,0.3929130312545545,-2.6270000348603895,-9.063817010063573,-8.70630000518479
2.7576180408182234,-1.6159094829865648,0.36664303090595063,-2.7140630349122374,-9.304450555408206,-8.536133752799444
2.7414589459883576,-1.7089539885406468,0.33950240055682823,-2.7994243724402317,-9.539869523488813,-8.342320879137304
2.724369406102951,-1.804352683775535,0.31150815683242594,-2.8828475812316046,-9.768319668682878,-8.122966010952993
2.706325879265196,-1.9020358804623638,0.2826796810201099,-2.9640772413411347,-9.987999704509305,-7.876165533345245
2.6873055204605723,-2.001915877507457,0.25303890860669853,-3.042838896674587,-10.197074967860825,-7.600024909646032
2.667286361685498,-2.103886627186065,0.22261051963995265,-3.1188391457710476,-10.393691831481599,-7.29267574085199
2.646247495413637,-2.2078235455008812,0.1914221281822422,-3.1917659031795673,-10.575992277261152,-6.95229177250963
2.624169259958628,-2.313583468273493,0.15950446915044653,-3.2612888209046638,-10.742127956922275,-6.577103011359483
2.6010334252758933,-2.4210047478427157,0.12689158094139988,-3.3270598510182587,-10.890273019846624,-6.165407130024575
2.5768233777974663,-2.529907478041182,0.09362098243121729,-3.3887139223185043,-11.01863499568184,-5.71557743284933
2.5515243030170547,-2.640093827998,0.059733843208032246,-3.4458696966469975,-11.12546309705811,-5.226066844986335
2.5251233647370745,-2.7513484589685815,0.02527514624156227,-3.498130365096861,-11.209053468198645,-4.6954076814511385
2.497609880147389,-2.863438993650568,-0.009706157409406342,-3.5450844419113725,-11.26775115767958,-4.122207358642109
2.4689754902108834,-2.9761165052273637,-0.04515700182852007,-3.586306515497794,-11.2999489418807,-3.5051407253143196
2.4392143251586096,-3.089115994646171,-0.08102006698349801,-3.621357922750937,-11.304083566567414,-2.8429403009542833
2.4083231652121477,-3.202156830311845,-0.11723364621100738,-3.64978732576048,-11.278630496042425,-2.134386393306326
2.376301596909029,-3.3149431352722694,-0.1537315194686122,-3.671131189693543,-11.222098841562197,-1.3782997871920486
2.3431521655563063,-3.4271641236878914,-0.19044283136554763,-3.6849141875654636,-11.13302875232725,-0.5735404038283537
2.3088805243194273,-3.538494411211164,-0.22729197324120226,-3.690649591603747,-11.009994151795363,0.28098404086867745
2.2734955802073156,-3.6485943527291176,-0.2641984691572397,-3.6878397511950602,-10.851614236651097,1.1862948788111822
2.2370096366800243,-3.7571104950956284,-0.3010768666691903,-3.6759768024069484,-10.656577561114169,2.143300114595613
2.199438531729068,-3.86367627070677,-0.3378366346932598,-3.654543801260992,-10.42368272886901,3.1527282610007825
2.1608017690220005,-3.9679130979954604,-0.3743820727058697,-3.623016518650984,-10.151899620262661,4.215034451433825
2.121122638042046,-4.069432094198087,-0.41061223789237955,-3.580866174136646,-9.840454594872282,5.330276160008962
2.0804283171000653,-4.16783664014681,-0.446420899633746,-3.5275634125365563,-9.48894212524873,6.497957884044636
2.0387499506985973,-4.262726061399297,-0.48169653375911153,-3.46258383369611,-9.097463738076351,7.716847039060917
1.9961226900846043,-4.35370069878006,-0.5163223720960727,-3.385415363305501,-8.666792889301353,8.984767140660892
1.9525856830968038,-4.440368627673074,-0.5501765257291277,-3.295567691898892,-8.19856145699046,10.29837906000948
1.908181996820073,-4.5223542422429786,-0.5831322026481166,-3.1925839012987973,-7.695459966941381,11.652966543610813
1.8629584543976432,-4.599308841912392,-0.6150580416611046,-3.076054235862689,-7.161439673829453,13.042247871384536
1.8169653659785192,-4.670923238650687,-0.6458185840197315,-2.9456317571488437,-6.6019005862938815,14.458240812355417
1.7702561335920124,-4.736942244513625,-0.67527490159122,-2.8010493490252895,-6.023846035076626,15.89121196956868
1.7228867111468762,-4.797180704864392,-0.7032853950814728,-2.642137229329603,-5.435982221468274,17.329743007141133
1.6749149040982323,-4.851540527079075,-0.7297067673747688,-2.4688397992581916,-4.8487412544423885,18.760943874665333
1.6263994988274415,-4.900027939623499,-0.7543951653673507,-2.2812303605115383,-4.274209367552576,20.170835936509164
1.5773992194312065,-4.942770033299024,-0.7772074689724662,-2.079522001146447,-3.7259489255429976,21.544915385503277
1.5279715190982164,-4.980029522554454,-0.7980026889839307,-1.864072847291414,-3.2187135858349314,22.86888993485346
1.4781712238726719,-5.012216658412803,-0.8166434174568448,-1.6353839479428796,-2.7680699050265996,24.129561254616934
1.4280490572885438,-5.039897357463069,-0.8329972569362736,-1.3940883353967102,-2.3899542294577065,25.315804971696856
1.3776500837139132,-5.063796899757646,-0.8469381402902407,-1.1409302856797416,-2.1002085748856607,26.4195832869175
1.3270121147163367,-5.084798985506502,-0.8583474431470381,-0.8767344528105666,-1.9141507170475265,27.436916617919188
1.2761641248612716,-5.103940492676978,-0.8671147876751438,-0.6023652866313747,-1.8462394978550194,28.36874358834994
1.225124719934502,-5.122402887655528,-0.8731384405414576,-0.31867785074787525,-1.9098950211945616,29.221614737840323
1.1739006910579466,-5.141501837867473,-0.8763252190489363,-0.02646170336947201,-2.1175251564357223,30.00819357915964
1.1224856726792718,-5.16267708943183,-0.8765898360826311,0.2736202324221244,-2.480796515281586,30.747575604240094
1.0708589017849535,-5.187485054584646,-0.8738536337584099,0.5810959884645254,-3.011173139001579,31.465476294845107
1.018984051239107,-5.217596785974662,-0.8680426738737645,0.8957507514129764,-3.7207334167185007,32.19437738694299
0.9668080833793604,-5.254804120141847,-0.8590851663596348,1.2176945252824063,-4.623268583455808,32.97375158384249
0.914260042177942,-5.301036805976405,-0.8469082211068107,1.5474320411208313,-5.735666032859992,33.85050587670771
0.861249674118178,-5.358393466305005,-0.8314339006956024,1.8859370998879084,-7.079585817831921,34.87978903124755
0.807665739455128,-5.429189324483324,-0.8125745296967233,2.234734990200384,-8.683441509871212,36.12629231786641
0.7533738462102948,-5.516023739582036,-0.7902271797947195,2.595997913379048,-10.584678247032945,37.66611403280758
0.6982136088144745,-5.621870522052365,-0.764267200660929,2.972659053707124,-12.83225830512212,39.58910460309681
0.6419949035939508,-5.750193105103587,-0.7345406101238577,3.368550099738092,-15.489019360432536,42.00122841630454
0.584492972542915,-5.905083298707912,-0.7008551091264769,3.7885623839011373,-18.632934489916604,45.025555811735025
0.5254421395558359,-6.091412643607078,-0.6629694852874655,4.238817942018487,-22.35474403317562,48.798291679983194
0.46452801311976505,-6.314960083938834,-0.6205813058672806,4.7268008588183195,-26.745717727679626,53.45103414399354
0.40137841228037674,-6.58241726121563,-0.5733132972790973,5.2613112002582545,-31.86068725853559,59.05838018359522
0.33555423966822046,-6.901024133800986,-0.5207001852765147,5.851895002094206,-37.62235623271212,65.50319585394537
0.2665439983302106,-7.277247696128107,-0.46218123525557264,6.50692696063366,-43.59488372260878,72.15863020472904
0.1937715213689295,-7.7131965333541945,-0.397111965649236,7.22851326268095,-48.50192517719822,77.21205371231969
0.11663955603538756,-8.198215785126177,-0.3248268330224265,8.000633799804147,-49.40290835300358,76.5109230081885
0.03465739818412579,-8.692244868656212,-0.24482049502438502,8.765743029886032,-41.0669390488282,62.69104050852773
-0.052265050502436336,-9.102914259144494,-0.15716306472552471,9.39265343497131,-18.16821163985919,28.278447884560244
-0.14329419309388128,-9.284596375543087,-0.06323653037581162,9.675437913816912,16.434874898410634,-22.65683005057837
-0.23614015684931217,-9.12024762655898,0.03351784876235751,9.448869613311128,46.72856524413842,-67.52731915690752
-0.32734263311490197,-8.652961974117595,0.1280065448954688,8.773596421742052,59.368298659919226,-87.49783091204038
-0.4138722528560779,-8.059278987518402,0.21574250911288934,7.898618112621649,57.344002466752094,-86.69235207513108
-0.49446504273126196,-7.485838962850881,0.2947286902391058,7.0316945918703375,49.48804607282192,-77.4817783119814
-0.5693234323597708,-6.990958502122662,0.36504563615780916,6.2568768087505235,40.98260407478173,-67.16080112167069
-0.6392330173809974,-6.581132461374844,0.4276144042453144,5.585268797533817,33.55577844535336,-58.19468251671695
-0.7050443419947459,-6.2455746769213105,0.48346709222065254,5.003321972366647,27.476107662855274,-50.996728496691034
-0.7675000887639589,-5.970813600292757,0.533500311944319,4.493354687399737,22.579864437648894,-45.36307686492569
-0.8272082247668865,-5.745014955916268,0.5784338588183164,4.0397239187504805,18.630274522726364,-40.97678578400009
-0.8846583743260492,-5.558712210689005,0.6188310980058213,3.6299560609104797,15.418388957443396,-37.551115105544184
-0.9402454964329393,-5.4045283211145705,0.655130658614926,3.254444909855038,12.781250935529082,-34.85674994519618
-0.994290779644085,-5.27671581175928,0.6876751077134764,2.9058774104030762,10.59724549472755,-32.7166606324585
-1.0470579377616778,-5.170743356812004,0.7167338818175072,2.5787108040784914,8.777131960605924,-30.994619125072926
-1.0987653713297978,-5.082972037205945,0.7425209898582921,2.2687646128277623,7.255843056878213,-29.584644564103368
-1.1495950917018571,-5.0104136066371625,0.7652086359865697,1.9729181671867286,5.986029799913147,-28.402878584218232
-1.1996992277682288,-4.950553308638031,0.7849378176584371,1.6888893813445462,4.933196953236544,-27.38176612560887
-1.249204760854609,-4.901221339105666,0.8018267114718826,1.4150717200884575,4.072052252762105,-26.466068988209667
-1.2982169742456657,-4.860500816578044,0.8159774286727671,1.1504110302063608,3.3837282815128558,-25.610249619590178
-1.3468219824114462,-4.826663533762916,0.8274815389748307,0.8943085340104591,2.853625791633432,-24.776847024049456
-1.3950886177490753,-4.798127275846581,0.8364246243149352,0.6465400637699645,2.4697129656422456,-23.93554508953459
-1.4430698905075412,-4.773430146190159,0.8428900249526349,0.4071846128746186,2.221182642489942,-23.062690973935894
-1.4908041919694428,-4.751218319765259,0.8469618710813811,0.17655770313525965,2.097417419781778,-22.14106187691123
-1.5383163751670954,-4.7302441455674415,0.8487274481127337,-0.04485291563385266,2.0872420829092455,-21.15971133792344
-1.5856188166227698,-4.709371724738349,0.8482789189563952,-0.25645002901308706,2.178455875201303,-20.113759001529164
-1.6327125338701534,-4.687587165986336,0.8457144186662643,-0.4575876190283787,2.3576362260924313,-19.00402534132526
-1.6795884055300168,-4.664010803725412,0.8411385424759805,-0.6476278724416313,2.6101943129370366,-17.836455967747803
-1.7262285135672708,-4.637908860596041,0.8346622637515642,-0.8259924321191093,2.920646024854317,-16.621325932700344
-1.7726076021732313,-4.6087024003474975,0.8264023394303731,-0.9922056914461128,3.2730449032043722,-15.372257341469885
-1.8186946261767063,-4.575971951315454,0.816480282515912,-1.1459282648608116,3.6515113974850486,-14.105117312071828
-1.8644543456898608,-4.5394568373406035,0.8050209998673039,-1.2869794379815298,4.040788694568818,-12.836882930461407
-1.9098489140632668,-4.499048950394915,0.7921512054874886,-1.415348267286144,4.42676056654722,-11.58456325597765
-1.954839403567216,-4.454781344729443,0.7779977228146272,-1.5311938998459205,4.796879902542158,-10.36425696226476
-1.9993872170145106,-4.406812545704021,0.762685783816168,-1.634836469468568,5.1404748687587904,-9.190402016797702
-2.043455342471551,-4.355407797016433,0.7463374191214823,-1.726740489636545,5.448919285893034,-8.07524655169681
-2.0870094204417153,-4.300918604157503,0.7290700142251169,-1.807492955153513,5.715671452054781,-7.028543325587863
-2.1300186064832904,-4.243761889636955,0.7109950846735817,-1.8777783884093917,5.936198955016023,-6.057448173248397
-2.17245622537966,-4.184399900086795,0.6922173007894878,-1.9383528701418757,6.107815023261285,-5.166587917831689
-2.214300224380528,-4.123321749854182,0.672833772088069,-1.9900187493201926,6.229454868977861,-4.3582558193810685
-2.25553344187907,-4.0610272011644035,0.6529335845948672,-2.033601307514003,6.301419293189693,-3.6326917720340783
-2.296143713890714,-3.9980130082325065,0.6325975715197272,-2.069928225234344,6.325108925559387,-2.988408381531077
-2.336123843973039,-3.9347619189769127,0.6118982892673838,-2.0998123090496548,6.302767211492128,-2.4225308081787977
-2.375471463162808,-3.8717342468619913,0.5909001661768872,-2.124037617131443,6.237244734770592,-1.9311261297980988
-2.414188805631428,-3.8093617995142854,0.5696597900055728,-2.143348878429424,6.131792423373671,-1.509505684373685
-2.452282423626571,-3.748043875280549,0.5482263012212786,-2.158443935273161,5.989887038695845,-1.1524905945755728
-2.4897628623793766,-3.6881450048935904,0.526641861868547,-2.1699688412189166,5.81508923307642,-0.8546360760162345
