th1 (rad),w1 (rad/s),th2 (rad),w2 (rad/s)
1.4430192224939766,-3.0005983790943986,5.551061544427224,1.2457019792968755
1.4130132387030327,-3.0768297360540218,5.5635185642201925,1.3419817804251013
1.3822449413424924,-3.153575857277819,5.576938382024443,1.445801801344297
1.3507091827697142,-3.231320552523013,5.591396400037886,1.5573465368074446
1.318395977244484,-3.3106086859530106,5.6069698654059605,1.6768454287129155
1.285289890384954,-3.3920519272426968,5.62373831969309,1.8045900186767097
1.2513693711125269,-3.47633642486195,5.641784219879857,1.940953605268428
1.2166060068639073,-3.564232975793323,5.661193755932541,2.0864138841409945
1.1809636771059742,-3.6566103792543037,5.682057894773951,2.2415792417619556
1.144397573313431,-3.754452799922475,5.70447368719157,2.407219607758293
1.1068530453142063,-3.858882128397104,5.728545883269153,2.5843030417203514
1.0682642240302351,-3.9711865016844397,5.754388913686357,2.77403951668687
1.0285523590133907,-4.092856296786947,5.782129308853226,2.977933606285654
0.9876237960455212,-4.225628940602874,5.811908644916082,3.1978478481616155
0.9453675066394924,-4.37154356857358,5.843887123397698,3.436078130854556
0.9016520709537567,-4.533005423047333,5.878247904706243,3.6954408470565014
0.8563220167232833,-4.712856844650984,5.915202313176808,3.9793672808471254
0.8091934482767735,-4.914444481924762,5.9549959859852795,4.2919905388883945
0.7600490034575259,-5.141656027469215,5.997915891374164,4.638187438269773
0.7086324431828338,-5.398864068718587,6.044297765756862,5.023487682255632
0.6546438024956479,-5.6906384832709795,6.094532642579418,5.453655913457023
0.5977374176629381,-6.020932492827618,6.1490692017139885,5.933533131660653
0.537528092734662,-6.391150311933898,6.2084045330305955,6.464307292207588
0.473616589615323,-6.796037249439408,6.273047605952671,7.037727760762305
0.4056562171209289,-7.215997304286499,6.343424883560294,7.625307389314813
0.33349624407806394,-7.605861923667837,6.419677957453442,8.162549782870029
0.25743762484138555,-7.887601332118479,6.501303455282142,8.538733988785374
0.17856161152020078,-7.969284842198761,6.586690795169996,8.6236038926478
0.09886876309821316,-7.806363850074363,6.672926834096473,8.353518993606754
0.020805124597469526,-7.451662672657466,6.75646202403254,7.801715466041558
-0.05371150212910514,-7.01465919370542,6.8344791786929555,7.121259482017486
-0.12385809406615933,-6.582949969967983,6.90569177351313,6.434983576773602
-0.18968759376583916,-6.197367841472036,6.970041609280866,5.800527559511349
-0.2516612721805595,-5.8678454701603115,7.028046884875979,5.232379765118994
-0.3103397268821626,-5.59111975398619,7.080370682527169,4.726540794914838
-0.3662509244220245,-5.360041231317856,7.127636090476318,4.273512607981427
-0.4198513367352031,-5.167240114315869,7.170371216556132,3.8634372625235174
-0.47152373787836177,-5.006266299562153,7.209005589181368,3.4877205409035943
-0.5215864008739833,-4.871778778683814,7.243882794590404,3.1393306544830066
-0.5703041886608214,-4.759427515509661,7.275276101135234,2.8126660254671383
-0.6178984638159181,-4.665664987286365,7.303402761389906,2.5033220028045857
-0.6645551136887817,-4.58756661113378,7.328435981417952,2.2078666266681215
-0.7104307798001195,-4.522681376009101,7.3505146476846335,1.923654792448301
-0.7556575935602104,-4.468914231869456,7.369751195609116,1.648682379882197
-0.800346735878905,-4.424436037143046,7.386238019407938,1.3814736591000405
-0.8445910962503355,-4.387616000913104,7.400052755998939,1.1209939187147206
-0.8884672562594665,-4.3569721838732125,7.411262695186086,0.8665801021192584
-0.9320369780981986,-4.331136523151739,7.4199284962072785,0.617883620910421
-0.975348343329716,-4.308831619550923,7.426107332416382,0.3748208969795096
-1.0184366595252252,-4.288857074354901,7.4298555413861775,0.13752842796586942
-1.0613252302687741,-4.270083499559472,7.431230825665836,-0.09367973784279615
-1.1040260652643688,-4.251452501307058,7.430294028287409,-0.318353279620711
-1.1465405902774393,-4.231981013745675,7.427110495491202,-0.5359459845068751
-1.188860400414896,-4.210768401077715,7.421751035646133,-0.745854919826189
-1.2309680844256732,-4.1870048027761655,7.414292486447871,-0.9474576035632961
-1.2728381324534348,-4.159979310248129,7.404817910412238,-1.1401460965173038
-1.314437925555916,-4.129086753320059,7.393416449447065,-1.32335686524313
-1.3557287930891166,-4.093832141876234,7.380182880794633,-1.496595387151044
-1.396667114507879,-4.053832132972619,7.3652169269231225,-1.659454752339337
-1.4372054358376052,-4.008813244387353,7.348622379399729,-1.8116279059596745
-1.4772935682814787,-3.9586068737043973,7.330506100340132,-1.9529136051674039
-1.5168796370185227,-3.903141472036131,7.310976964288458,-2.0832165723523777
-1.5559110517388839,-3.8424324370691982,7.290144798564934,-2.202542659585463
-1.5943353761095758,-3.7765704181273505,7.268119371969079,-2.3109900650845208
-1.6321010802908493,-3.7057087668848694,7.245009471318234,-2.4087377491282482
-1.669158167959698,-3.630050832990757,7.220922093826951,-2.496032191277593
-1.7054586762896056,-3.5498377131105183,7.195961771914176,-2.5731735337503263
-1.7409570534207108,-3.465336936390571,7.1702300365766725,-2.640501995325476
-1.7756104227846166,-3.376832429604457,7.143825016623418,-2.6983852454308836
-1.809378747080661,-3.284615968046777,7.116841164169109,-2.7472072249651713
-1.8422249067611287,-3.188980195479078,7.089369091919457,-2.7873587088523943
-1.8741147087159196,-3.0902131950081886,7.061495504830933,-2.8192297384529383
-1.9050168406660015,-2.9885945153442988,7.033303207446404,-2.8432039165587355
-1.9349027858194445,-2.884392502936828,7.0048711682808165,-2.8596544554971612
-1.9637467108488127,-2.7778627575047143,6.976274623725845,-2.8689417980003986
-1.9915253384238598,-2.669247512939031,6.947585205745841,-2.8714125869939027
-2.01821781355325,-2.5587757436781513,6.918871079875902,-2.8673997394165007
-2.0438055709900316,-2.446663804891635,6.890197082481737,-2.857223375620089
-2.068272209038948,-2.3331164301071876,6.861624848725536,-2.841192365261883
-2.09160337334002,-2.21832792980922,6.833212925072917,-2.8196062690435317
-2.113786652638112,-2.1024834571222857,6.805016862382482,-2.792757480072107
-2.134811487209335,-1.9857602305363795,6.777089287581761,-2.7609333966192593
-2.154669089514699,-1.8683286276665156,6.749479953615569,-2.7244184878167212
-2.173352375791364,-1.7503530874574347,6.722235768737401,-2.683496143970498
-2.1908559066659388,-1.6319927804096477,6.6954008072976965,-2.638450232640211
-2.207175834470035,-1.5134020267928738,6.6690163049712945,-2.58956630956887
-2.222309854737964,-1.3947304609865412,6.643120641875606,-2.537132459268343
-2.2362571593478293,-1.2761229556768834,6.6177493172829225,-2.4814397629912985
-2.2490183889045983,-1.1577193323599535,6.592934919653009,-2.422782411486007
-2.260595582228198,-1.039653894261148,6.56870709553815,-2.361457495990035
-2.2709921211708095,-0.9220548243119379,6.545092520578249,-2.2977645231631327
-2.280212669413929,-0.8050434942790557,6.522114875346618,-2.232004708031656
-2.2882631043567194,-0.6887337317072386,6.499794828266301,-2.1644801036209715
-2.295150441673792,-0.5732310893228991,6.478150027230091,-2.095492627050316
-2.300882752567021,-0.4586321573638772,6.457195100959588,-2.025343039859196
-2.3054690741406594,-0.3450239534331272,6.436941670560996,-1.954329935740542
-2.308919313674991,-0.23248341744233006,6.417398371203591,-1.882748782262781
-2.311244147849414,-0.12107703153589192,6.398570883380963,-1.8108910551930528
-2.312454918164773,-0.010860577053864506,6.380461972829033,-1.7390434953002851
-2.3125635239353115,0.0981209669704579,6.36307153787603,-1.66748750858762
-2.311582314265607,0.20583338623220482,6.346396662790154,-1.596498722271919
-2.3095239804032848,0.31225306303483924,6.330431675567435,-1.5263467008930693
-2.3064014497729364,0.41736669123039194,6.315168208558504,-1.4572948199938296
-2.3022277828606326,0.521170891794546,6.300595260358565,-1.3896002890555337
-2.2970160739426873,0.623671749501273,6.28669925746801,-1.3235143109050247
-2.2907793564476746,0.724884293039971,6.27346411435896,-1.2592823616416802
-2.2835305135172748,0.8248319419000166,6.260871290742544,-1.1971445732244295
-2.2752821940982746,0.9235459435777904,6.2488998450103,-1.1373362001157135
-2.266046734662497,1.0210648242980889,6.237526483009143,-1.0800881516829477
-2.255836086419516,1.117433875645729,6.226725601492313,-1.0256275732766085
-2.244661747663059,1.2127046984270076,6.2164693257595465,-0.9741784609070259
-2.2325347006787886,1.3069348238640157,6.206727541150476,-0.9259622971099398
-2.219465352440148,1.4001874309905913,6.197467918179377,-0.8811986988228034
-2.2054634781302425,1.4925311779729535,6.188655931191149,-0.8401060718114548
-2.190538166350513,1.5840401641115567,6.180254870473035,-0.802902270336933
-2.1746977647093972,1.6747940385723639,6.172225847769665,-0.7698052653074251
-2.1579498243236737,1.7648782715174491,6.164527795116591,-0.7410338291183951
-2.1403010416084993,1.85438460332705,6.157117456825407,-0.7168082507671528
-2.121757195575229,1.943411688103304,6.149949374317735,-0.6973511006824773
-2.1023230786941958,2.0320659487071158,6.142975863310911,-0.6828880711050068
-2.0820024192071247,2.120462662309997,6.13614698259986,-0.6736489248839816
-2.0607977925840246,2.208727297974711,6.1294104933510205,-0.6698685933412075
-2.0387105196042774,2.29699713127833,6.122711807417608,-0.6717884725444694
-2.015740548291494,2.3854231656660687,6.115993922692163,-0.6796579771154927
-1.9918863166348333,2.4741723963289375,6.109197342921008,-0.6937364217971468
-1.9671445926715438,2.5634304602402755,6.102259978703037,-0.7142953136897623
-1.941510288069141,2.6534047259265288,6.0951170255661395,-0.7416211526488552
-1.9149762408098758,2.7443278889941394,6.087700814039651,-0.7760188541590631
-1.8875329619199344,2.836462154819844,6.07994062549806,-0.8178159284017186
-1.8591683403717358,2.9301041085433233,6.071762466214043,-0.8673675714764677
-1.8298672992863025,3.0255903948565757,6.063088790499278,-0.9250628498442767
-1.7996113953377368,3.1233043560090272,6.053838162000836,-0.9913321865137124
-1.7683783517776466,3.2236838051713086,6.043924840135698,-1.0666563856697577
-1.7361415137259335,3.3272301416262304,6.033258276279001,-1.1515774575630262
-1.7028692123096711,3.4345190392443508,6.02174250170337,-1.2467115196824103
-1.6685240219172277,3.5462129502644326,6.009275386506546,-1.3527640381084052
-1.6330618924145834,3.6630756428800404,5.995747746125462,-1.4705476051553308
-1.596431135985783,3.785988896216253,5.9810422700739085,-1.6010022711380913
-1.5585712470236204,3.9159712401490476,5.965032247362528,-1.7452180579185381
-1.51941153462213,4.054198120565623,5.947580066783343,-1.9044584932355912
-1.4788695534164737,4.202021854232527,5.928535481850987,-2.0801824758921135
-1.4368493348741485,4.360987773444055,5.9077336570920655,-2.2740588892302793
-1.393239457139708,4.532839253047906,5.884993068199763,-2.4879629959727896
-1.347911064609229,4.719497438444033,5.860113438240035,-2.723933763059079
-1.3007160902247885,4.922988991378986,5.832874100609444,-2.9840534193120365
-1.2514862003109986,5.145273059863872,5.803033566416324,-3.270179167550174
-1.2000334697123598,5.387881448063818,5.770331774740822,-3.583404394274812
-1.1461546552317217,5.65122914301903,5.734497730798074,-3.923046905876587
-1.0896423638015313,5.933384188128186,5.695267261739308,-4.284866863889088
-1.0303085219202495,6.228063813696934,5.652418593100417,-4.658189323190624
-0.9680278837832801,6.521837669657678,5.605836699868511,-5.021915375598402
-0.9028095070867033,6.791383767910308,5.555617546112527,-5.34063919992941
-0.8348956694076002,7.00354114970811,5.502211154113232,-5.564785362413747
-0.764860257910519,7.12267328928079,5.446563300489095,-5.641190601949278
-0.6936335250177111,7.1267048375007125,5.390151394469602,-5.536082851440883
-0.6223664766427041,7.0219760042156105,5.334790565955194,-5.256483837767748
-0.5521467166005479,6.841244416938366,5.282225727577516,-4.8477241011421475
-0.4837342724311643,6.625410506961711,5.233748486566094,-4.367675995915839
-0.4174801673615472,6.4067614384589,5.190071726606936,-3.8628228990353053
-0.35341255297695817,6.203999368630905,5.151443497616583,-3.3608733146745013
-0.2913725592906491,6.025114282428574,5.117834764469838,-2.8745544298190677
-0.23112141646636336,5.871770063659012,5.0890892201716476,-2.407690521399725
-0.17240371582977324,5.742511624093226,5.0650123149576505,-1.9597197172492247
-0.11497859958884096,5.634587219959099,5.045415117785158,-1.5283054642518832
-0.058632727389249975,5.544849868329499,5.030132063142639,-1.1106644106572248
-0.003184228705954986,5.47015482483517,5.019025419036066,-0.704182944613027
0.05151731954239672,5.407507833498873,5.011983589589936,-0.306674649429769
0.10559239787738545,5.3540995437665035,5.008916843095638,0.08353358035293834
0.1591333933150505,5.307293488533369,5.009752178899167,0.4675935979479901
0.21220632820038418,5.264599869970245,5.014428114878647,0.8461622546244492
0.26485232690008664,5.223650010536248,5.022889737424891,1.2194422136516105
0.3170888270054491,5.182177880432805,5.035084159561407,1.5872293498013577
0.36891060580977714,5.138011011935903,5.05095645305942,1.9489640664699586
0.42029071592913614,5.089071073388805,5.07044609372412,2.303786034783488
0.4711814266630242,5.033383301874449,5.093483954071955,2.650592486144318
0.5215152596817687,4.969093371305189,5.1199898789333975,2.9881000742687966
0.5712061933948206,4.894489876070287,5.149870879676086,3.314909884256006
0.6201510921555234,4.80803035018157,5.1830199785186455,3.62957463540715
0.6682313956573391,4.708368589692734,5.219315724872717,3.9306666338248397
0.7153150815542665,4.594380996715642,5.258622391210966,4.2168446553274315
0.7612588915214229,4.465189716541849,5.30079083776424,4.486917716290086
0.8059107886868414,4.320180493722697,5.345660014927141,4.739903631333647
0.8491125936240684,4.159013424683213,5.393059051240478,4.975080358046082
0.8907027278709005,3.9816251283558133,5.442809854820939,5.192028378331717
0.9305189791544587,3.7882212857166113,5.494730138604256,5.3906627499233055
0.9684011920116248,3.579259003288313,5.548636766103489,5.5712539661778475
1.004193782044508,3.3554190155132013,5.604349305765267,5.7344373705708165
1.0377479721996399,3.117568324496954,5.661693679470975,5.881211558919107
1.0689236554446093,2.866714436774489,5.720505795060166,6.012926928581739
1.0975907998123542,2.603952838448035,5.780635064345984,6.131266246455875
1.1236303281968345,2.330409693598977,5.841947726810543,6.238219742885482
1.1469344251328242,2.047181909133658,5.904329924239398,6.336057731319488
1.1674062442241608,1.7552766610794972,5.9676905015525925,6.427304046301296
1.184959010834956,1.4555522406660053,6.031963542015605,6.514713640676071
1.199514533241616,1.1486617208491603,6.097110678422366,6.6012574490834215
1.2110011504501075,0.8350005943643888,6.1631232529132,6.690117053196301
1.2193511563937514,0.5146594060790193,6.230024423445164,6.7846906474524
1.2244977504545416,0.18738284391555615,6.297871329919688,6.888610002244423
1.226371578893697,-0.1474616399204065,6.366757429942132,7.005764897122067
1.224896962494493,-0.490898760194298,6.436815078913353,7.140325493652463
1.21998797489255,-0.8443288972986209,6.508218333849878,7.2967416567678445
1.2115446859195638,-1.2094492153937169,6.581185750417556,7.479676207991088
1.1994501937656266,-1.588051028890281,6.655982512497467,7.693787235443976
1.1835696834767238,-1.9815764756066079,6.732920384851907,7.943197603697671
1.1637539187206576,-2.3902234488728755,6.812352360888884,8.230358018185244
1.1398516842319288,-2.811253722675137,6.894655941070736,8.553819127987234
1.1117391470051774,-3.236056426940827,6.980194132350609,8.904272615989603
1.0793785827357691,-3.6457644542706564,7.0692368585105045,9.25853525488944
1.0429209381930626,-4.006660234589146,7.161822211059399,9.573105600169677
1.002854335847171,-4.2702798503801604,7.257553267061096,9.78398311612801
0.9601515373433694,-4.386825136819247,7.355393098222375,9.82459497967529
0.9162832859751769,-4.333226624936624,7.453639048019128,9.663744034609426
0.8729510197258107,-4.133485846241048,7.550276488365222,9.332956579733102
0.8316161612634002,-3.844817575132909,7.643606054162554,8.907294742701964
0.7931679855120711,-3.523927535860443,7.732679001589573,8.459816914082332
0.7579287101534667,-3.2075704972658308,7.817277170730397,8.036130155303898
0.7258530051808084,-2.9130944309395903,7.897638472283436,7.655980280631732
0.6967220608714125,-2.6459341154896907,7.974198275089753,7.3237608937896805
0.6702627197165156,-2.405789127987413,8.04743588402765,7.036871560874676
0.6462048284366415,-2.1901096174307884,8.117804599636397,6.790291692646435
0.6243037322623336,-1.995747488889367,8.18570751656286,6.578658235099533
0.6043462573734399,-1.8196473046030488,8.251494098913856,6.397072511650315
0.5861497843274095,-1.6590905228579826,8.315464824030359,6.241336153001281
0.5695588790988296,-1.5117475541088694,8.377878185560371,6.107954240478822
0.554441403557741,-1.3756544820691015,8.43895772796516,5.994056193399992
0.54068485873705,-1.2491656045508477,8.498898289899161,5.897297382837347
0.5281932026915415,-1.130903055970718,8.557871263727534,5.815765645526514
0.5168841721318342,-1.0197115688950498,8.6160289201828,5.74790031017311
0.5066870564428837,-0.9146207921744699,8.67350792328453,5.692424623379936
0.497540848521139,-0.8148153187265639,8.73043216951833,5.64828998255937
0.48939269533387336,-0.7196117916042813,8.786915069343925,5.614629675007039
0.48219657741783056,-0.6284423006399252,8.843061366093995,5.590719807174038
0.4759121544114313,-0.5408433723026236,8.898968564165735,5.575945327147999
0.47050372068840507,-0.4564500217445985,8.954728017437214,5.56976931273804
0.4659392204709591,-0.37499449973190774,9.010425710564594,5.5717039570189
0.46218927547364,-0.2963094868321804,9.066142750134782,5.58128192983552
0.4592261806053182,-0.22033553250560042,9.121955569433137,5.5980270546860185
0.4570228252802622,-0.1471324756793268,9.177935839979996,5.6214235620138355
0.45555150052346893,-0.07689437712287817,9.234150075600136,5.6508836235454
0.45478255675224016,-0.0099670972547318,9.290658911835589,5.685713509158913
0.45468288577969285,0.053132977766089065,9.347516046927177,5.72507960792256
0.45521421555735375,0.11170144713506908,9.404766843006403,5.767976763765197
0.45633123002870446,0.1648331453776033,9.462446610644054,5.813202872934448
0.4579795614824805,0.2114188466308077,9.520578639373399,5.859345327110496
0.46009374994878854,0.25015716512434344,9.579172092644503,5.904786317987403
0.462595321600032,0.27958775981411943,9.638219955824377,5.947734657937195
0.4653911991981732,0.2981510284953076,9.69769730240375,5.986290822429925
0.46837270948312626,0.30427664202066274,9.75756021062805,6.018548580789044
0.4714154759033329,0.29649822439462675,9.81774569643594,6.042730446667978
0.47438045814727914,0.27358467726311025,9.87817300090262,6.057345774286085
0.47711630491991025,0.23467157964462754,9.93874645864548,6.06135150604664
0.47946302071635655,0.17937119173529611,9.999359973705948,6.054289369443831
0.4812567326337095,0.10783940563187884,10.059902867400385,6.036372922440766
0.48233512669002826,0.020783892167263063,10.120266596624793,6.0085049891230895
0.4825429656117009,-0.08059121007185052,10.180351646516025,5.9722195986630915
0.4817370535109824,-0.19469566521711923,10.240073842502655,5.929558527736259
0.4797900968588112,-0.3196994334818761,10.299369427780018,5.882905676239492
0.47659310252399245,-0.4536906427516555,10.358198484542413,5.83480872149114
0.4720561960964759,-0.5948224322639042,10.416546571757324,5.787815727635244
0.4661079717738369,-0.7414322910655798,10.474424729033677,5.74434660144023
0.4586936488631811,-0.8921260407847844,10.531868195048078,5.706609051150285
0.44977238845533324,-1.045826472842782,10.588934285559581,5.676559386583093
0.4393141237269054,-1.2017921667730533,10.645699879425413,5.655902105667321
0.4272962020591749,-1.359614775061587,10.702258900482086,5.64611921289418
