th1 (rad),w1 (rad/s),th2 (rad),w2 (rad/s),a1 (rad/s^2),a2 (rad/s^2)
3.581975326676828,0.6214628956878985,2.3902725995405265,-0.7639691680889658,5.451221803460593,-8.34810497659045
3.588189955633707,0.6759751137225044,2.382632907859637,-0.8474502178548703,5.36777310642417,-8.234458057576502
3.594949706770932,0.7296528447867461,2.3741584056810883,-0.9297947984306353,5.277285529832378,-8.113531246258875
3.6022462352187996,0.7824257000850698,2.364860457696782,-1.010930110893224,5.180397352931517,-7.9862337388571865
3.6100704922196503,0.834229673614385,2.3547511565878496,-1.090792448281796,5.077784019090356,-7.853531356043691
3.618412788955794,0.8850075138052886,2.3438432321050318,-1.1693277618422329,4.9701508150231835,-7.7164350646313125
3.627262864093847,0.9347090219555205,2.3321499544866096,-1.246492112488546,4.858224830751916,-7.57598844708392
3.6366099543134025,0.9832912702630396,2.3196850333617243,-1.3222519969593851,4.742746457581213,-7.433254447015439
3.6464428670160327,1.0307187348388518,2.3064625133921304,-1.3965845414295395,4.62446072259559,-7.28930176188448
3.656750054364421,1.0769633420648077,2.292496667977835,-1.4694775590483842,4.504108780802042,-7.145191268463118
3.6675196877850693,1.1220044298728282,2.2778018923873513,-1.5409294717330153,4.382419889667254,-7.001962851494439
3.678739732083798,1.1658286287695008,2.262392597670021,-1.6109491002479597,4.260104177075099,-6.860622963000918
3.690398018371493,1.2084296705402517,2.2462831066675415,-1.6795553298779689,4.137846485989475,-6.722133172832547
3.7024823150768955,1.2498081354001465,2.2294875533687617,-1.7467766616062943,4.0163015419064045,-6.587399885528805
3.714980396430897,1.2899711508192104,2.2120197867526987,-1.8126506604615824,3.8960906477586787,-6.45726530029394
3.727880107939089,1.3289320572967973,2.193893280148083,-1.8772233134645218,3.7778000706929604,-6.332499585545447
3.741169428512057,1.366710058003727,2.175121047013438,-1.9405483093199762,3.661981251173719,-6.213794131923686
3.754836529092094,1.4033298705154642,2.1557155639202383,-2.002686250639213,3.5491529416552727,-6.101755641323271
3.768869827797249,1.438821399932017,2.135688701413846,-2.063703807052446,3.4398053732579825,-5.996900706267852
3.7832580417965693,1.4732194536645968,2.115051663343322,-2.1236728141151247,3.334406557252862,-5.899650433953763
3.797990236333215,1.5065635192371254,2.0938149352021704,-2.1826693184546624,3.2334108555937515,-5.8103245711521
3.8130558715255867,1.5388976277930628,2.071988242017624,-2.2407725641661833,3.1372700023014066,-5.729134487316412
3.8284448478035173,1.5702703278160768,2.049580516375962,-2.2980639090393473,3.046446825426965,-5.656174270494238
3.844147551081678,1.6007347960703464,2.0265998772855687,-2.3546256517442896,2.9614320068392463,-5.591409080949483
3.8601548990423815,1.630349116138739,2.0030536207681258,-2.4105397425537847,2.882764322000467,-5.534659789039141
3.876458390203769,1.6591767593587436,1.978948223342588,-2.465886340444176,2.811054919720144,-5.485582798097731
3.893050157797356,1.687287308555945,1.9542893599381461,-2.5207421684251536,2.7470163242328076,-5.443643826593086
3.909923030882916,1.714757471798273,1.9290819382538946,-2.5751786066910847,2.6914969540026954,-5.408084312621142
3.9270706056008984,1.7416724413383,1.9033301521869839,-2.629259449817296,2.645522028099271,-5.377879038870709
3.9444873300142813,1.7681276616192927,1.877037557688811,-2.6830382402060033,2.6103417299442158,-5.351683611899629
3.9621686066304744,1.7942310789187348,1.850207175286751,-2.7365550763249997,2.587487352552021,-5.327770655897894
3.980110917419662,1.820105952444255,1.822841624523501,-2.7898327828839786,2.5788357546472254,-5.303954140408043
3.9983119769441045,1.8458943099907275,1.7949432966946612,-2.842872324288059,2.586681656208173,-5.2775023700702475
4.016770920044012,1.8717611265528091,1.7665145734517806,-2.8956473479887612,2.613815868024502,-5.2450421376322724
4.03548853130954,1.897899285233054,1.737558099971893,-2.948097769365084,2.663605170656506,-5.202459815814767
4.054467524161871,1.9245353369396192,1.708077122278242,-3.0001223675232316,2.7400658343543975,-5.144810302665321
4.073712877531268,1.9519359952831632,1.6780758986030098,-3.0515704705498847,2.8479172484589736,-5.066252388477117
4.0932322374840995,1.9804151677677528,1.6475601938975108,-3.102232994434656,2.9925944019652353,-4.960039875363253
4.113036389161777,2.010341111787405,1.6165378639531642,-3.1518333931882885,3.1801879113952682,-4.81861186697031
4.1331398002796504,2.0421429909013575,1.5850195300212813,-3.2000195118579917,3.4172685585785034,-4.633842259418607
4.153561230188664,2.0763156764871424,1.5530193349027013,-3.2463579344521776,3.7105420012799426,-4.397524761103766
4.174324386953536,2.113421096499942,1.5205557555581795,-3.290333182063215,4.066273084467709,-4.1021794232338555
4.1954585979185355,2.154083827344619,1.4876524237375472,-3.331354976295554,4.489426152848817,-3.7422584223838706
4.216999436191982,2.198978088873107,1.4543388739745917,-3.3687775605193924,4.982499770301325,-3.315786190110506
4.238989217080713,2.24880308657612,1.4206510983693978,-3.4019354224204976,5.5441045349354106,-2.8263731588280754
4.261477247946474,2.3042441319254743,1.386631744145193,-3.430199154008778,6.167449109598408,-2.285381653971312
4.284519689265729,2.365918623021458,1.3523297526051052,-3.4530529705484914,6.839052191577564,-1.7138094312405097
4.308178875495944,2.4343091449372336,1.3177992228996203,-3.4701910648608965,7.538144136548399,-1.1432491400635287
4.3325219669453165,2.5096905863027175,1.2830973122510112,-3.481623556261532,8.237279554750351,-0.6151936340931272
4.357618872808343,2.592063381850221,1.2482810766883958,-3.4877754926024633,8.904551553645089,-0.17812774960941022
4.383539506626845,2.6811088973866717,1.2134033217623712,-3.4895567700985572,9.50742116151596,0.11763774054388333
4.410350595600712,2.776183109001831,1.1785077540613855,-3.4883803926931183,10.017613722586125,0.22665429006601
4.43811242669073,2.8763592462276923,1.1436239501344543,-3.486113849792458,10.416003600938597,0.11505995956127749
4.466876019153007,2.9805192822370783,1.1087628116365298,-3.4849632501968455,10.696199943629347,-0.2344617614326409
4.496681211975378,3.0874812816733717,1.0739131791345613,-3.4873078678111717,10.865842393146341,-0.8209088328863537
4.527556024792112,3.196139705604835,1.0390401004564496,-3.4955169561400354,10.945334192080422,-1.6268148457984504
4.5595174218481604,3.3055930475256394,1.0040849308950492,-3.5117851045980197,10.964551962405467,-2.6230442380901478
4.5925733523234165,3.4152385671496943,0.968967079849069,-3.5380155469789214,10.958605657738849,-3.7750819428640416
4.626725737994914,3.5248246237270826,0.9335869243792798,-3.575766366407562,10.963794344176012,-5.049246498959956
4.661973984232184,3.6344625671688426,0.8978292607152042,-3.6262588313971613,11.014588973086235,-6.417677387770797
4.698318609903873,3.744608456899705,0.8615666724012325,-3.6904356052748692,11.142002026919338,-7.86160504463452
4.73576469447287,3.8560284771688984,0.8246623163484839,-3.7690516557212144,11.373296257996687,-9.373000109825478
4.774324979244559,3.9697614397488654,0.7869717997912717,-3.862781656819469,11.732752896195045,-10.95505659044462
4.814022593642048,4.087088968710816,0.748343983223077,-3.972332222723915,12.243165360183031,-12.622084754828222
4.854893483329156,4.209520622312646,0.7086206609958379,-4.098553070272198,12.927789896809314,-14.399352850465355
4.896988689552282,4.338798521280739,0.6676351302931159,-4.242546598776851,13.812604102643713,-16.32331595009081
4.94037667476509,4.476924562307176,0.6252096643053474,-4.40577975827776,14.92885178999953,-18.442574103309948
4.985145920388161,4.6262130802071715,0.5811518667225698,-4.590205499310859,16.315965197781324,-20.81984434338027
5.031408051190233,4.789372732184985,0.5352498117294612,-4.798403942744662,18.02504354855385,-23.53521458329295
5.079301778512083,4.969623167670523,0.48726577230201457,-5.033756088577592,20.12311662727933,-26.69094266858981
5.128998010188789,5.170854333943317,0.43692821141623867,-5.30066551526349,22.69838506995066,-30.417985157251827
5.180706553528222,5.397838184642824,0.38392155626360375,-5.604845366836008,25.866355478223817,-34.884062096481024
5.23468493537465,5.656501739425062,0.32787310259524366,-5.953685987800818,29.77585578851748,-40.30178554553598
5.291249952768901,5.9542602973102365,0.2683362427172355,-6.356703843256178,34.6111748096383,-46.931590209698
5.350792555742003,6.300372045406619,0.2047692042846737,-6.826019745353158,40.57893561054357,-55.063592023911696
5.413796276196069,6.7061614015120545,0.13650900683114214,-7.376655665592275,47.84769247053095,-64.93373294965436
5.4808578902111895,7.184638326217364,0.06274245017521939,-8.025992995088819,56.35477867021296,-76.45478287934189
5.552704273473363,7.748186112919494,-0.01751747977566881,-8.790540823882237,65.26990049131302,-88.46743327979
5.630186134602559,8.400885117832624,-0.10542288801449118,-9.675215156680137,71.69967264640628,-96.92779846994684
5.7141949857808845,9.117881844296686,-0.20217503958129257,-10.644493141379606,68.39477835983396,-91.69309810445674
5.805373804223851,9.801829627895026,-0.30861997099508864,-11.561424122424173,43.30504148382149,-55.88778679550243
5.903392100502802,10.234880042733241,-0.4242342122193304,-12.120301990379197,-7.9235096134073215,16.603377992525093
6.005740900930134,10.155644946599168,-0.5454372321231223,-11.954268210453947,-59.53587203321208,89.80520399373759
6.107297350396126,9.560286226267047,-0.6649799142276618,-11.05621617051657,-79.66247323296813,119.31138048182964
6.202900212658797,8.763661493937366,-0.7755420759328275,-9.863102365698275,-73.59293140433239,112.57011010529577
6.290536827598171,8.027732179894043,-0.8741730995898103,-8.737401264645317,-59.83390240825773,95.3020283918706
6.370814149397111,7.429393155811466,-0.9615471122362634,-7.7843809807266116,-46.87055622311513,79.2472328907002
6.445108080955226,6.960687593580315,-1.0393909220435296,-6.991908651819609,-36.43326466854507,66.78720436662742
6.514714956891029,6.596354946894864,-1.1093100085617256,-6.324036608153335,-28.28225913432162,57.5878676504586
6.580678506359978,6.313532355551647,-1.1725503746432588,-5.748157931648749,-21.868880131773604,50.89124846782036
6.643813829915494,6.094843554233911,-1.2300319539597464,-5.239245446970545,-16.72290661737131,46.04411979602577
6.704762265457833,5.927614488060198,-1.2824244084294518,-4.778804249010288,-12.501237462105282,42.56038174234988
6.7640384103384354,5.802602113439145,-1.3302124509195548,-4.353200431586789,-8.966196937623533,40.08709663392551
6.8220644314728265,5.712940144062909,-1.3737444552354225,-3.9523294652475336,-5.9579325210694005,38.362587158971465
6.879193832913455,5.653360818852215,-1.4132677498878978,-3.568703593657819,-3.37320416029535,37.18348101832477
6.935727441101977,5.619628777249261,-1.448954785824476,-3.1968687834745713,-1.1507745074636462,36.381349424987455
6.99192372887447,5.608121032174624,-1.4809234736592218,-2.8330552892246965,0.7385998382475998,35.80694209741469
7.0480049391962165,5.6155070305571,-1.509254026551469,-2.4749858682505494,2.299566602537238,35.320389325015014
7.104160009501787,5.6385026965824725,-1.5340038852339744,-2.1217819750003994,3.5185626880688483,34.78650083586163
7.160545036467612,5.6736883234631605,-1.5552217049839783,-1.773916966641783,4.370350180153174,34.07479588338857
7.217281919702244,5.717391825264692,-1.572960874650396,-1.4331690078078974,4.825379792757931,33.06397313681965
7.274455837954891,5.765645623192271,-1.587292564728475,-1.102529276439701,4.858056138488066,31.650136355637724
7.332112294186814,5.814226184577152,-1.598317857492872,-0.7860279128833237,4.455285720781242,29.75732819426403
7.390254556032586,5.858779041784965,-1.6061781366217052,-0.4884546309406834,3.6240550502548,27.348067685004015
7.448842346450435,5.895019592287513,-1.611062682931112,-0.2149739540906433,2.396465386675703,24.43107156413105
7.507792542373311,5.918984246154269,-1.6132124224720186,0.029336761550667195,0.8308721956828732,21.063588395583682
7.566982384834854,5.927292968111098,-1.612919054856512,0.23997264550650402,-0.9914226419147764,17.346935939902462
7.626255314515965,5.917378741691951,-1.610519328401447,0.4134420049055286,-2.9733538849447676,13.415602482015654
7.685429101932884,5.887645202842503,-1.6063849083523918,0.5475980297256852,-5.011587283525846,9.421985006434499
7.7443055539613095,5.837529330007245,-1.600908928055135,0.6418178797900301,-7.006310757592762,5.5198159384470635
7.802680847261382,5.767466222431317,-1.5944907492572347,0.6970160391745007,-8.86952829356623,1.8492726807908841
7.860355509485695,5.678770939495655,-1.5875205888654897,0.7155087659824095,-10.530758611907435,-1.4741326897741573
7.917143218880652,5.573463353376581,-1.5803655012056657,0.700767439084668,-11.939853013917764,-4.366016297930102
7.972877852414418,5.454064823237403,-1.573357826814819,0.657107276105367,-13.067271176127381,-6.77514242328573
8.027418500646792,5.32339211147613,-1.5667867540537652,0.5893558518725097,-13.902466183169322,-8.681860594457623
8.080652421761554,5.184367449644436,-1.56089319553504,0.5025372459279335,-14.451073741675273,-10.094055074799414
8.132496096257999,5.039856712227683,-1.5558678230757608,0.40159669517993934,-14.731494251481854,-11.041654666403772
8.182894663380276,4.892541769712865,-1.5518518561239614,0.2911801485159016,-14.771309207807013,-11.570574979664896
8.231820081077405,4.7448286776347945,-1.5489400546388024,0.1754743987192527,-14.603844823380093,-11.736762360986132
8.279268367853753,4.5987902294009935,-1.5471853106516098,0.05810677510939137,-14.26509927152306,-11.600819740874398
8.325256270147763,4.456139236685763,-1.5466042429005158,-0.057901422299352606,-13.791175472472963,-11.223525511994733
8.36981766251462,4.318227481961033,-1.5471832571235093,-0.17013667741929994,-13.216296160231362,-10.662404041246383
8.41299993733423,4.18606452035872,-1.5488846238977023,-0.27676071783176376,-12.571416973410479,-9.969372351723141
8.454860582537817,4.060350350624615,-1.55165223107602,-0.3764544413489952,-11.883399252804248,-9.189379421363011
8.495464086044063,3.941516358096573,-1.5554167754895099,-0.4683482355626253,-11.17466299393634,-8.35988026185348
8.534879249625028,3.8297697281572094,-1.5601002578451362,-0.5519470381811601,-10.463216300552938,-7.510949408586804
8.573176946906601,3.72513756515168,-1.5656197282269477,-0.6270565322670281,-9.76295113931353,-6.66583404511956
8.610428322558118,3.6275080537585445,-1.571890293549618,-0.6937148727182236,-9.084103010517005,-5.841767122684438
8.646703403095703,3.5366670236533744,-1.5788274422768003,-0.752132543945068,-8.433789176327608,-5.05089508124728
8.682070073332238,3.452329131890098,-1.5863487677162509,-0.8026414947575408,-7.816561048048247,-4.301213662029099
8.716593364651139,3.3741635214096157,-1.5943751826638264,-0.8456536313778318,-7.234927047788213,-3.5974419404676277
8.750334999865235,3.3018142509317334,-1.6028317189776047,-0.881628050782508,-6.6898201141333375,-2.941795187051751
8.783353142374551,3.2349160497904,-1.6116479994854298,-0.9110460026530256,-6.180997861673875,-2.3346400690340268
8.815702302872456,3.1731060711736614,-1.62075845951196,-0.9343924033433658,-5.707373140925631,-1.775031323490458
8.847433363584193,3.116032339764405,-1.6301023835453936,-0.9521427165782704,-5.267278909149954,-1.2611385509488975
8.878593686981837,3.0633595506729057,-1.6396238107111762,-0.9647541020877594,-4.858674701558132,-0.7905766924459875
8.909227282488565,3.0147728036573245,-1.6492713517320539,-0.9726598690122192,-4.4793033907536985,-0.360655488247992
8.939375010525138,2.9699797697497874,-1.6589979504221761,-0.9762664238946992,-4.126807033479254,0.031437045866955886
8.969074808222636,2.9287116994149947,-1.6687606146611231,-0.9759520534360296,-3.7988099637623525,0.3885034649510292
8.998361925216786,2.8907235997773713,-1.6785201351954835,-0.9720670187865194,-3.4929762805543794,0.7132462846678401
9.02726916121456,2.8557938369718276,-1.6882408053833486,-0.9649345559398409,-3.207047744955981,1.0082081334249307
9.05582709958428,2.8237233595222677,-1.697890150942747,-0.9548524746055916,-2.938866996525518,1.2757347779025419
9.084064333179501,2.7943346895570125,-1.707438675688803,-0.9420951268265663,-2.686389999410472,1.5179548075538065
9.112007680075072,2.767470789562908,-1.7168596269570686,-0.9269155787510281,-2.447690770775883,1.7367711800418966
9.139682387970701,2.742993881855149,-1.7261287827445788,-0.9095478669506092,-2.2209607320634888,1.9338609890132943
9.167112326789253,2.7207842745345143,-1.735224261414085,-0.8902092570604763,-2.004504448479319,2.110680741154486
9.194320169534597,2.700739230049721,-1.7441263539846896,-0.8691024496489314,-1.796733067006457,2.268475153544431
9.221327561835094,2.6827718993796563,-1.752817378481179,-0.846417698113487,-1.5961564091038476,2.4082880392110004
9.248155280828891,2.6668103352886177,-1.7612815554623138,-0.822334817721377,-1.4013744025091859,2.5309742707551552
9.274823384181778,2.6527965912635256,-1.7695049036395276,-0.7970250750138254,-1.2110683305397207,2.6372121272270697
9.301351350094412,2.6406859079581286,-1.7774751543896659,-0.7706529537415546,-1.0239922227594813,2.7275155619451072
9.327758209173993,2.630445985730534,-1.7851816839270813,-0.7433777981221036,-0.8389645961588681,2.802246098122234
9.354062669031299,2.622056339768945,-1.7926154619083023,-0.7153553371408813,-0.6548606717237119,2.861624180632594
9.380283232428988,2.615507733051708,-1.7997690152797112,-0.6867390953345553,-0.47060513016955463,2.905739898404557
9.406438309759505,2.6108016817500124,-1.8066364062330569,-0.6576816963505098,-0.285165427151496,2.934563052551348
9.432546326577006,2.6079500274784975,-1.813213223196562,-0.6283360658249962,-0.0975456583695907,2.947952588212515
9.45862582685179,2.606974570894802,-1.819496583854812,-0.5988565399428711,0.09321905415998336,2.9456654394474007
9.484695572560739,2.6079067614364018,-1.8254851492542408,-0.5693998855483972,0.2880676936046824,2.9273648616168835
9.510774640175102,2.6107874383724488,-1.8311791481097248,-0.5401262369322283,0.4879180386807239,2.8926283490843043
9.536882514558826,2.615666618759256,-1.836580410479047,-0.5111999534413852,0.6936709481616319,2.840955262037793
9.563039180746419,2.622603328240872,-1.8416924100134608,-0.4827904008210073,0.9062142602885203,2.7717743190989346
9.589265214028828,2.6316654708437572,-1.8465203140216708,-0.455072657630018,1.1264263030561736,2.684451156825857
9.615581868737266,2.642929733874319,-1.8510710405979711,-0.4282281460617594,1.3551789737976487,2.5782962186603426
9.642011166076008,2.6564815236122956,-1.8553533220585887,-0.402445183875156,1.5933402925574287,2.452573320867839
9.66857598131213,2.67241492653787,-1.8593777738973403,-0.3779194506664776,1.8417762584395196,2.306509359754596
9.69530013057751,2.690832689122265,-1.863156968404005,-0.35485435706893165,2.1013517347196133,2.1393057832991347
9.722208457468732,2.711846206469461,-1.8667055119746943,-0.3334612992359403,2.37292994809979,1.9501526645803084
9.749326919533425,2.735575505950459,-1.8700401249670537,-0.31395977259013724,2.6573699983675305,1.738246500994868
9.77668267459293,2.7621492059341346,-1.8731797226929552,-0.2965773075801886,2.9555215217851165,1.5028132437686437
9.80430416665227,2.791704421151986,-1.876145495768757,-0.28154917514250216,3.2682153155854654,1.2431385635828915
9.832221210863791,2.8243865743078405,-1.878960987520182,-0.26911778950667326,3.5962482882296727,0.9586080129987933
9.86046507660687,2.8603490571901373,-1.8816521654152487,-0.25953170937668535,3.9403605223169897,0.648760592919439
9.889068567178771,2.899752662413307,-1.8842474825090156,-0.25304410344749095,4.301201492702908,0.31336030980880974
9.918066093802905,2.942764677340336,-1.8867779235434905,-0.24991050034940285,4.679281540382989,-0.047508338959714194
9.947493740576308,2.989557492744166,-1.8892770285469844,-0.250385583739,5.0749035406281005,-0.433313370055216
