th1 (rad),w1 (rad/s),th2 (rad),w2 (rad/s)
0.49277870467054113,-1.3439126637347247,2.3811299157899763,0.5652686260604679
0.4793395780331939,-1.4049564805106858,2.386782602050581,0.4615028643435344
0.465290013228087,-1.4666827623096976,2.3913976306940166,0.3553374387183672
0.45062318560499004,-1.5289600035381354,2.3949510050812,0.24668977985635093
0.43533358556960866,-1.5916469657604266,2.3974179028797638,0.13549034038675625
0.41941711591200437,-1.6545916548613735,2.398772806283631,0.021684102200740046
0.4028711993633906,-1.717630325367738,2.3989896473056387,-0.09476787844107838
0.38569489610971325,-1.780586530831728,2.3980419685212278,-0.2138869112163274
0.36788903080139596,-1.8432702410819155,2.3959030994090647,-0.335675124026779
0.3494563283905768,-1.9054770487578085,2.3925463481687967,-0.4601139569458712
0.3304015579029987,-1.9669874887660246,2.387945208599338,-0.5871627302492413
0.31073168301533843,-2.027566495040248,2.3820735812968454,-0.7167573211477658
0.29045601806493593,-2.086963019182098,2.3749060080853677,-0.8488089853590477
0.26958638787311495,-2.1449098351597375,2.366417918231777,-0.9832033603768071
0.2481372895215176,-2.201123553233313,2.356585884628009,-1.1197996871630795
0.22612605398918445,-2.255304864688477,2.3453878877563783,-1.2584302859902814
0.2035730053422997,-2.307139036860196,2.3328035848964754,-1.3989003203636459
0.18050161497369774,-2.356296675425562,2.318814581692839,-1.540987880496841
0.15693864821944212,-2.402434768171344,2.3034047028878706,-1.6844444148995832
0.13291430053772868,-2.4451980215449023,2.286560258738875,-1.828995535521164
0.10846232032227965,-2.484220498407686,2.2682703033836633,-1.9743422188556226
0.0836201153382028,-2.5191275626168617,2.248526881195107,-2.120162422713152
0.05842883971203418,-2.5495381333742273,2.227325256967976,-2.2661131361933915
0.032933458378291904,-2.575067249605807,2.2046641256060417,-2.411832878837648
0.007182785882233835,-2.595328941740765,2.180545796817665,-2.5569446639009574
-0.018770503535173812,-2.6099394047696944,2.1549763501786554,-2.7010594398794447
-0.04486989758287076,-2.6185204618671754,2.127965755779861,-2.843780023340714
-0.07105510220154251,-2.620703301543031,2.0995279555464537,-2.9847055340128708
-0.09726213521697283,-2.6161324625772178,2.069680900206325,-3.123436339109802
-0.123423459842745,-2.604470029276052,2.038446536815227,-3.2595795070569236
-0.1494681601355055,-2.58539998440526,2.005850741744658,-3.3927547602482124
-0.1753221599795581,-2.5586326483446307,1.9719231941421758,-3.522600901559767
-0.2009084864630044,-2.523909110834402,1.9366971851265782,-3.6487826698350045
-0.22614757757134843,-2.4810055369511295,1.9002093584282282,-3.770997955813271
-0.2509576329408597,-2.4297372030763724,1.8624993788700954,-3.8889852831232083
-0.2752550049716234,-2.3699620936253067,1.8236095260388634,-4.002531430968433
-0.29895462590787647,-2.3015838677066505,1.7835842117291791,-4.111479048779372
-0.321970464584943,-2.2245539895018553,1.7424694212413854,-4.215734091849351
-0.34421600447996153,-2.1388728097602905,1.700312080322892,-4.315272894666072
-0.36560473257756443,-2.0445893907503625,1.6571593513762313,-4.410148699130756
-0.38605062648506805,-1.9417998847461686,1.6130578643849236,-4.500497471468605
-0.40546862533252975,-1.8306443068353628,1.5680528896702375,-4.586542876723059
-0.42377506840088336,-1.7113015850826616,1.5221874609030068,-4.668600334221364
-0.44088808425171,-1.5839828217400833,1.4755014575607932,-4.747080150552728
-0.4567279124691108,-1.4489227535355589,1.428030656055266,-4.822489815969781
-0.4712171400044664,-1.3063694511600537,1.3798057578955683,-4.895435651822626
-0.48428083451606696,-1.1565723413702125,1.330851401377342,-4.966624105835348
-0.49584655792976906,-0.9997686632605141,1.2811851603189885,-5.036863103631298
-0.5058442445623742,-0.8361684779025385,1.2308165292826756,-5.107063974186654
-0.5142059293413996,-0.665938334296245,1.179745889540809,-5.178244569954747
-0.5208653126843621,-0.4891836539086227,1.1279634438412616,-5.251534296127241
-0.5257571492234483,-0.3059298345403988,1.0754481008799892,-5.328181844493547
-0.5288164475688523,-0.11610200137175264,1.0221662824350537,-5.409566489346988
-0.5299774675825698,0.0804967322196731,0.9680706175415839,-5.497213831262512
-0.5291725002603731,0.2842086536942158,0.9130984792289587,-5.592816835917751
-0.5263304137234309,0.49554656347370485,0.8571703108697812,-5.69826283725959
-0.5213749480886939,0.7152203656893215,0.8001876824971853,-5.8156667082301645
-0.5142227444318007,0.9441641118579607,0.7420310154148837,-5.947409349159364
-0.5047811033132211,1.1835607841592746,0.6825569219232901,-6.096178414770448
-0.49294549547162836,1.4348586642310408,0.6215951377755856,-6.26500364707337
-0.47859690882931794,1.699766326620175,0.5589451013048519,-6.4572700875682925
-0.46159924556311616,1.9802000920756964,0.49437240042916897,-6.676674604054249
-0.4417972446423592,2.278132657870016,0.42760565438862647,-6.9270568661721335
-0.419015918063659,2.5952452474858685,0.35833508572690514,-7.211971936347761
-0.39306346558880034,2.9322047816120924,0.28621536636342754,-7.533759023012121
-0.36374141777267943,3.2872634459375165,0.21087777613330633,-7.891685895992637
-0.33086878331330427,3.6537460963244652,0.13196091717337993,-8.27855718363666
-0.2943313223500596,4.016059855432694,0.04917534533701333,-8.67525225901843
-0.2541707237957327,4.344784267038152,-0.037577177253170974,-9.043909776962074
-0.21072288112535117,4.59434078136449,-0.12801627502279173,-9.32452150398939
-0.16477947331170628,4.711277713957419,-0.22126149006268564,-9.445985148592992
-0.11766669617213209,4.659241139248411,-0.3157213415486156,-9.35999426208982
-0.07107428477964797,4.446394969981273,-0.4093212841695138,-9.078165543261232
-0.02661033507983524,4.123692768413863,-0.5001029396021262,-8.669140659183592
0.014626592604303393,3.752547906272917,-0.5867943461939621,-8.21429455081388
0.05215207166703256,3.3775256380057335,-0.6689372917021009,-7.771138614710152
0.0859273280470899,3.0215512160133273,-0.7466486778492024,-7.3676820297523085
0.11614284020722318,2.6928271655787412,-0.8203254981467255,-7.012369887093445
0.14307111186301058,2.392071704443406,-0.89044919701766,-6.704050012722921
0.16699182890744463,2.1169300508703133,-0.9574896971448892,-6.437894309543572
0.18816112941614777,1.8641380908679632,-1.021868640240325,-6.208214549736498
0.2068025103248274,1.6304496463753153,-1.08395078573769,-6.009609098851654
0.22310700678858056,1.4129772646232635,-1.1440468767262066,-5.837338651354699
0.2372367794348132,1.209277899023979,-1.2024202632397536,-5.687379464340341
0.24932955842505297,1.0173369474701444,-1.259294057883157,-5.556357074533335
0.25950292789975443,0.8355179134082853,-1.3148576286284905,-5.441446752574703
0.2678581070338373,0.6625056244903619,-1.3692720961542375,-5.340274792784043
0.2744831632787409,0.49725358908127937,-1.422674844082078,-5.250832342671272
0.2794556991695537,0.33893865556544134,-1.4751831675087907,-5.171404286261055
0.2828450857252081,0.186923135314604,-1.5268972103714014,-5.1005122216161185
0.28471431707835415,0.04072346954372702,-1.5779023325875625,-5.036869503700228
0.28512155177379145,-0.1000157459905621,-1.6282710276245649,-4.979346213399876
0.28412139431388583,-0.2355435062506602,-1.6780644897585637,-4.926942142023074
0.2817659592513792,-0.36602086979372267,-1.7273339111787944,-4.878766190717142
0.278105750553442,-0.4915369239162036,-1.7761215730859659,-4.834020877041953
0.27319038131428,-0.6121228255222747,-1.8244617818563853,-4.791990885205026
0.2670691530590572,-0.7277643432091434,-1.8723816907084356,-4.7520347888897945
0.2597915096269658,-0.8384131934814034,-1.9199020385973335,-4.713579223325111
0.25140737769215177,-0.9439973557459113,-1.9670378308305847,-4.676114896382808
0.24196740413469264,-1.0444304650164022,-2.0137989797944127,-4.639193917073921
0.23152309948452862,-1.1396203164105205,-2.060190918965152,-4.602427992534873
0.22012689632042343,-1.2294764701167673,-2.1062151988905007,-4.5654871083691475
0.20783213161925576,-1.3139169181554198,-2.151870069974192,-4.528098367058455
0.19469296243770157,-1.3928737633559325,-2.1971510536447765,-4.490044718234816
0.18076422480414225,-1.466297864503995,-2.2420515008271247,-4.451163374330572
0.1661012461591023,-1.534162417030653,-2.2865631345704305,-4.411343765405308
0.15075962198879578,-1.5964654628809338,-2.3306765722244838,-4.3705249465013205
0.13479496735998645,-1.6532313529162859,-2.374381821689497,-4.328692427615773
0.11826265383082359,-1.7045112168704684,-2.4176687459656545,-4.285874447846439
0.10121754166211891,-1.7503825261696648,-2.460527490444119,-4.242137759084846
0.08371371640042226,-1.7909478609885594,-2.5029488680349674,-4.197583018855611
0.06580423779053667,-1.8263330125886195,-2.5449246982235234,-4.1523399153144025
0.04754090766465047,-1.8566845639596268,-2.5864480973766675,-4.106562159667992
0.0289740620250542,-1.8821670956268433,-2.6275137189733475,-4.060422482896385
0.010152391068785765,-1.9029601595715622,-2.6681179438023115,-4.014107765936985
-0.008877210526929857,-1.9192551535781666,-2.7082590214616813,-3.9678144173026633
-0.028069762062711525,-1.9312522124547724,-2.747937165634708,-3.9217440916422865
-0.047382284187259247,-1.939157213194469,-2.787154606551131,-3.87609981927881
-0.06677385631920393,-1.943178969986899,-2.8259156047439187,-3.8310825923932326
-0.08620564601907292,-1.9435266736407113,-2.864226430667851,-3.7868884300641437
-0.10564091275548003,-1.9404076097511134,-2.9020953149684927,-3.743705923208391
-0.12504498885299117,-1.9340251718240165,-2.9395323742005766,-3.701714242532851
-0.14438524057123134,-1.9245771701817591,-2.976549516625905,-3.6610815784013466
-0.16363101227304894,-1.9122544251351805,-3.0131603324099183,-3.621963971169813
-0.18275355652440073,-1.8972396236517342,-3.0493799721216166,-3.5845044838775086
-0.20172595276091806,-1.8797064124118463,-3.0852250169603916,-3.548832665826927
-0.22052301688503653,-1.8598186964190864,-3.120713343618661,-3.515064255043609
-0.2391212038492274,-1.8377301108298851,-3.155863986169097,-3.483301069334761
-0.25749850495752624,-1.813583633985703,-3.1906969968624446,-3.4536310391275986
-0.2756343412973833,-1.787511311368335,-3.2252333072537205,-3.426128339979679
-0.29350945441106663,-1.7596340630010434,-3.2594945906535173,-3.4008535882038755
-0.31110579504107705,-1.730061550383214,-3.293503126535556,-3.377854069115522
-0.3284064105449092,-1.6988920831338379,-3.3272816672267114,-3.3571639737501724
-0.34539533137624756,-1.6662125499480214,-3.3608533069642132,-3.3388046263575806
-0.36205745687572777,-1.6320983631113457,-3.394241353227789,-3.3227846914565893
-0.3783784405068412,-1.5966134105803487,-3.4274692001423546,-3.3091003556911693
-0.3943445746126447,-1.5598100144615306,-3.4605602036992664,-3.2977354861439805
-0.40994267475726004,-1.52172889955535,-3.493537558560706,-3.288661773133764
-0.42515996375281356,-1.482399180419716,-3.5264241762920436,-3.2818388718274285
-0.43998395555701075,-1.4418383800717214,-3.559242565010318,-3.2772145631836236
-0.45440233935772795,-1.4000524978709397,-3.5920147106421543,-3.2747249607036104
-0.46840286433643735,-1.3570361481442317,-3.6247619602491903,-3.274294795014904
-0.48197322581787966,-1.3127727944888867,-3.657504908199339,-3.2758378131819486
-0.4951009537627685,-1.2672351071275727,-3.6902632863311586,-3.279257333457108
-0.5077733048340443,-1.2203854718189127,-3.7230558596657297,-3.28444699849087
-0.5199771595522333,-1.172176678234903,-3.7559003296506384,-3.2912917702710485
-0.5316989263345824,-1.122552812963191,-3.7888132473533487,-3.299669207674256
-0.5429244544642143,-1.0714503769662838,-3.821809939430091,-3.3094510619232773
-0.5536389582338772,-1.0187996391079086,-3.854904450049324,-3.3205052159836455
-0.5638269546249562,-0.9645262260824038,-3.8881095022091605,-3.3326979807333195
-0.5734722168857803,-0.908552934850741,-3.9214364820164938,-3.34589674364362
-0.5825577462342877,-0.8508017369217094,-3.95489544945293,-3.359972945179755
-0.5910657636035048,-0.7911959253326801,-3.9884951789047274,-3.3748053351303433
-0.5989777228568316,-0.7296623362009271,-4.022243232256031,-3.390283437109223
-0.6062743462188409,-0.6661335588177266,-4.056146066627123,-3.406311126537926
-0.6129356818070182,-0.600550033278211,-4.090209177892502,-3.422810207877054
-0.6189411821398003,-0.5328619244786656,-4.124437279971273,-3.439723863230201
-0.624269801384587,-0.4630306576845661,-4.158834518603575,-3.457019839025458
-0.6289001079614327,-0.3910300050324075,-4.19340471699383,-3.4746932420967678
-0.6328104080117568,-0.3168466248123365,-4.228151649414797,-3.4927688320942933
-0.6359788742598802,-0.24047997581359104,-4.26307933773574,-3.511302723594483
-0.6383836740180161,-0.16194155604617733,-4.298192364971685,-3.5303834471849136
-0.6400030895784778,-0.08125344652035982,-4.333496199443534,-3.5501323616573726
-0.6408156240436814,0.0015538264668923246,-4.3689975230601075,-3.5707034558825925
-0.6408000857790125,0.08644406618850585,-4.404704557618933,-3.5922826251595663
-0.6399356451171274,0.17337874728627856,-4.440627383870528,-3.6150865491236837
-0.6382018576442646,0.2623208362120528,-4.476778249361765,-3.6393613335694623
-0.6355786492821441,0.35323899356670774,-4.51317186269746,-3.665381104748688
-0.6320462593464771,0.4461120637373424,-4.549825673744947,-3.69344676110643
-0.6275851387091036,0.5409337699223478,-4.586760141356011,-3.7238850946576485
-0.6221758010098801,0.6377175549953398,-4.623998992302588,-3.7570484941889717
-0.6157986254599267,0.736501539261041,-4.661569477244478,-3.7933154380994143
-0.6084336100673163,0.8373536033442575,-4.699502631625472,-3.8330919795475302
-0.6000600740338737,0.9403766466897563,-4.737833551420947,-3.8768144245678853
-0.5906563075669762,1.0457141183134573,-4.776601695666626,-3.9249534089409988
-0.5801991663838416,1.153555966042624,-4.815851229756036,-3.978019595720436
-0.5686636067234154,1.2641452037673537,-4.8556314257132405,-4.03657124611514
-0.5560221546857419,1.3777853541828045,-4.895997138174392,-4.101223965348709
-0.5422443011439139,1.49484908867777,-4.937009377827879,-4.172662995343552
-0.5272958102571361,1.6157884581121988,-4.978736007781315,-4.251658520238547
-0.5111379256760141,1.7411471892064476,-5.0212525929837,-4.339084570154697
-0.49372645378394964,1.8715756097043144,-5.064643438685247,-4.435942251361744
-0.4750106976869065,2.0078488541092527,-5.109002861198864,-4.543388187720525
-0.454932209145814,2.1508890707042245,-5.154436743076069,-4.662769203304375
-0.43342331843877174,2.3017923534168054,-5.201064435109113,-4.795664349079656
-0.4104053949046037,2.4618609584262825,-5.24902107859991,-4.9439352448612475
-0.3857867853203409,2.6326408246011677,-5.298460431048522,-5.109785089984871
-0.3594603770743292,2.815963064440755,-5.3495582819483705,-5.295825005401791
-0.33130074642992163,3.0139850392445924,-5.402516532002388,-5.505142394617456
-0.3011608960374757,3.2292200698296507,-5.457567955948563,-5.741357266854287
-0.2688686953391792,3.464531110156477,-5.514981528617106,-6.0086339048947925
-0.2342233842376144,3.7230355798035757,-5.575067867666054,-6.311576807787549
-0.19699302843957867,4.007812203860478,-5.63818363574393,-6.654862184420332
-0.15691490640097389,4.321192238263566,-5.704732257588134,-7.04230574889253
-0.11370298401833823,4.663225390070395,-5.775155315077059,-7.4747992241780885
-0.06707073011763427,5.028635156311122,-5.84990330731884,-7.946159273335862
-0.016784378554523055,5.401428005264535,-5.929364900052199,-8.435709615588374
0.037229901498122296,5.7472318250016015,-6.013721996208083,-8.897659052884878
0.0947022197481383,6.007714353744278,-6.102698586736931,-9.253258470029511
0.1547793632855811,6.110127019409208,-6.195231171437226,-9.403810287663427
0.21588063347967318,6.005044221527951,-6.2892692743138605,-9.282640694276735
0.2759310756949527,5.709660567960678,-6.382095681256628,-8.914521478430126
0.33302768137455946,5.300128266222261,-6.4712408960409284,-8.404389786376258
0.38602896403678205,4.857056189310191,-6.555284793904691,-7.861956651341807
0.43459952592988393,4.429981782682252,-6.633904360418109,-7.353452485092021
0.47889934375670645,4.038771343823914,-6.707438885269029,-6.904375931948666
0.5192870571949456,3.6868450927496177,-6.7764826445885165,-6.518051758531968
0.5561555081224417,3.3708865179414174,-6.841663162173836,-6.188996812470427
0.5898643733018559,3.085632321311097,-6.9035531302985405,-5.909400492972046
0.6207206965149669,2.825807144107625,-6.962647135228261,-5.671673845511417
0.6489787679560431,2.586765434956608,-7.019363873683376,-5.469246001823568
0.6748464223056092,2.364617317655587,-7.074056333701611,-5.296676049091567
0.698492595482165,2.1561723478934893,-7.127023094192527,-5.14953275141927
0.7200543189611,1.9588339986341414,-7.17851842170672,-5.024218607751536
0.7396426589474414,1.7704937467174657,-7.228760607784235,-4.917801053691142
0.757347596414616,1.5894401435731764,-7.277938618321146,-4.827869111641055
0.7732419978503478,1.414285545519233,-7.326217309437556,-4.7524174187660195
0.7873848533055401,1.243908801044293,-7.373741483625216,-4.689754281111475
0.799823941315983,1.0774110438192495,-7.420639026436331,-4.638429319962117
0.8105980517541755,0.9140817621798314,-7.467023319635952,-4.597176650326376
0.8197388693759738,0.7533726954104379,-7.512995086139216,-4.564870299101331
0.8272725963300782,0.5948775388894192,-7.55864378913023,-4.540489343645921
0.8332213717189724,0.43831582315702294,-7.604048682566689,-4.52309090666855
0.8376045299505426,0.2835196455055905,-7.649279591633374,-4.511789656381602
0.8404397264055985,0.13042218526184018,-7.694397488197191,-4.5057428410491465
0.8417439482582169,-0.02095285736584257,-7.7394549166076825,-4.504140151862595
0.8415344196845584,-0.1705015767254144,-7.784496318126308,-4.506197874844796
0.8398294039173043,-0.318050439024141,-7.829558296874756,-4.511156876647579
0.8366488995270629,-0.46336746090150355,-7.874669865641232,-4.518283985074182
0.8320152249180479,-0.6061741579461151,-7.919852705491974,-4.526876287823587
0.8259534833385868,-0.7461582594466145,-7.96512146837021,-4.5362677990204725
0.8184919007441206,-0.8829870178665984,-8.010484146360415,-4.545837851635611
0.8096620305654546,-1.0163207889798513,-8.055942524876771,-4.555020485886665
0.7994988226756561,-1.1458264346748859,-8.101492729735638,-4.563314040405101
0.7880405583289072,-1.2711900188065124,-8.14712587013969,-4.570290133393503
0.7753286581408421,-1.3921282382542923,-8.192828771473625,-4.5756012589879855
0.7614073757582991,-1.508398062386593,-8.238584784063505,-4.57898632543288
0.7463233951344331,-1.619804143026247,-8.284374647317835,-4.580273622658424
0.7301253537041706,-1.726203694477533,-8.330177383544418,-4.579380913912272
0.7128633167593953,-1.8275087129724779,-8.375971192683542,-4.576312577882373
0.6945882296296705,-1.9236855863042286,-8.421734318462365,-4.5711539585963195
0.6753513737666282,-2.0147523156458744,-8.467445858048327,-4.564063284746524
0.6552038506101695,-2.1007737133540516,-8.513086490895793,-4.555261676895086
0.634196113476629,-2.181855039177531,-8.558639107664744,-4.545021856919291
0.6123775630848537,-2.258134586172599,-8.604089326233938,-4.533656205003412
0.5897962172231277,-2.3297757275739444,-8.649425888283972,-4.5215047802979695
0.5664984599473882,-2.396958893861326,-8.694640936086952,-4.508923843824042
0.542528871008775,-2.4598738763634524,-8.739730174525192,-4.496275312115164
0.5179301322451405,-2.5187127627033954,-8.784692927646343,-4.483917444269226
0.49274300461810655,-2.5736637124835937,-8.829532102089036,-4.472196938736682
0.4670063674932706,-2.624905689039135,-8.874254071476402,-4.4614425011850924
0.44075731060287926,-2.672604182149374,-8.918868496488253,-4.4519598489525505
0.4140312687813855,-2.7169078915030345,-8.963388094977779,-4.444028044717515
0.3868621898663552,-2.757946292932598,-9.007828375424953,-4.4378970024885485
0.3592827269370292,-2.7958279783327176,-9.052207345449839,-4.433785980846815
0.331324447153702,-2.830639643734542,-9.096545205258307,-4.431882868106367
