th1 (rad),w1 (rad/s),th2 (rad),w2 (rad/s),a1 (rad/s^2),a2 (rad/s^2)
1.9765935115347324,-2.78624606213044,5.672808375027573,-1.306168562741217,-8.342521319144291,2.6134116030239296
1.948731050913428,-2.869671275321883,5.659746689400161,-1.2800344467109777,-8.1678902393194,3.2823162414633886
1.9200343381602092,-2.951350177715077,5.646946344933052,-1.2472112842963439,-7.9767724178336135,3.9862195482143323
1.8905208363830583,-3.0311179018934133,5.6344742320900885,-1.2073490888142004,-7.770084058538321,4.723853022868686
1.8602096573641242,-3.1088187424787965,5.622400741201947,-1.1601105585855136,-7.549257699479742,5.493333273359081
1.8291214699393363,-3.184311319473594,5.610799635616091,-1.1051772258519228,-7.3162951440405575,6.29213594105357
1.7972783567446005,-3.2574742709139994,5.599747863357572,-1.042255866441387,-7.073810468980928,7.117094854652152
1.7647036140354604,-3.3282123756038087,5.589325304693158,-0.9710849178948655,-6.825059459807779,7.964432554377815
1.7314214902794223,-3.3964629702018865,5.57961445551421,-0.8914405923510873,-6.5739521133802254,8.829827702833349
1.6974568605774034,-3.4622024913356886,5.570700049590699,-0.8031423153227538,-6.325045561565168,9.708523652971955
1.6628348356640466,-3.52545294695134,5.562668626437471,-0.7060570787930343,-6.083515955545578,10.595480561983619
1.627580306194533,-3.586288106506796,5.55560805564954,-0.6001022731731981,-5.855109506304102,11.485570999096046
1.5917174251294652,-3.644839201569837,5.549607032917808,-0.48524656318223763,-5.646074937840519,12.373816181616416
1.5552690331137669,-3.701299950948242,5.5447545672859855,-0.3615084013660735,-5.463081942226208,13.255657085655162
1.5182560336042845,-3.755930770370504,5.541139483272325,-0.22895183050952186,-5.313132635375622,14.127252108027337
1.4806967259005794,-3.80906209672426,5.53884996496723,-0.08767930942924848,-5.203475268144276,14.985791147073597
1.4426061049333367,-3.861096849405703,5.537973171872937,0.06217860204148748,-5.14153131915537,15.829815354928789
1.4039951364392798,-3.9125121625972565,5.538594957893352,0.22047675559077537,-5.134848402841143,16.65953274256268
1.3648700148133073,-3.963860646625668,5.54079972544926,0.38707208301640217,-5.191092084628774,17.4771224960946
1.3252314083470507,-4.015771567471956,5.544670446279423,0.5618433079773482,-5.31808975416052,18.28702530617485
1.2850736926723312,-4.0689524650135604,5.550288879359196,0.7447135610390967,-5.523939363099569,19.096223048257027
1.2443841680221956,-4.124191858644556,5.557736014969588,0.9356757915216669,-5.817195413619984,19.91451844933981
1.20314224943575,-4.182363812780756,5.567092772884804,1.134820976015065,-6.207144495297346,20.754833505312874
1.1613186113079423,-4.24443525773373,5.578440982644954,1.3423693110681936,-6.704183313417782,21.633553890585052
1.118874258730605,-4.311477090867908,5.5918646757556365,1.5587048499740441,-7.320313787715271,22.57095487761219
1.075759487821926,-4.384680228745061,5.607451724255377,1.7844143987501662,-8.069772309619534,23.59175155561773
1.0319126855344756,-4.465377951841256,5.625295868242878,2.0203319143063436,-8.969812705764197,24.725820821466172
0.987258906016063,-4.555076078898898,5.6454991873859415,2.2675901225210056,-10.041662255895323,26.00914110937022
0.941708145227074,-4.655492701457851,5.668175088611152,2.527681533614708,-11.311661061465143,27.484979789801848
0.8951532182124955,-4.768609312072502,5.693451903947299,2.8025313315127263,-12.812563237739957,29.20530861786282
0.8474671250917705,-4.896734944449901,5.721477217262426,3.0945844176913546,-14.584893050371338,31.232302051662572
0.7984997756472715,-5.042583874953614,5.752423061439339,3.4069074382079805,-16.678042566057055,33.639477481683706
0.7480739368977354,-5.209364300614185,5.786492135821419,3.7433022130248177,-19.150320927786687,36.51136264328982
0.6959802938915935,-5.400867509892052,5.823925157951667,4.108415839457716,-22.06609361553844,39.939068410402406
0.6419716187926731,-5.621528446047437,5.865009316346244,4.50780652356174,-25.48578188233318,44.00582293764882
0.5857563343321986,-5.876386264870769,5.910087381581861,4.947864752938228,-29.439379629826593,48.74935646388987
0.526992471683491,-6.170780061169035,5.959566029111244,5.435358317577127,-33.863612347980535,54.073265556153835
0.4652846710718006,-6.50941618464884,6.013919612287015,5.976090973138666,-38.46349990192209,59.55235089818852
0.4001905092253122,-6.894051183668061,6.073680522018402,6.571614482120551,-42.43409359125706,64.04192631735017
0.3312499973886316,-7.318392119580632,6.139396666839608,7.212033745294052,-43.99370507317725,65.02314994078925
0.2580660761928253,-7.758329170312404,6.211517004292548,7.862265244701945,-39.934221576194545,57.97421409868009
0.18048278448970123,-8.15767138607435,6.2901396567395675,8.442007385688745,-26.289866643100407,37.316918244949505
0.09890607062895773,-8.420570052505354,6.374559730596455,8.81517656813824,-2.160356439127146,1.8001053124810265
0.014700370103904181,-8.442173616896627,6.462711496277837,8.83317762126305,25.100290047630672,-38.2040924959396
-0.06972136606506209,-8.19117071642032,6.5510432724904675,8.451136696303655,43.64790762359581,-66.00033966606725
-0.15163307322926528,-7.754691640184362,6.635554639453504,7.791133299642982,49.194164245175486,-75.50076046219532
-0.22917998963110892,-7.262749997732607,6.713465972449934,7.0361256950210285,46.210553574736345,-72.92701270457438
-0.301807489608435,-6.800644461985244,6.783827229400145,6.306855567975285,40.08283408274647,-65.81501446080725
-0.36981393422828746,-6.399816121157779,6.846895785079898,5.648705423367213,33.67725181076046,-58.193092021815325
-0.43381209543986526,-6.063043603050175,6.90338283931357,5.06677450314906,27.999415040616288,-51.48991626458272
-0.494442531470367,-5.783049452644012,6.954050584345061,4.551875340503233,23.241387477404988,-45.991991798421196
-0.5522730259968072,-5.550635577869962,6.999569337750093,4.091955422519021,19.323313428541425,-41.599141559718674
-0.6077793817755068,-5.357402443584548,7.040488891975283,3.6759640069218342,16.103268035515914,-38.118193745304694
-0.6613534062113523,-5.196369763229389,7.077248532044501,3.2947820694687873,13.44612062944428,-35.36012536568322
-0.7133171038436462,-5.061908556934946,7.110196352739189,2.941180815811955,11.241019537251074,-33.16539341342008
-0.7639361894129957,-4.949498361562435,7.139608160897309,2.609526881677754,9.402017722166038,-31.405590547464513
-0.81343117302862,-4.855478184340775,7.165703429714086,2.295470976203109,7.864084522102112,-29.978567503018006
-0.8619859548720278,-4.776837339119754,7.188658139476117,1.9956853011729287,6.578547811512403,-28.80273395285977
-0.9097543282632253,-4.71105186100463,7.208614992487846,1.707657961644331,5.509123979371265,-27.81220974234173
-0.9568648468732717,-4.655960621210917,7.22569157210429,1.4295358642209137,4.628728510571202,-26.953133437251502
-1.0034244530853809,-4.609673336105205,7.239986930746499,1.1600045298483987,3.916974784997777,-26.18101552125686
-1.0495211864464329,-4.570503588255227,7.251586976044982,0.8981943746358301,3.358215241073035,-25.458926003072754
-1.0952262223289853,-4.536921435844497,7.260568919791341,0.6436051146051025,2.9399976631319067,-24.756309015717434
-1.1405954366874302,-4.507521459213178,7.267004970937392,0.39604202444792813,2.6518442453382773,-24.048244224718438
-1.185670651279562,-4.481003016759796,7.270965391181871,0.15555958220074376,2.4842935968767073,-23.315003201570583
-1.23048068144716,-4.456160080791029,7.272520987003879,-0.07759044981496208,2.42817037145279,-22.541773683072833
-1.2750422822550704,-4.431878377076501,7.2717450825057295,-0.3030081866456904,2.4740626313282124,-21.71844708518933
-1.3193610660258355,-4.407137750763218,7.268715000639273,-0.5201926574975837,2.6119939721847674,-20.839387099861003
-1.3634324435334677,-4.381017811041371,7.2635130740642975,-0.7285865284961938,2.831277274577231,-19.903121159063087
-1.4072426216438814,-4.352705038295599,7.256227208779335,-0.9276177400868246,3.1205317673665736,-18.911921992142403
-1.4507696720268373,-4.321499720621933,7.246951031378467,-1.1167369600082486,3.4678373725698526,-17.87127196683029
-1.4939846692330565,-4.286821346896234,7.235783661778385,-1.2954496796765516,3.8609926342692913,-16.789225974675634
-1.536852882702019,-4.248211420553541,7.222829164981619,-1.4633419394233078,4.287837170584779,-15.675706688284086
-1.5793349969075543,-4.205333048847693,7.208195745587386,-1.6200990063061487,4.736598040228431,-14.541777063572125
-1.6213883273960312,-4.1579670684454095,7.191994755524325,-1.7655167769418698,5.196222206051422,-13.398938136217602
-1.6629679980804852,-4.106004846384895,7.174339587754907,-1.8995061583040458,5.656663934390242,-12.258495992909921
-1.7040280465443343,-4.049438207040993,7.1553445261718664,-2.022091118233145,6.1091052586904535,-11.131031994392732
-1.7445224286147443,-3.9883471544540883,7.135123614989535,-2.1334014381770725,6.546097954991094,-10.025997300945274
-1.7844059001592851,-3.9228861749041775,7.113789600607764,-2.2336614111865254,6.961625261591723,-8.951439027552249
-1.8236347619083269,-3.85326992228826,7.091452986495899,-2.323175801462048,7.35108962215736,-7.913853061622403
-1.8621674611312093,-3.7797590260666865,7.068221228481278,-2.402314332078272,7.7112383622636544,-6.91814912210845
-1.8999650513918762,-3.70264664244405,7.044198085160495,-2.4714958232993567,8.040042276330286,-5.967707638389492
-1.9369915178163166,-3.622246219680747,7.0194831269275015,-2.5311728996832517,8.336542877434143,-5.064505401496219
-1.973213980013124,-3.5388807909064055,6.994171397930669,-2.5818179536982138,8.600683073395704,-4.2092871334726
-2.008602787922188,-3.4528739601724485,6.968353218393688,-2.6239108250329397,8.833133895301131,-3.4017623405210027
-2.043131527523913,-3.3645426212194374,6.9421141101433586,-2.65792844843815,9.035127198117129,-2.6408102375993887
-2.076776953736107,-3.274191349238266,6.915534825658977,-2.6843365508141437,9.208301442071377,-1.9246794384908905
-2.10951886722849,-3.1821083348175523,6.888691460150835,-2.7035833451990525,9.354565069824407,-1.2511729545325705
-2.1413399505766653,-3.0885626841193083,6.861655626698845,-2.7160950747443784,9.47597980280543,-0.6178124860138563
-2.1722255774178585,-2.9938028860912542,6.834494675951401,-2.722273199604517,9.574664463507775,-0.021978839982444025
-2.202163606278771,-2.8980562414561764,6.807271943955356,-2.7224929880043414,9.652718683228734,0.5389724867454542
-2.2311441686933327,-2.801529054623889,6.780047014075312,-2.7171032631368868,9.712165023190297,1.0676199271550988
-2.2591594592395716,-2.704407404391986,6.752875981443943,-2.706427063865336,9.75490754523106,1.5664069700929157
-2.2862035332834916,-2.6068583289396754,6.72581171080529,-2.6907629941644067,9.7827046357702,2.0375934600081016
-2.3122721165728883,-2.509031282581973,6.698904080863646,-2.6703870595643258,9.79715383940584,2.4832244248325717
-2.337362429398708,-2.4110597441879147,6.672200210268003,-2.6455548153160002,9.79968653423888,2.9051137052123446
-2.361473026840587,-2.313062878845526,6.6457446621148435,-2.616503678263877,9.791570431510117,3.3048397321358953
-2.384603655629042,-2.2151471745304248,6.619579625332205,-2.583455280942518,9.773918072266273,3.6837509698197892
-2.406755127374346,-2.117407993807762,6.593745072522779,-2.54661777124432,9.747699699671717,4.042978763488775
-2.427929207312424,-2.019930996811045,6.5682788948103354,-2.5061879836094323,9.71375909230903,4.383455577995124
-2.4481285172805345,-1.9227934058879546,6.543217014974241,-2.462353427829481,9.67283114294553,4.705936864260428
-2.467356451339414,-1.8260650944584993,6.518593480695946,-2.4152940591868766,9.62556015479326,5.011025035294135
-2.485617102283999,-1.7298094929105667,6.494440540104078,-2.3651838088339354,9.572518001967822,5.299194266340427
-2.5029151972131047,-1.6340843128908884,6.470788702015739,-2.312191866170531,9.514221462768683,5.570815052105333
-2.5192560403420137,-1.5389420982632016,6.447666783354033,-2.2564837156494777,9.451148184164138,5.826177657364017
-2.534645461324646,-1.4444306164215601,6.425101946197539,-2.1982219390758377,9.383750873998373,6.065513785602371
-2.5490897674888613,-1.3505931076815765,6.40311972680678,-2.137566801219814,9.312469444118943,6.289015963838802
-2.5625956985656773,-1.257468413240387,6.381744058794582,-2.074676641581426,9.23774094259104,6.496854300271679
-2.575170382698081,-1.1650910038144766,6.360997292378768,-2.009708098578709,9.160007215806132,6.6891904144363314
-2.586821292736226,-1.0734909316564152,6.340900211392981,-1.9428161944343456,9.0797203307978,6.86618846639779
-2.59755620205279,-0.9826937283484372,6.321472049448637,-1.8741543097703677,8.997345863643433,7.028023321321263
-2.6073831393362745,-0.8927202697120028,6.302730506350933,-1.803874076557155,8.913364220851015,7.174885977831653
-2.6163103420333944,-0.8035866275034926,6.284691765585362,-1.7321252167788386,8.8282702068554,7.306986462475001
-2.6243462083084292,-0.7153039254349386,6.267370513417573,-1.6590553521540885,8.742571082384936,7.424554448351738
-2.6314992475627785,-0.6278782146110893,6.2507799598960325,-1.5848098076705712,8.65678337621484,7.52783789416173
-2.6377780297088895,-0.5413103808489409,6.234931861819327,-1.5095314287289539,8.571428717883819,7.617100021586785
-2.6431911335173788,-0.4555960936701027,6.219836547532037,-1.433360428513086,8.487028952913207,7.692614955747087
-2.64774709445408,-0.3707258041409706,6.205502943246906,-1.3564342789556152,8.404100786834938,7.754662347423417
-2.65145435249549,-0.2866847962726212,6.19193860045735,-1.278887655481381,8.32315018198755,7.803521279140301
-2.654321200458216,-0.20345329445274574,6.179149723902536,-1.200852442689978,8.244666703708292,7.839463732505114
-2.6563557334027434,-0.12100662741566282,6.167141199475636,-1.122457805364927,8.16911798229264,7.8627478638428485
-2.6575657996769,-0.03931544759273642,6.155916621421987,-1.0438303267264986,8.096944425795995,7.873611301484499
-2.6579589541528277,0.04165399666522353,6.145478318154722,-0.9650942137116536,8.028554288053135,7.872264643161595
-2.6575424141861754,0.12193953954575487,6.135827376017605,-0.8863715672800376,7.964319167531143,7.8588852976374115
-2.656323018790718,0.2015827312210663,6.126963660344805,-0.8077827143036636,7.904569986837446,7.833611782435296
-2.654307191478507,0.28062843108944074,6.118885833201769,-0.7294465964793105,7.849593480591817,7.796538560421621
-2.6515009071676126,0.3591243658953589,6.111591367236976,-0.6514812108750944,7.7996292013667485,7.747711472838246
-2.647909663508659,0.4371206579090264,6.105076555128225,-0.5740040961467119,7.754867039679097,7.687123805612192
-2.643538456929569,0.5146693283058174,6.099336514166757,-0.49713285809058994,7.7154452445462764,7.6147130095817674
-2.6383917636465104,0.5918237807512801,6.094365185585851,-0.42098572799477224,7.681448925707438,7.53035808361723
-2.6324735258389977,0.6686382700083544,6.090155328305904,-0.3456821471585999,7.6529090169454,7.433877622249313
-2.6257871431389144,0.7451673601778084,6.086698506834318,-0.2713433709361068,7.6298016816455165,7.325028525981429
-2.6183354695371364,0.8214653769942636,6.083985073124957,-0.19809308567629247,7.612048146365239,7.2035053724772515
-2.6101208157671936,0.8975858584579159,6.082004142268194,-0.12605803195151993,7.599514955326646,7.0689404497492605
-2.6011449571826146,0.9735810080111824,6.080743561948679,-0.05536862745402733,7.592014647944906,6.920904457736202
-2.5914091471025027,1.0495011544906314,6.080189875674138,0.013840417123334683,7.5893068723485495,6.758907891630261
-2.580914135557596,1.125394223214117,6.0803282798453715,0.0814294960396373,7.59109995992823,6.582403128350584
-2.569660193325455,1.2013052228133994,6.081142574805768,0.14725352732314312,7.597052998880576,6.390787245980746
-2.557647141097321,1.2772757528022052,6.082615110079,0.21116139978295057,7.606778458110408,6.183405614076921
-2.544874383569299,1.3533435373833091,6.0847267240768295,0.27299545592371977,7.619845426333137,5.9595562997448
-2.531340948195466,1.4295419916466405,6.087456678636067,0.33259101892116777,7.635783544372511,5.718495339436783
-2.5170455282789996,1.5058998270903656,6.090782588825278,0.3897759723155356,7.65408772103994,5.459442928618017
-2.501986530008096,1.582440704300765,6.094680348548434,0.4443704016017158,7.674223734121916,5.181590579764904
-2.4861621229650885,1.6591829416419843,6.099124052564451,0.49618630739936487,7.695634827343007,4.884109292456151
-2.4695702935486685,1.7361392899154144,6.104085915638445,0.5450274003239264,7.717749421099093,4.566158766342815
-2.4522089006495142,1.8133167841264053,6.109536189641684,0.5906889879873545,7.739990058584564,4.226897667175607
-2.43407573280825,1.890716684712251,6.115443079521557,0.6329579646591106,7.761783708931278,3.86549492637934
-2.4151685659611277,1.9683345218015638,6.1217726591681485,0.671612913922904,7.782573544369467,3.4811420144066747
-2.395485220743112,2.0461602572452584,6.1284887883073775,0.7064243340669708,7.8018322984649275,3.0730660758198716
-2.3750236181706597,2.124178580229908,6.1355530316480476,0.7371549948251696,7.819077296523612,2.640543748409545
-2.3537818323683606,2.202369353195144,6.142924581596299,0.763560432309265,7.833887226815224,2.1829154085969176
-2.3317581388364093,2.280708225463296,6.1505601859193915,0.7853895863952342,7.84592069219948,1.6995994902320795
-2.308951056581776,2.359167432385291,6.158414081783344,0.802385581297555,7.854936546373203,1.1901064136567214
-2.2853593822579232,2.437716797849023,6.16643793759632,0.8142866454341222,7.8608159782992875,0.6540515373111662
-2.260982214279433,2.516324957632016,6.174580804050661,0.8208271608072338,7.863586264330088,0.09116640699295989
-2.235818964703113,2.594960820275317,6.182789075658734,0.8217388248771634,7.863446063121774,-0.49869256898093917
-2.2098693565003598,2.6735952809065346,6.191006463907506,0.816751899187354,7.860792088028703,-1.1155390428793022
-2.1831334036912944,2.7522032017868217,6.19917398289938,0.805596508758561,7.856246961185136,-1.7592564258436323
-2.155611371673426,2.830765671398673,6.207229947986965,0.7880039445001247,7.850688040524139,-2.4296036852057643
-2.1273037149594396,2.9092725518039146,6.215109987431966,0.7637079076480671,7.8452770248675625,-3.126228699328388
-2.0982109894414003,2.98772532205259,6.222747066508447,0.7324456206547831,7.841490193907694,-3.8486907447939
-2.0683337362208745,3.066140223991667,6.2300715227149945,0.6939587132068441,7.841149241774666,-4.596493784392812
-2.0376723339809577,3.1445517164094134,6.237011109847063,0.647993775362916,7.846452828394302,-5.3691322939877235
-2.0062268168168638,3.2230162446933566,6.243491047600692,0.5943024524230388,7.860009216025632,-6.166151415494449
-1.97399665436993,3.3016163368536127,6.249434072124922,0.5326409382680943,7.884870693304657,-6.987223262161251
-1.940980491001394,3.3804650437866592,6.254760481507603,0.4627687056464818,7.924570929377007,-7.832241249692066
-1.9071758405635273,3.4597107530804294,6.259388168564068,0.38444629314956114,7.983166958833234,-8.701434410871393
-1.872578733032723,3.5395424226687617,6.263232631495564,0.2974319490408472,8.065288185243531,-9.59550381046068
-1.8371833088060354,3.620195304521197,6.266206950985972,0.20147691093624037,8.17619561609118,-10.515783457902117
-1.8009813557608234,3.701957260682109,6.268221720095335,0.0963190763572192,8.321855510285237,-11.464428568321793
-1.7639617831540024,3.7851758157849615,6.2691849108589075,-0.018325209325998737,8.509032729610198,-12.444634692173734
-1.7261100249961527,3.8702661430810634,6.269001658765648,-0.14277155624773608,8.74541032030176,-13.460892140652508
-1.6874073635653422,3.957720246284081,6.26757394320317,-0.27738047765426116,9.039743158571271,-14.519281237477381
-1.6478301611025012,4.048117677869794,6.264800138426628,-0.422573290029035,9.402054746971965,-15.627815059900316
-1.6073489843238034,4.142138225339513,6.260574405526337,-0.5788514406280382,9.843887160243948,-16.79683706856088
-1.5659276020704083,4.240577096941953,6.254785891120057,-0.7468198113136469,10.378614094613837,-18.039480438087672
