th1 (rad),w1 (rad/s),th2 (rad),w2 (rad/s),a1 (rad/s^2),a2 (rad/s^2)
0.7931850419371116,-1.243466747972603,5.844772246291936,-1.2635304317216975,-9.178949894739741,8.672362195828303
0.7807503744573856,-1.3352562469200002,5.832136941974719,-1.1768068097634146,-9.040109433779634,8.959567366105668
0.7673978119881856,-1.4256573412577966,5.820368873877085,-1.087211136102358,-8.908607923862887,9.26695299419391
0.7531412385756076,-1.5147434204964254,5.809496762516061,-0.9945416061604189,-8.785679685115737,9.593274119305061
0.7379938043706433,-1.6026002173475828,5.799551346454457,-0.8986088649673682,-8.672756507038292,9.937436955498208
0.7219678021971675,-1.6893277824179658,5.790565257804784,-0.7992344954123861,-8.571460943774692,10.298522052505227
0.7050745243729878,-1.7750423918557128,5.78257291285066,-0.6962492748873339,-8.483599431092662,10.675809209433025
0.6873241004544307,-1.8598783861666395,5.775610420101787,-0.5894911827930036,-8.411155097230639,11.0688031975569
0.6687253165927644,-1.9439899371389457,5.7697155082738565,-0.47880315081743463,-8.356279964862734,11.47725901956556
0.6492854172213749,-2.027552736787573,5.764927476765682,-0.364030560621779,-8.321285951163212,11.90120496246216
0.6290098898534991,-2.1107655962992053,5.761287171159465,-0.24501851099715743,-8.308633611005275,12.340961015003636
0.6079022338905071,-2.1938519324092582,5.758836986049493,-0.12160890084712107,-8.320916852575355,12.797149206258633
0.5859637145664145,-2.2770611009350117,5.757620897041022,0.006362591215465244,-8.360840764531073,13.27069091292488
0.5631931035570644,-2.3606695085803224,5.757684522953177,0.13906950034471405,-8.431188051804869,13.762783932142806
0.5395864084712612,-2.444981389098371,5.7590752179566245,0.2766973396661421,-8.534767122599588,14.274848759043891
0.5151365945802775,-2.530329060324367,5.761842191353286,0.41944582725658097,-8.674331221861992,14.808428511902687
0.48983330397703384,-2.617072372542987,5.7660366496258515,0.5675301123756078,-8.852452619520449,15.365019547356383
0.46366258025160395,-2.7055968987381913,5.771711950749608,0.7211803078491716,-9.071327966280629,15.945798930648621
0.43660661126422207,-2.7963101784009976,5.778923753828099,0.8806382971556579,-9.332479488669323,16.551199127923613
0.4086435094802121,-2.889634973287691,5.787730136799656,1.046150288434894,-9.63630040997464,17.18025777047641
0.3797471597473352,-2.9859979773874374,5.7981916396840045,1.2179528661396581,-9.981370469233504,17.82963920178432
0.3498871799734608,-3.0858116820797723,5.810371168345401,1.3962492581575014,-10.36343779102914,18.492183599351325
0.3190290631526631,-3.189446059990064,5.824333660926976,1.5811710941510146,-10.773927831132385,19.15479056001615
0.28713460255276246,-3.2971853383013876,5.840145371868486,1.772718999751176,-11.197805539468671,19.795396949498105
0.25416274916974857,-3.4091633936960744,5.857872561865998,1.970672969246157,-11.61060320413079,20.378791837542078
0.22007111523278783,-3.5252694257373824,5.877579291558459,2.174460887621578,-11.974480663113795,20.851090821310912
0.184818420975414,-3.6450142323685206,5.899323900434675,2.382971795834687,-12.23340284084088,21.13300342080988
0.1483682786517288,-3.7673482607769295,5.923153618393022,2.594301830042786,-12.308071559586338,21.112809085580842
0.11069479604395951,-3.890428976372793,5.94909663669345,2.805429920898594,-12.092371545643639,20.64154244607561
0.07179050628023159,-4.011352691829229,5.9771509359024355,3.01184534535935,-11.454956982593988,19.53551636780188
0.0316769793619393,-4.125902261655169,6.007269389356029,3.207200509037369,-10.251878003027036,17.594501172795532
-0.009582043254612385,-4.228421041685439,6.039341394446403,3.3831455207653245,-8.357087526720607,14.645171345141584
-0.05186625367146678,-4.311991916952645,6.073172849654056,3.52959723421674,-5.713368088588627,10.613311146650862
-0.09498617284099323,-4.369125597838532,6.108468821996223,3.635730345683249,-2.3923576948919423,5.608661899626782
-0.13867742881937856,-4.393049174787452,6.144826125453056,3.6918169646795165,1.368255189353093,-0.022798935083877186
-0.18260792056725306,-4.3793666228939205,6.181744295099851,3.6915889753286777,5.190759160965677,-5.736231609963532
-0.22640158679619227,-4.327459031284263,6.218660184853138,3.6342266592290424,8.658538574664096,-10.931657102672393
-0.2696761771090349,-4.240873645537622,6.255002451445429,3.5249100882023185,11.446814344149347,-15.139661183821719
-0.31208491356441115,-4.126405502096128,6.290251552327452,3.3735134763641015,13.407377085374776,-18.142054393458455
-0.35334896858537246,-3.9923317312423805,6.323986687091093,3.192092932429517,14.5676673462571,-19.9712529791146
-0.3932722858977963,-3.8466550577798095,6.355907616415388,2.992380402638371,15.067935911965002,-20.82172302748354
-0.43173883647559436,-3.6959756986601597,6.385831420441772,2.7841631723635354,15.087447827565315,-20.945473126491684
-0.46869859346219594,-3.5451012203845065,6.413673052165407,2.5747084410986187,14.793351853213526,-20.57926576167228
-0.5041496056660411,-3.3971677018523714,6.439420136576394,2.368915783481896,14.317994515329447,-19.911940602773516
-0.5381212826845647,-3.253987756699077,6.463109294411213,2.169796377454161,13.755748798785698,-19.079396713888862
-0.5706611602515554,-3.11643026871122,6.4848072581857545,1.9790024103152724,13.168919332770574,-18.172550624025714
-0.6018254629386677,-2.9847410753835146,6.504597282288907,1.7972769040750152,12.595960648322599,-17.248709060997292
-0.6316728736925028,-2.858781468900289,6.522570051329658,1.6247898134650423,12.05889269058127,-16.34191919135437
-0.6602606883815056,-2.738192541994476,6.538817949464308,1.4613706215514985,11.568983791965445,-15.47094450866135
-0.6876426138014504,-2.622502704074822,6.553431655679823,1.306661176464885,11.13074945715898,-14.644904117782014
-0.7138676408421987,-2.511195209503232,6.566498267444472,1.160212135287065,10.744625408410746,-13.86706081659264
-0.738979592937231,-2.4037489554191245,6.578100388797343,1.0215415271211385,10.4086944489523,-13.137281095422573
-0.7630170824914223,-2.2996620109296013,6.5883158040685545,0.8901687161669128,10.119773809525984,-12.453592741929915
-0.7860137026007183,-2.1984642728343413,6.597217491230223,0.7656327887476136,9.874084442923136,-11.813148936210071
-0.8079983453290618,-2.09972342840511,6.604873819117699,0.6475012993855129,9.667653097438162,-11.212810093052429
-0.8289955796131129,-2.0030468974307283,6.611348832111554,0.5353731984549887,9.496546463829155,-10.649483153287438
-0.8490260485874201,-1.9080814327924367,6.616702564096104,0.4288783669221143,9.35700139763466,-10.12030886334708
-0.8681068629153446,-1.81451141881609,6.620991347765325,0.32767527828864346,9.245491887143457,-9.622754988496977
-0.8862519771035055,-1.7220564999446555,6.624268100548211,0.23144772840367367,9.158758330250674,-9.154652240357294
-0.903472542102952,-1.6304689166421487,6.626582577832248,0.13990120600010073,9.093815025950523,-8.714196124730341
-0.9197772312693735,-1.5395307663826434,6.627981589892249,0.05275924475279731,9.047945664392008,-8.299929274335136
-0.9351725389332,-1.4490513097387234,6.628509182339777,-0.03024004799055406,9.018692743865738,-7.910713355852749
-0.9496630520305872,-1.3588643823000661,6.6282067818598716,-0.10934718154908156,9.003844430129366,-7.545696182836114
-0.9632516958535878,-1.2688259379987725,6.627113310044381,-0.1848041433774427,9.001420875180548,-7.204277488082914
-0.9759399552335756,-1.178811729246967,6.625265268610606,-0.25684691825827183,9.009661092763217,-6.886075441081775
-0.9877280725260452,-1.0887151183193349,6.622696799428024,-0.32570767266908957,9.027010933097285,-6.590895139877136
-0.9986152237092386,-0.998445008988362,6.619439722701332,-0.3916166240678609,9.052112374143302,-6.318699773309764
-1.0085996737991223,-0.9079238852469289,6.615523556460654,-0.45480362180095857,9.083794165213039,-6.069584819685068
-1.0176789126515915,-0.8170859435947985,6.610975520242644,-0.5154994699978093,9.12106376632616,-5.843755446125545
-1.0258497720875395,-0.7258753059315368,6.605820525542666,-0.5739370244590647,9.163100488695063,-5.641507151669465
-1.0331085251468548,-0.6342443010445862,6.600081155298075,-0.6303520959757594,9.209249736043386,-5.463209626694948
-1.0394509681573008,-0.5421518036841523,6.593777634338317,-0.6849841922427089,9.25901825913296,-5.309293762687378
-1.0448724861941423,-0.44956162109282266,6.58692779241589,-0.7380771298695827,9.312070358025265,-5.180241727886062
-1.0493681024050705,-0.35644091751257,6.579547021117195,-0.7898795471484433,9.368224992625258,-5.076580018384608
-1.0529325115801962,-0.26275866758631744,6.571648225645711,-0.8406453473322895,9.427453788356418,-4.998875395813668
-1.0555600982560593,-0.16848412970275325,6.563241772172388,-0.8906341012904262,9.489879947993957,-4.947733628205565
-1.057244939553087,-0.07358533022281367,6.554335431159483,-0.9401114375724818,9.555778100921119,-4.923800957019487
-1.057980792855315,0.02197245078639752,6.544934316783759,-0.9893494471426767,9.625575135659174,-4.927768217544291
-1.0577610683474512,0.11822820214298926,6.535040822312332,-1.0386271293181195,9.699852068394005,-4.960377538311462
-1.0565787863260212,0.2152267228269293,6.524654551019151,-1.0882309047012342,9.779346996474754,-5.022431532775785
-1.054426519097752,0.31302019279167687,6.513772241972139,-1.1384552200289921,9.864959167111865,-5.1148048662614345
-1.0512963171698353,0.4116697844627955,6.502387689771849,-1.1896032686916065,9.957754151034722,-5.238458022626043
-1.0471796193252074,0.5112473259731427,6.490491657084933,-1.2419878489178668,10.058970038381638,-5.394452992840962
-1.042067146065476,0.6118370263569591,6.478071778595754,-1.2959323788462764,10.17002445386726,-5.583970438714409
-1.0359487758019064,0.7135372708956318,6.465112454807291,-1.3517720832334206,10.29252199642623,-5.808327614870179
-1.02881340309295,0.8164624908598941,6.451594733974956,-1.4098553593821224,10.428261408918349,-6.068995909230213
-1.0206487781843512,0.9207451049490776,6.437496180381135,-1.4705453184744246,10.57924132151695,-6.367616209182247
-1.0114413271348603,1.026537518164247,6.422790727196391,-1.534221480566247,10.74766270582661,-6.706009301067476
-1.001175951953218,1.1340141452225132,6.4074485123907285,-1.601281573576922,10.935925101886433,-7.08617699015506
-0.9898358105009928,1.2433733962413775,6.391435696654959,-1.6721433434784725,11.146612051560835,-7.510287325746392
-0.977402076538579,1.354839516756986,6.3747142632201745,-1.7472462167359364,11.382458712756062,-7.980633842274441
-0.9638536813710091,1.4686641038845467,6.357241801052815,-1.8270525551586807,11.646290930081134,-8.499553506664979
-0.9491670403321637,1.585127013185358,6.338971275501229,-1.9120480902253305,11.940919501265975,-9.069280254654313
-0.9333157702003101,1.7045362081980178,6.319850794598976,-2.0027408927718735,12.268965150811058,-9.691699404058886
-0.9162704081183299,1.8272258597061284,6.299823385671257,-2.0996578868124622,12.632577626449137,-10.367951198120638
-0.8979981495212687,1.9535516359706198,6.278826806803132,-2.2033373987936686,13.032994851575193,-11.097807123854514
-0.8784626331615625,2.0838815844863716,6.256793432815195,-2.3143154700322137,13.469863481545103,-11.87870805847546
-0.8576238173166988,2.2185802193018227,6.233650278114873,-2.4331025506169683,13.940209191212789,-12.704306852527797
-0.8354380151236805,2.3579823112139504,6.2093192526087035,-2.5601456191422463,14.436904229688155,-13.56230060363484
-0.8118581920115411,2.502351353510832,6.183717796417281,-2.695768625178595,14.946437710102723,-14.431278758395523
-0.7868346784764327,2.6518157306118595,6.156760110165496,-2.84008141276255,15.445771265430283,-15.276281180778009
-0.7603165211703141,2.8062734432661625,6.12835929603787,-2.99284422457033,15.898109279313957,-16.04282611333287
-0.7322537867376525,2.965254536059302,6.098430853792167,-3.153272485703659,16.24763429323275,-16.649479998977146
-0.7026012413770595,3.1277308789916294,6.06689812893513,-3.3197672856934304,16.41384450110057,-16.97986732569391
-0.6713239325871432,3.291869324002635,6.033700456078196,-3.4895659589503696,16.28735338046077,-16.876742522405078
-0.6384052393471168,3.454742857807243,5.998804796488693,-3.6583333841744206,15.73107937093646,-16.143661695171375
-0.6038578107690443,3.6120536515166077,5.962221462646949,-3.8197700011261344,14.593303660855934,-14.563391928361897
-0.5677372742538782,3.757986688125167,5.924023762635687,-3.9654039204097535,12.7401470500434,-11.943723613326602
-0.5301574073726265,3.885388158625601,5.88436972343159,-4.084841156543019,10.110187938764401,-8.194575453772861
-0.4913035257863705,3.986490038013245,5.8435213118661595,-4.166786911080748,6.778451297766413,-3.418484185340407
-0.451438625406238,4.054274550990909,5.801853442755352,-4.2009717529341515,2.9944993319144686,2.0351339625195144
-0.4108958798963289,4.084219544310054,5.75984372522601,-4.180620413308956,-0.8484191367369738,7.6126176800022245
-0.3700536844532284,4.075735352942684,5.718037521092921,-4.104494236508934,-4.322770055973473,12.709372140245101
-0.32929633092380156,4.032507652382949,5.676992578727831,-3.977400515106483,-7.102477813579229,16.860739864710066
-0.28897125439997207,3.961482874247157,5.637218573576766,-3.8087931164593822,-9.045405557985452,19.858622790908065
-0.2493564256575005,3.8710288186673028,5.599130642412173,-3.6102068885503016,-10.186251830251345,21.742596435658577
-0.21064613747082747,3.7691663003647893,5.56302857352667,-3.392780924193716,-10.669371759740164,22.70658522101855
-0.17295447446717957,3.6624725827673874,5.529100764284733,-3.1657150719835303,-10.674478669875867,22.995185121947195
-0.1363297486395057,3.555727796068629,5.497443613564898,-2.9357632207640583,-10.36716411947784,22.834418789027495
-0.1007724706788194,3.4520561548738504,5.468085981357257,-2.7074190328737835,-9.877943426224398,22.402236221787824
-0.0662519091300809,3.3532767206116065,5.44101179102852,-2.4833966706559054,-9.300045317126306,21.825183446850158
-0.032719141923964835,3.2602762674403434,5.41617782432196,-2.265144836187404,-8.695576787882578,21.18680142255181
-0.00011637924956139911,3.1733204995615174,5.393526375960087,-2.053276821961886,-8.103626700150675,20.538782600302728
0.031616825746053775,3.0922842325600106,5.372993607740468,-1.8478889959588587,-7.54744661755471,19.910889448419464
0.06253966807165388,3.0168097663844633,5.354514717780879,-1.6487801014746641,-7.039906825961472,19.318507952599568
0.09270776573549852,2.946410698124849,5.3380269167661325,-1.4555950219486684,-6.587318402615966,18.767953985260426
0.12217187271674701,2.8805375140986893,5.323470966546646,-1.267915482096064,-6.191981933017334,18.260027654948075
0.1509772478577339,2.8186176947685158,5.310791811725685,-1.0853152055465833,-5.853831002135513,17.792322725789166
0.17916342480541905,2.7600793847471605,5.299938659670219,-0.9073919782886917,-5.5714641774834,17.360695816880582
0.20676421865289066,2.7043647429723263,5.290864739887332,-0.7337850201198859,-5.342776572566576,16.96018595914584
0.23380786608261392,2.6509369772466607,5.283526889686133,-0.5641831605284275,-5.1653346580222435,16.58558185092596
0.26031723585508054,2.5992836306664384,5.277885058080849,-0.398327342019168,-5.036589137651163,16.231766554753946
0.2863100721617449,2.548917739289927,5.273901784660657,-0.23600967647162852,-4.953987354612065,15.893923202172841
0.3117992495546442,2.4993778657438064,5.27154168789594,-0.0770704444499001,-4.915024658365135,15.567654757872226
0.3367930282120823,2.450227619160155,5.270770983451441,0.07860610312882216,-4.91725987566757,15.249051115599253
0.36129530440368385,2.4010550204034793,5.271557044482729,0.23109661428481468,-4.958310860926027,14.93472413282371
0.38530585460771866,2.351471911794219,5.273868010625577,0.3804438556130518,-5.035840247065255,14.621823170621768
0.40882057372566083,2.3011135093235664,5.277672449181708,0.5266620873192694,-5.147537782762822,14.308038642225128
0.4318317088188965,2.249638131495938,5.2829390700549,0.6697424737415207,-5.291103251187727,13.99159791898584
0.4543280901338559,2.196727098984061,5.289636494792315,0.8096584529313792,-5.464232424133104,13.671256009301608
0.4762953611236965,2.14208477474273,5.297733079321629,0.9463710130243952,-5.66460749973127,13.346282274799862
0.49771620887112383,2.0854386997454175,5.307196789451873,1.0798338357723938,-5.889892804098111,13.016443797302838
0.518570595868578,2.0265397717044364,5.317995127809597,1.2099982737454222,-6.137736083598704,12.681985678751781
0.5388359935856224,1.9651624108684493,5.3300951105470515,1.33681813053294,-6.405775398165104,12.34360842713245
0.5584876176943069,1.9011046568867984,5.343463291852381,1.4602542148042645,-6.691651399996272,12.002442577987983
0.5774986642631749,1.8341881428868356,5.358065834000424,1.5802786405841445,-6.993024617323937,11.66002077295437
0.5958405456920433,1.7642578967135962,5.373868620406266,1.696878848313688,-7.307597242568356,11.318247630511026
0.6134831246591792,1.6911819242879127,5.390837408889403,1.8100613246187984,-7.633138838088781,10.979367877543526
0.6303949439020583,1.6148505359070249,5.40893802213559,1.9198550033942337,-7.9675153151621325,10.645933348449452
0.6465434492611285,1.5351753827554036,5.4281365721695325,2.026314336878728,-8.308720509714941,10.320769591281586
0.6618952030886825,1.4520881776582542,5.4483997155383195,2.1295220327915443,-8.654909670082517,10.00694294079366
0.676416084865265,1.365539080957429,5.469694935866235,2.229591462199481,-9.004434186755942,9.70772902105594
0.6900714756748394,1.2754947390898697,5.4919908504882295,2.3266687524100402,-9.355876930807709,9.426583721281874
0.7028264230657381,1.1819359697817926,5.51525753801233,2.420934589622859,-9.708087624935365,9.167117743567335
0.714645782763556,1.084855093532439,5.539466883908559,2.5126057670585324,-10.060217745894224,8.933075845743923
0.7254943336988804,0.9842529160734967,5.564592941579144,2.601936525515972,-10.411754544177798,8.72832189038896
0.7353368628596153,0.8801353706317188,5.590612306834304,2.6892197444198613,-10.762553857092193,8.556830753329054
0.7441382165659325,0.7725098320607968,5.617504504278503,2.774788051953152,-11.112871470202197,8.422688027884726
0.7518633148865405,0.6613811173587748,5.6452523847980345,2.8590149322319993,-11.463392826488075,8.330098262271965
0.7584771260601282,0.5467471890938941,5.673842534120355,2.942315914854719,-11.815260856869422,8.28340215026767
0.7639445979510672,0.42859458052519983,5.703265693268902,3.0251499363573955,-12.170101555304655,8.287102598858723
0.7682305437563192,0.30689356497215325,5.733517192632476,3.1080209623459827,-12.530046562090682,8.345898821404967
0.7712994794060407,0.18159309935124643,5.764597402255936,3.191479950560032,-12.897751319378214,8.464726387621196
0.7731154103995532,0.052615586157464284,5.796512201761536,3.276127214436244,-13.27640611874619,8.64879923676337
0.7736415662611279,-0.08014847502999761,5.829273473905899,3.362615206803878,-13.669735250251659,8.903646597759606
0.772840081510828,-0.2168458275325142,5.862899625973938,3.451651672781474,-14.081975977564165,9.235132867035826
0.7706716232355028,-0.35766558730815584,5.897416142701752,3.5440030014518324,-14.517823401006638,9.649440661831138
0.7670949673624212,-0.5028438213182223,5.932856172716271,3.6404974080701438,-14.982318162199613,10.15298472858257
0.762066529149239,-0.6526670029402184,5.969261146796972,3.7420272553559695,-15.480639408317868,10.752204363815792
0.7555398591198368,-0.8074733970233972,6.006681419350532,3.8495492989941273,-16.017742421559195,11.453150201405846
0.7474651251496028,-0.9676508212389892,6.045176912340473,3.9640808010081856,-16.597744281072938,12.260731187057107
0.737788616937213,-1.1336282640497186,6.084817720350555,4.086688112878757,-17.22290544807447,13.177410142422792
0.7264523342967157,-1.3058573185304634,6.125684601479343,4.218462214302985,-17.891972206180725,14.201019884717772
0.7133937611114111,-1.4847770405922707,6.1678692236223736,4.360472413150163,-18.597527073628882,15.321205360096544
