th1 (rad),w1 (rad/s),th2 (rad),w2 (rad/s)
1.4514907575642781,-2.0389955492486274,6.20674361937315,2.257818351732502
1.431100802071792,-2.162928297559605,6.229321802890475,2.312149796851648
1.409471519096196,-2.289293765478973,6.2524433008589915,2.37486912607346
1.3865785814414062,-2.41865706798018,6.276191992119726,2.4466884843250414
1.3623920107616043,-2.5516647803838013,6.300658876962976,2.528405577602999
1.3368753629577663,-2.6890563328126924,6.325942932739006,2.6209197469765333
1.3099847996296394,-2.8316766034291683,6.352152130208772,2.725249363198844
1.2816680335953476,-2.980489073713003,6.3794046238407605,2.8425495535445697
1.2518631428582176,-3.1365881164506884,6.407830119376206,2.974128134780423
1.2204972616937109,-3.301207529834648,6.437571400724011,3.121455547224651
1.1874851863953644,-3.4757197962345625,6.468785956196257,3.286160842460974
1.1527279884330188,-3.6616158497420046,6.501647564620867,3.4699991305758067
1.1161118299355988,-3.8604469167159277,6.536347555926625,3.6747642813611012
1.0775073607684396,-4.073695974732483,6.573095198740236,3.9021009044698536
1.0367704010211147,-4.302523543219234,6.6121162077849345,4.153137477607023
0.9937451655889223,-4.547298532079475,6.653647582561005,4.427814682128748
0.9482721802681275,-4.806783855163634,6.697925729382293,4.72372539996518
0.9002043417164912,-5.076826241607024,6.745162983381944,5.034254636115485
0.849436079300421,-5.348490524764586,6.7955055297430995,5.34593630240086
0.7959511740527752,-5.605985476392473,6.848964892767108,5.635518110982772
0.7398913192888504,-5.825711589465777,6.905320073876935,5.868613352098261
0.6816342033941927,-5.97908258590424,6.964006207397918,6.003683621231297
0.6218433775351503,-6.0414745425239955,7.024043043610231,6.004682058495668
0.5614286321099103,-6.004654647788324,7.084089864195187,5.858643289309335
0.5013820856320271,-5.882998860838031,7.14267629708828,5.58457442385825
0.44255209702364684,-5.706442010345328,7.1985220413268625,5.223673883136075
0.38548767692019353,-5.506414847666002,7.250758780158224,4.819614290448124
0.3304235284435335,-5.3062522252736635,7.298954923062705,4.405017952877098
0.27736100619079684,-5.119419417516347,7.3430051025914755,3.9988702774797344
0.22616681201563338,-4.951934966127543,7.382993805366273,3.609834853635311
0.17664746235435796,-4.805362654807873,7.419092153902627,3.2403992014146707
0.12859383580627923,-4.678981984176207,7.4514961459167735,2.889897307002132
0.08180401596451717,-4.57106579159637,7.480395118986795,2.5562990775243475
0.03609335804855347,-4.4795483345311435,7.505958109762038,2.2371555546438184
-0.008702125296757963,-4.4023429082606915,7.528329665308476,1.9300576618886518
-0.05272555437936488,-4.33747505650431,7.547630241927362,1.6328381274332082
-0.09610030494440798,-4.283124547156029,7.563958623201694,1.3436453863158717
-0.13893155041596827,-4.237625122844132,7.577395077064853,1.0609570437986406
-0.1813078016444096,-4.199446845638592,7.5880046475028395,0.7835668842235801
-0.2233022701007955,-4.167173227212143,7.595840316345075,0.5105618357050308
-0.26497400237291696,-4.1394789153058955,7.600945934702126,0.24129635468892174
-0.3063687915259759,-4.115110500430899,7.603358898249015,-0.024632758484651185
-0.3475198965302849,-4.0928714285016845,7.603112570664169,-0.2874102482066603
-0.3884486108153018,-4.071611237666456,7.600238468182102,-0.5470250999524955
-0.42916472319196636,-4.050218964883253,7.594768217182577,-0.8032925152265701
-0.46966691284079887,-4.027620381225987,7.586735292030311,-1.0558756975153558
-0.5099431166530587,-4.0027786128371705,7.576176535055158,-1.304307890681728
-0.5499709027814303,-3.974697640338371,7.56313345614834,-1.5480149500531692
-0.5897178791848141,-3.942428124991959,7.547653306647808,-1.7863385421684232
-0.6291421604347337,-3.9050749803706415,7.529789921226124,-2.0185598908577886
-0.6681929102384401,-3.861806094901525,7.509604322317546,-2.2439238339765555
-0.7068109711874553,-3.811861615797096,7.487165083977781,-2.461662838548891
-0.7449295873454262,-3.7545632296750684,7.462548455592293,-2.6710205481143467
-0.7824752196421769,-3.689322918346392,7.435838250111149,-2.871274404901935
-0.8193684488256409,-3.6156507261798025,7.40712550606213,-3.0617568963924895
-0.8555249560874388,-3.533161142879472,7.3765079370982045,-3.2418750125654983
-0.8908565675162335,-3.441577776781939,7.34408918697255,-3.4111275565679167
-0.9252723452840529,-3.340736064114787,7.309977911406871,-3.569120017846012
-0.9586797059252008,-3.23058382617629,7.27428671122841,-3.7155767851865007
-0.9909855441869637,-3.111179548547849,7.237130943376545,-3.8503505431591307
-1.0220973396724422,-2.9826883158177098,7.198627437944954,-3.9734287583147796
-1.0519242228306194,-2.845375394743495,7.1588931503618065,-4.084937223393747
-1.0803779767780544,-2.6995975212438865,7.118043778127869,-4.18514069267719
-1.1073739519904933,-2.5457920137817918,7.076192371201097,-4.274440713413252
-1.1328318721283113,-2.384463907014979,7.033447964066965,-4.353370839265606
-1.1566765111984612,-2.2161713717378406,6.989914255674309,-4.422589501447204
-1.1788382249158396,-2.041509754286543,6.945688360659837,-4.482870907875833
-1.199253322458705,-1.8610946232465972,6.9008596515810785,-4.535094433805874
-1.217864268691171,-1.6755442456976202,6.85550870724302,-4.5802330508386175
-1.2346197111481472,-1.485461922762122,6.809706376734634,-4.619341406881826
-1.2494743303757685,-1.29141859082357,6.763512962665816,-4.653544211047312
-1.2623885162840043,-1.0939360397663798,6.716977520555343,-4.684025591086152
-1.273327876681668,-0.8934710159518103,6.670137264644481,-4.712020076733497
-1.282262586841186,-0.6904003717236865,6.623017063877146,-4.738805823553501
-1.2891665905584229,-0.48500730406872994,6.575629005641611,-4.765700634083275
-1.2940166635991102,-0.2774686036644726,6.527971999300778,-4.794061262217269
-1.2967913496357548,-0.06784272470343639,6.480031386678605,-4.825286406530532
-1.2974697768827892,0.14394159912292676,6.4317785226133,-4.8608237063301
-1.29603036089156,0.35809650585738095,6.3831702855499985,-4.902180936988783
-1.2924493958329861,0.5749861984868241,6.33414847618011,-4.950941424870528
-1.286699533848118,0.7951382863523275,6.284639061931405,-5.008783398403818
-1.2787481509845946,1.019254989169155,6.234551227947367,-5.077502431009175
-1.268555601092903,1.248223134133044,6.183776203637276,-5.159035075682283
-1.2560733697515727,1.4831203949190672,6.132185852880453,-5.255479809088965
-1.241242165802382,1.7252124931461785,6.079631054789563,-5.369107722298385
-1.2239900408709201,1.9759311382362728,6.025939977566579,-5.502348650424802
-1.2042307294885575,2.2368136571687423,5.970916491062331,-5.657726278240122
-1.18186259291687,2.50936987057895,5.91433922827993,-5.837694381477536
-1.1567688942110805,2.7948159760304305,5.855962284465154,-6.0442902924048285
-1.1288207344507761,3.0935752729947783,5.795519381541106,-6.278465440168389
-1.0978849817208283,3.4043939818368028,5.732734727139422,-6.538879352655879
-1.0638410419024602,3.7228856820063387,5.6673459336128635,-6.819891775354812
-1.0266121850823968,4.0394033002009575,5.599147015859315,-7.108600772946488
-0.9862181520803872,4.336595569927479,5.52806100812985,-7.381405312548434
-0.9428521963811124,4.588191246770742,5.454246955004366,-7.602219380303176
-0.8969702839134049,4.76224058606174,5.378224761201334,-7.726822399760303
-0.8493478780527876,4.831751107344913,5.3009565372037315,-7.717451338192814
-0.8010303669793384,4.789303019068594,5.223782023821803,-7.562936336071825
-0.7531373367886525,4.653480105659895,5.1481526604610846,-7.287552650905164
-0.7066025357320536,4.459251568858162,5.075277133952033,-6.937771269950879
-0.662010020043472,4.241366219697286,5.005899421252525,-6.559516469918919
-0.6195963578464991,4.024390090534247,4.940304256553335,-6.184691044056136
-0.5793524569411567,3.8218506671009065,4.878457346112774,-5.830203130671719
-0.5411339502701475,3.6394931727885638,4.8201553148060565,-5.502532499619779
-0.5047390185422619,3.478659007349632,4.765129989809859,-5.202370587758401
-0.46995242846876556,3.3385578898955286,4.713106283932275,-4.92769785814837
-0.4365668495698103,3.2175383422990116,4.6638293053507915,-4.675477446387474
-0.4043914661468202,3.113724600880897,4.617074530886917,-4.442485665502125
-0.37325422013801124,3.0253067368656064,4.572649674231896,-4.225676908942965
-0.34300115276935517,2.9506550900298434,4.530392905142467,-4.022317164070789
-0.31349460186905675,2.8883506069062763,4.490169733501759,-3.8300100101307066
-0.284611095799994,2.837177465392964,4.4518696334004515,-3.6466769779366843
-0.25623932114606435,2.7961006124496985,4.415402863621084,-3.470521939264333
-0.22827831502156737,2.7642388340470947,4.380697644228441,-3.2999931171452612
-0.20063592668109642,2.7408380503562078,4.347697713056988,-3.133748492793905
-0.17322754617753433,2.7252466705459364,4.3163602281290485,-2.970626683771499
-0.14597507947207497,2.716893510024939,4.286653961291334,-2.809623679386323
-0.11880614437182557,2.7152681949359017,4.258557724497471,-2.6498750963241284
-0.09165346242246655,2.7199037689909504,4.2320589735342296,-2.4906433430105
-0.06445442473255705,2.7303611856168306,4.207152540104125,-2.3313090015513245
-0.037150812876388745,2.746215419936575,4.183839450088612,-2.17136572835989
-0.009688658677022993,2.767043024151844,4.162125792805012,-2.0104179811378535
0.01798177156449545,2.7924110531614845,4.142021612993634,-1.8481808763422065
0.045905882096110295,2.8218673918567374,4.123539804230212,-1.6844814609475294
0.07412455601467767,2.8549326124890926,4.1066949896207365,-1.5192606487678382
0.1026738821395686,2.891093571602107,4.091502383133058,-1.352575035019969
0.13158481785558968,2.9297990125856748,4.077976632782859,-1.1845977778676196
0.1608828079814464,2.970457462887503,4.066130655004183,-1.0156177396731336
0.19058738261032143,3.012437695882913,4.055974477607451,-0.8460361312004987
0.22071175956915057,3.0550719603427896,4.047514116295447,-0.6763600139793826
0.2512624791725785,3.0976620638587096,4.0407505161556525,-0.5071921982119643
0.2822390998111656,3.1394882354992695,4.0356785941735325,-0.339217325140752
0.3136339821661583,3.1798205001069273,4.032286420922125,-0.17318423076813624
0.34543218716722757,3.217932092231201,4.030554578614443,-0.009885026645292616
0.3776115080895396,3.2531142474610255,4.03045572834799,0.14986833298865407
0.41014265056414984,3.2846915603219906,4.0319544116778765,0.3052689418181189
0.44298956616736973,3.312037015196976,4.035007101096058,0.4555400343239132
0.4761099363193395,3.3345857959844203,4.039562501439297,0.5999589434850088
0.5094557942791837,3.3518470656064583,4.045562090874148,0.7378786361302323
0.5429742649352484,3.3634130689622825,4.05294087723545,0.8687457161785163
0.5766083956248712,3.368965131709876,4.061628334397235,0.9921140666179595
0.61029804694197,3.368276373877877,4.0715494750634145,1.1076536466639955
0.6439808106807487,3.361211201075055,4.0826260115300546,1.2151543261179347
0.6775929226914993,3.347721849594923,4.094777554791234,1.3145249810338822
0.7110701411874485,3.327842425155641,4.107922804601573,1.4057883584638053
0.7443485654390049,3.3016809781969227,4.121980688186211,1.4890724212980653
0.777365375220974,3.269410201012709,4.136871412399191,1.5645989992031053
0.8100594772311012,3.231257320749948,4.152517402391222,1.6326706030564708
0.8423720504386006,3.18749370964483,4.168844108421787,1.6936562218391762
0.8742469875350489,3.138424654002169,4.185780670640179,1.7479768313431012
0.9056312340750706,3.0843796300638777,4.203260438953611,1.7960912230568513
0.9364750303757094,3.0257033395816526,4.221221351184179,1.8384826271683603
0.966732063771526,2.9627476691033623,4.239606177455863,1.8756464701763453
0.9963595404625596,2.8958646600554276,4.258362642157626,1.9080794853310723
1.0253181870631138,2.825400514240086,4.277443437010937,1.9362702891604953
1.0535721922055148,2.7516906118111146,4.296806139902541,1.960691452399594
1.0810890983236259,2.675055485134051,4.316413054426537,1.9817930288944225
1.1078396531749664,2.595797670331109,4.336230984715481,1.9999974599747639
1.1337976298782775,2.5141993465626293,4.356230959315229,2.0156957419105024
1.1589396233439038,2.4305206690039327,4.376387916734334,2.029244727538091
1.183244830033943,2.3449987030354795,4.396680364009715,2.0409654271256623
1.206694817064298,2.257846872672057,4.417090018280971,2.05114217544275
1.2292732857910185,2.169254844336948,4.437601440035399,2.0600225395756473
1.250965834234388,2.079388776670613,4.458201665431155,2.0678178534340823
1.271759722001094,1.9883918773440847,4.478879843965496,2.07470427865004
1.2916436407745349,1.8963852182273464,4.499626886751996,2.0808243065158245
1.3106074929568083,1.80346877029933,4.520435129817154,2.086288630845175
1.3286421806598017,1.7097226290412573,4.541298016125606,2.091178336463624
1.3457394069502142,1.6152084094561068,4.562209799490242,2.0955473618755986
1.3618914910447752,1.519970797063961,4.583165273108998,2.099425207037834
1.3770911990154149,1.424039247005889,4.6041595251793765,2.1028198676625403
1.3913315914854738,1.3274298275145224,4.625187723856002,2.1057209856726553
1.404605889760619,1.2301472062376684,4.646244933712729,2.108103210936642
1.4169073618229957,1.132186777992669,4.667325965822095,2.109929771832324
1.4282292296029224,1.033536930263501,4.688425263540418,2.111156251166051
1.4385645989055573,0.934181437959092,4.709536826052079,2.111734559206401
1.4479064132851482,0.834101971551223,4.730654171644143,2.1116170868999204
1.4562474330006605,0.7332806927683861,4.751770342513142,2.110761009728239
1.4635802399283444,0.6317028998036847,4.772877952610425,2.109132696420691
1.4698972689263812,0.5293596700218726,4.793969279574632,2.106712157489023
1.4751908656266,0.4262504332436604,4.815036401149522,2.103497447362994
1.4794533699590366,0.3223853939817014,4.836071375623152,2.0995089123083845
1.4826772238988537,0.21778770793388647,4.857066464746236,2.0947931562911664
1.4848551009781925,0.11249530825704228,4.878014396309148,2.0894265808787513
1.4859800540607628,0.006562272384015508,4.898908662117935,2.0835183457152606
1.486045676784603,-0.09994037796284934,4.919743845575088,2.0772125955996943
1.4850462730049745,-0.2069245410866532,4.9405159715310845,2.0706898108852707
1.4829770275941079,-0.3142856430457497,4.961222869639937,2.0641671612161336
1.4798341711636505,-0.42190404097007533,4.981864541252098,2.057897778847514
1.4756151307539498,-0.5296472398591774,5.002443519040574,2.0521689159322496
1.470318658355358,-0.6373729012398274,5.022965208199896,2.0472990077195523
1.4639449293429598,-0.744932580311063,5.043438198277091,2.0436337267624567
1.4564956035398493,-0.8521760878429233,5.0638745355447154,2.0415411770939658
1.4479738426614202,-0.9589563379546213,5.084289947315655,2.0414064365202034
1.438384279281874,-1.0651345165504371,5.104704011680857,2.0436257044431656
1.4277329341163696,-1.1705853904847636,5.125140268725289,2.0486003475401517
1.416027080211522,-1.2752025762115653,5.1456262722006905,2.0567311531860066
1.4032750544494064,-1.378903599186313,5.16619358373255,2.068413099531205
1.3894860184575433,-1.4816346007389343,5.186877714727862,2.0840309324487882
1.374669672450154,-1.5833745854814925,5.207718024052349,2.103955805803977
1.358835926595339,-1.684139146695584,5.228757582110389,2.1285431968558766
1.341994535128383,-1.7839836563186124,5.250043014078948,2.1581322582343203
1.3241546985651969,-1.8830059569398352,5.271624336661291,2.1930467174207613
1.3053246389957984,-1.9813486429263694,5.293554803835499,2.2335973894433843
1.2855111525665348,-2.0792010645160834,5.3158907777299325,2.280086333460227
1.264719141921374,-2.1768012315175342,5.338691641064535,2.332812663122186
1.2429511296061986,-2.2744378323009484,5.362019767695757,2.392080017262599
1.2202067512831891,-2.3724526202704537,5.385940567868383,2.4582057139411475
1.1964822250804845,-2.4712434561947196,5.410522625007794,2.5315316490086484
1.1717697905185374,-2.5712683337487428,5.435837941497881,2.6124370617522485
1.14605710718105,-2.6730507612521244,5.4619623121154035,2.7013533765346636
1.1193265995685286,-2.7771869293409304,5.48897584588075,2.7987814427518543
1.0915547302751194,-2.884355166960525,5.516963660308269,2.905311638447167
1.0627111786055141,-2.995328281146942,5.546016776692741,3.0216474781059417
1.0327578957940446,-3.110989492613484,5.5762332514738,3.1486335736404363
1.0016480008679098,-3.232352817984648,5.607719587210204,3.287289035418296
0.9693244726880633,-3.3605888992676842,5.640592477564387,3.4388476502512124
0.9357185836953865,-3.4970574076694163,5.674980954066899,3.604806387715472
0.9007480096186924,-3.6433471684890186,5.711029017944053,3.786983849416212
0.8643145379338022,-3.8013248771150017,5.748898856438215,3.987589926207337
0.8263012891626522,-3.9731922894076144,5.788774755700288,4.209306593236619
0.7865693662685761,-4.161549185004105,5.830867821632655,4.455376219606411
0.744953874418535,-4.369453330890833,5.875421583828719,4.7296853711358695
0.7012593411096266,-4.6004551285743664,5.922718437540078,5.0368132832468415
0.655254789823883,-4.858555302418168,5.973086570372546,5.38197336860883
0.6066692367997013,-5.1479720512077165,6.026906304058635,5.770689745310922
0.5551895162876241,-5.47247771345568,6.084613201511744,6.207874178177011
0.5004647391530673,-5.833823972577823,6.146691943293514,6.695631343475006
0.4421264994272891,-6.228383298178332,6.2136482567282645,7.22857105586607
0.3798426664455058,-6.64077343450325,6.285933967286925,7.78489639225905
0.3134349321004733,-7.034010920498895,6.363782931209515,8.312619737852213
0.24309482289548434,-7.340947505506743,6.446909128588038,8.717547360646295
0.1696853478404169,-7.474213765613021,6.5340846021945005,8.877148468782186
0.09494321018428668,-7.37461806837379,6.622856086882322,8.70823067589574
0.021197029500548775,-7.067941957683697,6.70993839364128,8.246270668294214
-0.0494823900762882,-6.650423782899941,6.792401100324222,7.624965838018675
-0.11598662790528762,-6.215452741601478,6.868650758704408,6.973913909618878
-0.1781411553213024,-5.814201007202029,6.938389897800597,6.363939753284249
-0.2362831653933227,-5.463459354781385,7.00202929533344,5.818167375656255
-0.29091775894113653,-5.163285116346204,7.060210969090003,5.336594204452914
-0.3425506101045986,-4.907904844592972,7.1135769111345315,4.911211985774086
-0.3916296585505283,-4.690454009671393,7.162689030992272,4.532557839279185
-0.4385341986472422,-4.504639823351815,7.208014609385064,4.192005057740351
-0.4835805968807603,-4.345159041149347,7.249934659962467,3.8823376545885586
-0.5270321872922538,-4.207675269949803,7.288758036508353,3.59772147252325
-0.5691089399917518,-4.088669153808371,7.3247352512335855,3.333503407728143
-0.6099956315298355,-3.9852735744415555,7.358070285310867,3.0859921718153718
-0.649848367274251,-3.8951289438252554,7.388930207029021,2.85226788207684
-0.6887996567125035,-3.8162657471861863,7.417452885849789,2.630029457607022
-0.7269623141843654,-3.74701231476743,7.443753180425859,2.4174762447567515
-0.7644324373320397,-3.6859235138538455,7.467927942873427,2.213217173191734
-0.8012916724705782,-3.631726127479114,7.4900601146053445,2.0162008415060044
-0.8376089337453694,-3.583277427201881,7.510222123020404,1.8256609463596298
-0.8734417080173882,-3.5395342486331014,7.528478732484,1.6410725970215172
-0.9088370505037192,-3.499530547728068,7.544889458454215,1.4621160579131862
-0.9438323559809999,-3.4623619128931815,7.559510619033348,1.2886452979002145
-0.9784559751099318,-3.427175844773171,7.5723970720123495,1.1206594224648119
-1.0127277335576634,-3.3931668202551997,7.583603666236997,0.9582756594973333
-1.0466594017602153,-3.3595752616393333,7.5931864228319705,0.8017030883996966
-1.0802551543766086,-3.3256895682214878,7.601203453715968,0.6512167584208455
-1.1135120500588234,-3.2908503669180287,7.607715621300176,0.5071322349842021
-1.1464205537280037,-3.254456130064735,7.612786943650018,0.36978093169257076
-1.178965115028651,-3.215969317099755,7.616484752966944,0.2394868157444358
-1.2111248081996486,-3.1749222410107976,7.618879621124388,0.11654520232967154
