th1 (rad),w1 (rad/s),th2 (rad),w2 (rad/s),a1 (rad/s^2),a2 (rad/s^2)
1.1034087954881313,2.2295426544489096,5.609210860925762,-1.2511580074059079,-8.569011825592755,9.223626881544375
1.1257042220326203,2.143852536192982,5.596699280851703,-1.1589217385904642,-8.463221681898679,8.651122422229756
1.1471427473945501,2.059220319373995,5.585110063465798,-1.0724105143681666,-8.3886166685585,8.107382912852
1.1677349505882901,1.97533415268841,5.574385958322116,-0.9913366852396466,-8.341065766994602,7.589399998586323
1.1874882921151741,1.891923495018464,5.56447259146972,-0.9154426852537834,-8.316860448946796,7.09489614347624
1.2064075270653587,1.808754890528996,5.555318164617182,-0.844493723819021,-8.31264909879762,6.622204237237509
1.2244950759706485,1.7256283995410198,5.546873227378992,-0.7782716814466459,-8.325386076914908,6.170164295164323
1.2417513599660588,1.6423745387718707,5.539090510564526,-0.7165700384950027,-8.35229235677211,5.738034217952716
1.2581751053537775,1.5588516152041496,5.531924810179576,-0.6591896963154755,-8.390825200808244,5.325412319060705
1.273763621505819,1.4749433631960671,5.525332913216421,-0.6059355731248685,-8.438654788184735,4.9321699022716405
1.2885130551377797,1.3905568153142198,5.519273557485173,-0.556613874102152,-8.49364608654381,4.558392603144497
1.3024186232909218,1.3056203544487817,5.5137074187441515,-0.511029948070707,-8.553844582822117,4.204329518589205
1.3154748268354097,1.2200819086205605,5.508597119263444,-0.46898665288481495,-8.617464765654384,3.870349361816856
1.3276756459216152,1.1339072609640166,5.503907252734597,-0.4302831592666464,-8.682880491656668,3.5569030165725204
1.3390147185312553,1.04707845604745,5.49960442114193,-0.3947141291009212,-8.748616575290068,3.2644919438433497
1.3494855030917299,0.9595922902945493,5.495657279850921,-0.3620692096624877,-8.813341120694735,2.9936419327201604
1.3590814259946753,0.8714588790876019,5.492036587754296,-0.3321327903352861,-8.875858266305132,2.7448816988567297
1.3677960147855512,0.7827002964245505,5.4887152598509426,-0.3046839733467188,-8.935101141003035,2.518725830614875
1.3756230177497968,0.6933492850145202,5.4856684201174755,-0.27949671504057005,-8.99012493554919,2.3156615736874437
1.382556510599942,0.6034480356590283,5.48287345296707,-0.2563400993036956,-9.040100076551422,2.1361389366832766
1.3885909909565324,0.5130470348935141,5.480310051974032,-0.23497870993686285,-9.084305553888381,1.9805635977208682
1.3937214613054676,0.4222039793546303,5.477960264874664,-0.21517307395965415,-9.122122498095907,1.8492920986297519
1.397943501099014,0.3309827543736712,5.4758085341350675,-0.19668015297335664,-9.15302813366716,1.742628830557116
1.4012533286427507,0.2394524730369996,5.473841732605334,-0.17925386466778548,-9.176590249538647,1.6608243431388434
1.4036478533731207,0.14768657054161313,5.472049193958656,-0.16264562123639703,-9.192462331264494,1.604074548598286
1.4051247190785368,0.0557619472289682,5.470422737746293,-0.14660487575041417,-9.200379492487267,1.5725204413012974
1.4056823385508264,-0.03624184769590447,5.468956688988788,-0.1308796713374012,-9.200155328136061,1.5662480112034827
1.4053199200738673,-0.12824340097726508,5.467647892275414,-0.11521719122536636,-9.191679789993417,1.5852880948933858
1.4040374860640947,-0.22016019887719926,5.46649572036316,-0.0993643102764325,-9.174918158366006,1.629615979129376
1.4018358840753227,-0.3119093804608593,5.465502077260396,-0.08306815048513874,-9.149911152898119,1.6991506474611362
1.398716790270714,-0.4034084919898405,5.464671395755545,-0.06607664401052737,-9.116776192283314,1.7937536393095446
1.3946827053508157,-0.4945762539126737,5.46401062931544,-0.048139107617431925,-9.075709777890877,1.9132275713304079
1.389736942811689,-0.5853333516915824,5.463529238239265,-0.029006831904127846,-9.026990941262682,2.057314451525712
1.3838836092947733,-0.6756032611042092,5.463239169920223,-0.008433687388870726,-8.970985661261356,2.225693995784684
1.3771275766837312,-0.7653131177168228,5.463154833046334,0.013823252568976117,-8.90815212471638,2.4179822325513323
1.369474445506563,-0.8543946389639866,5.463293065572024,0.03800307489448944,-8.839046676281063,2.633730752130235
1.360930499116923,-0.9427851057267972,5.463673096320969,0.06434038241579179,-8.764330280682373,2.8724270205587557
1.351502648059655,-1.0304284085336208,5.464316500145127,0.09306465262137935,-8.684775305671927,3.13349623164655
1.3411983639743188,-1.1172761615903402,5.4652471466713415,0.12439961493784485,-8.601272429048286,3.416305212348508
1.3300256023584154,-1.203288885880823,5.46649114282072,0.15856266706132993,-8.514837480555803,3.7201689239031603
1.3179927134996072,-1.288437260686381,5.468076769491334,0.19576435630036154,-8.426618051761256,4.044360112387798
1.3051083408927435,-1.3727034412039936,5.4700344130543375,0.23620795742423953,-8.337899746565009,4.388122656537791
1.2913813064807036,-1.4560824386696436,5.4723964926285795,0.28008918398961746,-8.25011200396073,4.750689138023172
1.2768204820940072,-1.538583558709251,5.475197384468475,0.3275960753698492,-8.164833504732396,5.131303121581041
1.2614346465069146,-1.620231893756575,5.478473345222174,0.3789091065856596,-8.083797276106406,5.5292465830888595
1.2452323275693489,-1.701069866517639,5.48226243628803,0.4342015724165482,-8.008895733414292,5.943872868656816
1.2282216289041725,-1.781158823851782,5.4866044520121955,0.4936403011031164,-7.9421860453153,6.3746455153379955
1.2104100406656546,-1.8605806843049348,5.491540855023227,0.5573867562564964,-7.8858963781990905,6.82118322473076
1.1918042338226054,-1.9394396480869258,5.497114722585792,0.625598588503804,-7.842433764734082,7.283311267435892
1.1724098373417362,-2.017863985734267,5.50337070847083,0.6984317011781629,-7.814394549733208,7.76111962369979
1.1522311974843935,-2.096007931231599,5.510355025482611,0.7760428974151607,-7.804578592441607,8.255028249430234
1.1312711181720776,-2.1740537171560153,5.518115454456763,0.858593179909463,-7.816008647523089,8.765860013085677
1.1095305810005174,-2.2522138036312462,5.526701386255858,0.9462517800403198,-7.851956607776932,9.294922092490228
1.0870084429642048,-2.3307333697090153,5.536163904056261,1.0392010009652222,-7.915978570832529,9.844096963026612
1.0637011092671147,-2.4098931554173406,5.546555914065913,1.1376419705954883,-8.01196098990425,10.415944555298918
1.0396021777129414,-2.4900127653163833,5.557932333771868,1.2418014161484776,-8.14418048152536,11.013817705285069
1.0147020500597776,-2.5714545701316367,5.570350347933353,1.3519395932013283,-8.317380177323002,11.641993636861654
0.9889875043584613,-2.6546283719048667,5.583869743865366,1.4683595295699448,-8.536865786429647,12.305824842072793
0.9624412206394126,-2.739997029769163,5.598553339161065,1.5914177779906726,-8.808624699224138,13.011913227748597
0.935041250341721,-2.8280832767614044,5.614467516940972,1.7215369102681586,-9.139471344146553,13.768311522750878
0.906760417574107,-2.91947799020287,5.631682886043654,1.8592200254956674,-9.537221275870829,14.584755202882777
0.8775656376720783,-3.0148502029615782,5.650275086298611,2.0050675775244953,-10.01089448768481,15.472925678617516
0.8474171356424625,-3.114959147838426,5.670325762073856,2.1597968343106704,-10.570943996926307,16.446739500740474
0.8162675441640782,-3.2206685878076895,5.6919237304169625,2.324264229318075,-11.229496584930205,17.5226456938918
0.7840608582860014,-3.3329635536569917,5.715166372710144,2.499490686256993,-12.000574447509988,18.71988810490156
0.7507312227494315,-3.4529692981320914,5.740161279572714,2.6866895673060087,-12.900231525309904,20.060640807966628
0.7162015297681106,-3.5819716133851904,5.767028175245774,2.887295975385675,-13.94647171601603,21.569831573259943
0.6803818136342586,-3.721436330545351,5.795901134999631,3.102994291118274,-15.158690747047373,23.274293047195506
0.6431674503288052,-3.8730232380158247,5.826931077910814,3.3357372215902292,-16.556149280224677,25.200553762378696
0.6044372179486469,-4.038584730818071,5.860288450126716,3.587742759214016,-18.15455285657955,27.36997682024877
0.5640513706404662,-4.2201302593838665,5.896165877718857,3.8614425274165036,-19.959034913609152,29.788863333453634
0.5218500680466275,-4.419720608519958,5.934780302993022,4.15933116075104,-21.950492307750793,32.42925175800133
0.4776528619614279,-4.639225531597466,5.976373614600532,4.483623678331053,-24.0600992632763,35.19316857325825
0.43126060664545324,-4.8798265242302294,6.021209851383842,4.8355553640636355,-26.124173158047004,37.84936545436412
0.38246234140315094,-5.1410682558106995,6.069565405024479,5.214049018607277,-27.81068086614325,39.93033222087856
0.33105165884504395,-5.419175064472132,6.121705895210551,5.613352340816062,-28.518233084470317,40.590779390320996
0.27685990820032264,-5.704357395316835,6.177839418618712,6.019260134719272,-27.29095913358858,38.48850410797211
0.2198163342471543,-5.977266986652721,6.238032019965904,6.404145175798993,-22.900502284003217,31.900010772454877
0.1600436643806271,-6.206272009492753,6.302073471723894,6.723145283523541,-14.379836506099917,19.47068674458648
0.09798094428569956,-6.350070374553752,6.369304924559129,6.917852150969406,-2.120061339141238,1.7552605396909005
0.034480240540162035,-6.371270987945165,6.438483446068823,6.935404756366315,11.318646920541575,-17.644399572248833
-0.029232469339289607,-6.258084518739749,6.507837493632486,6.758960760643826,22.27613869712632,-33.581744354918804
-0.0918133145266871,-6.035323131768486,6.575427101238924,6.423143317094638,28.52241935921279,-42.91590442110266
-0.15216654584437195,-5.750098938176358,6.639658534409871,5.993984272883612,30.32573001122908,-46.0082962321553
-0.20966753522613552,-5.446841638064067,6.699598377138707,5.533901310562059,29.272595112467116,-45.06910716625759
-0.26413595160677616,-5.154115686939396,6.7549373902443275,5.083210238899483,26.872150136018618,-42.203744022522365
-0.31567710847617014,-4.88539418557921,6.805769492633322,4.661172798674259,24.070835641204532,-38.7336442516665
-0.36453105033196226,-4.644685829167164,6.852381220620065,4.273836356157593,21.339047240307284,-35.31650382837302
-0.4109779086236339,-4.431295356764092,6.895119584181641,3.9206713178738632,18.867267436921193,-32.2194255234857
-0.45529086219127485,-4.24262268239488,6.934326297360379,3.5984770626390064,16.70766235614293,-29.51610705480068
-0.49771708901522366,-4.075546058833451,6.97031106798677,3.3033159920909996,14.852109213653922,-27.19551910235787
-0.5384725496035582,-3.9270249666969117,7.00334422790768,3.0313608010674207,13.270204893012435,-25.21489754257629
-0.5777427992705273,-3.794322917766787,7.033657835918354,2.779211825641658,11.926343575324058,-23.523623995899083
-0.6156860284481952,-3.6750594820135465,7.061449954174771,2.543975585682667,10.786729984507426,-22.073111696673756
-0.6524366232683306,-3.5671921821684722,7.086889710031597,2.3232444687159295,9.82179766315146,-20.82030170459777
-0.6881085450900154,-3.4689742055369575,7.1101221547187565,2.115041451669952,9.006635469344719,-19.728388164464914
-0.722798287145385,-3.37890785084351,7.131272569235456,1.9177575700253027,8.320621235856356,-18.76643906984241
-0.75658736565382,-3.2957016384849465,7.150450144935709,1.7300931793268786,7.746798008059204,-17.908656422960192
-0.7895443820386695,-3.2182336584043543,7.167751076728978,1.5510066150972766,7.271221049957097,-17.133592118914247
-0.8217267186227131,-3.1455214479047835,7.18326114287995,1.379670693908134,6.882364189976912,-16.423441125872575
-0.8531819331017609,-3.0766978060050145,7.197057849819032,1.2154362826494083,6.570612418553642,-15.763447123768815
-0.8839489111618111,-3.010991681819478,7.209212212645526,1.05780181141172,6.32784187170373,-15.141419349617518
-0.9140588279800058,-2.9477132631024405,7.219790230759643,0.9063876179155448,6.147078779083836,-14.547345750252937
-0.9435359606110302,-2.8862424753116023,7.228854106938798,0.7609141604130154,6.022226469015112,-13.97308400730244
-0.9723983853641462,-2.826020210621451,7.236463248542928,0.621183320339991,5.947849881953328,-13.41211273688509
-1.0006585874703608,-2.766541711801918,7.242675081746328,0.4870621929711401,5.919008338845294,-12.85932752649391
-1.0283240045883801,-2.707351628413465,7.24754570367604,0.35846891770620104,5.931128721131462,-12.310869282133435
-1.0553975208725148,-2.64804034120215,7.251130392853102,0.2353602248848667,5.979912433422881,-11.763975124289733
-1.0818779242845362,-2.5882412168679214,7.25348399510195,0.11772047364196936,6.061270460904475,-11.216844594518154
-1.1077603364532154,-2.5276285122588766,7.25466119983837,0.005552027696787823,6.171281526760817,-10.668516142622376
-1.133036621575804,-2.4659156969912686,7.254716720115338,-0.10113313372943594,6.306168864762304,-10.11875073261901
-1.1576957785457167,-2.4028540083436454,7.253705388778044,-0.20232064105562603,6.462291520428196,-9.56792092651566
-1.181724318629153,-2.3382310931393633,7.251682182367487,-0.29799985032078263,6.636146444527158,-9.016904979617994
-1.2051066295605466,-2.2718696286940916,7.248702183864279,-0.3881689001169626,6.824377993033462,-8.466986319409008
-1.2278253258474876,-2.203625848763757,7.244820494863109,-0.4728387633110527,7.023791827609899,-7.919759302557486
-1.249861584335125,-2.133387930487658,7.240092107229999,-0.5520363563366275,7.231370631906124,-7.3770423840361365
-1.2711954636400016,-2.0610742241685966,7.234571743666632,-0.6258067801769889,7.44428951781503,-6.840799832938452
-1.2918062058816875,-1.9866313289904463,7.228313675864862,-0.6942147785063734,7.659929477390368,-6.313072944467192
-1.3116725191715919,-1.9100320342165427,7.221371528079798,-0.7573455079510453,7.875887718784622,-5.7959213843488255
-1.3307728395137572,-1.8312731570286964,7.213798073000287,-0.8153047217945335,8.08998418456631,-5.291374917835003
-1.3490855710840441,-1.7503733151830334,7.205645025782342,-0.8682184709728835,8.300263966118688,-4.801395372645788
-1.3665893042358745,-1.6673706755218465,7.196962841072613,-0.9162324246993414,8.504995681096446,-4.327848307093479
-1.383263010991093,-1.582320718710882,7.18780051682562,-0.9595109077702761,8.702666160940113,-3.872483533564355
-1.3990862181782018,-1.495294057101481,7.178205407747917,-0.9982357431059197,8.891971997736151,-3.436923404087497
-1.4140391587492165,-1.4063743371241195,7.1682230503168585,-1.0326049771467947,9.071808625996269,-3.022657608231115
-1.4281029021204577,-1.3156562508641567,7.157897000545391,-1.0628315532291057,9.241257672011889,-2.631043163789542
-1.4412594646290993,-1.2232436741440378,7.147268685013099,-1.0891419848670012,9.399573301691172,-2.263308290033908
-1.4534919013705396,-1.1292479411271261,7.1363772651644295,-1.1117750677673404,9.54616824958833,-1.9205589291283462
-1.4647843807818108,-1.0337862586312427,7.125259514486756,-1.1309806570586238,9.680600130162768,-1.6037868084483093
-1.4751222433681233,-0.9369802573296151,7.11394970791617,-1.1470185251431069,9.80255852958547,-1.3138780990779928
-1.4844920459414195,-0.8389546720337604,7.102479522664739,-1.1601573061338868,9.91185326370987,-1.0516219086216014
-1.4928815926617571,-0.7398361393966617,7.0908779496034,-1.1706735252201028,10.008404074372661,-0.8177180363585838
-1.5002799540557237,-0.639752098652935,7.0791712143512,-1.1788507055836888,10.092231929172653,-0.6127836048129137
-1.5066774750422531,-0.5388297793612085,7.067382707295363,-1.184978541631818,10.16345199445807,-0.43735835567325665
-1.5120657728358653,-0.43719525941662774,7.055532921879045,-1.1893521251885506,10.2222682707456,-0.2919085538967966
-1.5164377254300316,-0.33497257670917174,7.043639400627159,-1.1922712107275186,10.268969815917371,-0.1768295782283747
-1.5197874511971234,-0.23228287854999802,7.031716688519883,-1.1940395065098024,10.30392843471915,-0.09244738768694036
-1.5221102799826234,-0.1292435942028065,7.019776293454785,-1.1949639803866718,10.327597682754067,-0.039019141792898775
-1.5234027159246515,-0.02596761737526583,7.007826653650919,-1.1953541718046008,10.340513018072953,-0.01673331861859261
-1.523662392098404,0.0774375128054637,6.995873111932873,-1.1955215049907868,10.343292931913329,-0.02570972118444569
-1.5228880169703494,0.18087044212459696,6.983917896882965,-1.1957786022026313,10.336640900237795,-0.06599979191607701
-1.5210793125491033,0.28423685112697494,6.971960110860939,-1.1964386001217922,10.321348017561151,-0.13758766977112008
-1.5182369440378336,0.38745033130258644,6.959995724859722,-1.1978144768195034,10.298296202379088,-0.24039242833163935
-1.5143624407248077,0.4904332933263773,6.948017580091527,-1.2002184011028199,10.26846189784455,-0.37427192873481163
-1.5094581077915439,0.5931179123048228,6.936015396080498,-1.203961120390168,10.232920231090736,-0.539028711795995
-1.5035269286684956,0.6954471146157302,6.923975784876597,-1.2093514075081278,10.192849639135325,-0.7344183419634486
-1.4965724575223383,0.7973756110070834,6.911882270801516,-1.2166955909277621,10.149537018487463,-0.9601606046294833
-1.4885987014122675,0.8988709811919581,6.899715314892238,-1.226297196974057,10.104383509813685,-1.2159539505618608
-1.4796099916003478,0.9999148162900949,6.887452342922497,-1.2384567364796757,10.058911089234204,-1.5014935796320295
-1.4696108434374469,1.100503927182437,6.8750677755577,-1.253471672275996,10.014770205481296,-1.8164935636288722
-1.4586058041656225,1.20065162923725,6.8625330588349405,-1.2716366079122847,9.973748779242646,-2.160713428163748
-1.4465992878732499,1.3003891170296764,6.849816692755818,-1.2932437421939222,9.937782970032794,-2.5339896504682224
-1.433595396702953,1.3997669467300042,6.836884255333879,-1.3185836386986045,9.90897021989218,-2.9362725879824665
-1.419597727235653,1.4988566489289261,6.8236984189468926,-1.347946364578429,9.88958520561964,-3.3676694376590546
-1.4046091607463638,1.5977525009851226,6.810218955301108,-1.3816230589550196,9.882099476110659,-3.8284939444668478
-1.3886316357365125,1.696573495746229,6.796402724711558,-1.419907998399688,9.889205723140694,-4.319323737188485
-1.3716659007790502,1.795465552977636,6.782203644727561,-1.463101235771573,9.913847837279427,-4.841066378340667
-1.3537112452492739,1.8946040313504302,6.767572632369846,-1.5115118995549797,9.959258139982598,-5.395035480716425
-1.3347652049357697,1.9941966127502562,6.752457513374296,-1.565462254362144,10.029003461417316,-5.983038571465833
-1.314823238808267,2.0944866473644295,6.736802890830674,-1.6252926400768022,10.127042050905176,-6.607478776267281
-1.2938783723346228,2.1957570678734815,6.720549964429906,-1.691367427839475,10.257793655004086,-7.2714728398575135
-1.271920801655888,2.2983350044235222,6.703636290151511,-1.7640821562380502,10.426225453481383,-7.978988460612753
-1.248937451611653,2.402597258958336,6.68599546858913,-1.8438720408441778,10.637956851383672,-8.735004317058914
-1.2249114790220696,2.508976827472173,6.667556748180688,-1.931222084014767,10.899386273369005,-9.545696340474164
-1.199821710747348,2.6179706902058633,6.648244527340541,-2.0266790474195084,11.217842872405308,-10.418653421999176
-1.1736420038452893,2.7301491189299165,6.627977736866346,-2.1308655816395,11.601765023657826,-11.363124229506397
-1.14634051265599,2.8461667691664947,6.606669081049951,-2.244496823934564,12.060904824462781,-12.390293013533105
-1.117878844964325,2.9667758174111225,6.584224112810605,-2.368399754069895,12.606552065116494,-13.513574088984138
-1.088211086790214,3.0928413380622874,6.560540115269906,-2.5035354949597366,13.251759486126598,-14.748898166688036
-1.057282673409591,3.2253589329235535,6.5355047603203085,-2.651024476626617,14.011528420333097,-16.11493160238931
-1.0250290840803555,3.3654742171268843,6.5089945155540425,-2.81217379265051,14.902870536429251,-17.63310845698495
-0.9913743419090867,3.514502922491177,6.480872777627537,-2.9885048772203597,15.944579616980823,-19.327240134121496
-0.9562293126841749,3.673948718660985,6.450987728855334,-3.1817772785615746,17.15639459935756,-21.22225266626847
-0.919489825497565,3.845512664654561,6.419169956069718,-3.3939998052242593,18.556952923255132,-23.341205330868412
-0.8810346988510194,4.031082193887112,6.385229958017475,-3.6274118585329433,20.159420066416985,-25.699023844993132
