th1 (rad),w1 (rad/s),th2 (rad),w2 (rad/s),a1 (rad/s^2),a2 (rad/s^2)
3.1395968328566095,-0.12618099986423906,2.0355247404251604,-1.828023502724217,0.5074643780902006,-8.974766082233826
3.138335022857967,-0.12110635608333706,2.0172445053979184,-1.9177711635465553,0.2544145051172927,-8.936851757322465
3.1371239592971336,-0.11856221103216413,1.998066793762453,-2.00713968111978,-0.010802441021653716,-8.901694792113743
3.135938337186812,-0.11867023544238067,1.9779953969512551,-2.0961566290409177,-0.28830688344540484,-8.870115053040607
3.1347516348323885,-0.12155330427683472,1.957033830660846,-2.184857779571324,-0.5782409928994527,-8.842928776484515
3.13353610178962,-0.12733571420582926,1.9351852528651328,-2.273287067336169,-0.8807730293409125,-8.82093770476146
3.1322627446475617,-0.13614344449923838,1.9124523821917712,-2.3614964443837834,-1.1961012480247029,-8.804917635137267
3.130901310202569,-0.1481044569794854,1.8888374177479332,-2.4495456207351562,-1.524457078280752,-8.795606503035756
3.129420265632774,-0.16334902776229293,1.8643419615405816,-2.537501685765514,-1.866107280590863,-8.793692077375338
3.127786775355151,-0.18201010056820155,1.8389669446829264,-2.625438606539267,-2.2213547903842925,-8.799799291894116
3.125966674349469,-0.20422364847204447,1.8127125586175337,-2.713436599458208,-2.5905379627713923,-8.81447717521498
3.1239244378647486,-0.23012902809975838,1.7855781926229515,-2.801581371210358,-2.9740279388981246,-8.838185278291368
3.121623147583751,-0.2598693074887396,1.7575623789108479,-2.8899632239932718,-3.372223859760318,-8.871279434764299
3.1190244545088635,-0.2935915460863428,1.7286627466709152,-2.9786760183409147,-3.7855456558015828,-8.913996631465295
3.116088539048,-0.3314470026443586,1.698875986487506,-3.0678159846555677,-4.214424139880929,-8.966438716385396
3.1127740690215564,-0.3735912440431679,1.6681978266409503,-3.1574803718194215,-4.659288127660787,-9.028554633259931
3.109038156581125,-0.4201841253197758,1.636623022922756,-3.247765918152021,-5.120548304661743,-9.10012084878122
3.104836315327927,-0.4713896083663932,1.604145363741236,-3.338767126639833,-5.598577555889435,-9.180719633755974
3.100122419244263,-0.5273753839252876,1.5707576924748377,-3.430574322977393,-6.093687476077745,-9.269714877031802
3.0948486654050105,-0.5883122586860651,1.5364519492450637,-3.523271471747711,-6.606100791572388,-9.366225155060697
3.08896554281815,-0.654373266601789,1.5012192345275865,-3.616933723298318,-7.135919455442973,-9.469093855632254
3.082421810152132,-0.7257324611562187,1.4650498972946033,-3.7116246618546405,-7.683088233670742,-9.57685626750608
3.07516448554057,-0.8025633434929261,1.427933650676057,-3.8073932245297013,-8.247353691588314,-9.68770370505529
3.0671388521056406,-0.8850368804088092,1.38985971843076,-3.9042702615802543,-8.828218626532962,-9.799444945682394
3.0582884833015527,-0.9733190666741388,1.3508170158149575,-4.002264711037078,-9.424892185823854,-9.909465524563865
3.0485552926348114,-1.0675679885323774,1.3107943687045867,-4.101359366282717,-10.036236169291795,-10.014685761863458
3.037879612749488,-1.1679303502252953,1.2697807750417596,-4.201506223901351,-10.66070835170535,-10.111518794810733
3.0262003092472347,-1.2745374337423487,1.2277657128027462,-4.302621411849458,-11.296304078163368,-10.195830349011887
3.013454934909811,-1.3875004745239825,1.1847394986842517,-4.404579715339577,-11.940497884584145,-10.262902500595713
2.9995799301645714,-1.506905453369824,1.1406937015308558,-4.507208740345534,-12.590187466526713,-10.307404233227496
2.984510875630873,-1.6328073280350912,1.0956216141274004,-4.6102827826778086,-13.241642940794431,-10.323372147601317
2.968182802350522,-1.7652237574430356,1.0495187863006223,-4.713516504153822,-13.890464977205095,-10.304205184633108
2.9505305647760918,-1.9041284072150866,1.0023836212590842,-4.816558556000153,-14.531555964373974,-10.242677607010611
2.931489280703941,-2.0494439668588265,0.9542180356990827,-4.9189853320702595,-15.159108833453011,-10.130974657860815
2.9109948410353526,-2.2010350551933566,0.9050281823783801,-5.020295078648868,-15.766618396810939,-9.960755175770078
2.888984490483419,-2.358701239161466,0.8548252315918914,-5.1199026304065685,-16.34691994847806,-9.723244881783492
2.865397478091804,-2.522170438646247,0.8036262052878257,-5.217135079224404,-16.89225929964146,-9.409362965282188
2.8401757737053415,-2.6910930316426613,0.7514548544955817,-5.311228708877226,-17.394397280083826,-9.009882912914708
2.813264843388915,-2.8650370044434994,0.6983425674068094,-5.401327538006373,-17.844749960520982,-8.515626240307975
2.78461447334448,-3.0434845040487093,0.6443292920267457,-5.486483800409453,-18.23456344896332,-7.917684985459748
2.754179628303993,-3.2258301385383423,0.5894644540226512,-5.565660650264051,-18.555119198933713,-7.207665712634533
2.7219213269186096,-3.4113813305276794,0.5338078475200108,-5.637737307390396,-18.79796258146621,-6.377944701357082
2.6878075136133326,-3.5993609563423417,0.4774304744461068,-5.701516754403967,-18.955144398287686,-5.421921432553406
2.6518139040499094,-3.7889124003252186,0.42041530690206713,-5.755735968729501,-19.019462552623768,-4.334255998377766
2.613924780046657,-3.979107025851456,0.3628579472147721,-5.799078528713278,-18.984689813993548,-3.1110762274161523
2.5741337097881423,-4.168953923991392,0.3048671619276393,-5.830189290987439,-18.845774053730675,-1.7501425959376335
2.5324441705482283,-4.357411664528699,0.2465652690177649,-5.847690716946816,-18.59899987808484,-0.2509635995348067
2.488870053902941,-4.543401663309547,0.18808836184829675,-5.850200352942164,-18.24210535248862,1.385138991818975
2.4434360372698456,-4.725822716834434,0.1295863583188751,-5.8363489630239735,-17.774354206100274,3.155007348287682
2.396177810101501,-4.903566258895436,0.07122286868863537,-5.804798889541097,-17.196571787925073,5.053651103288688
2.347142147512547,-5.075531976774687,0.013174879793224396,-5.754262378508209,-16.51116093803071,7.074253847472895
2.2963868277448,-5.240643586154993,-0.0443677439918577,-5.6835198400334805,-15.7221203397032,9.20815530563243
2.24398039188325,-5.397864789552026,-0.1012029423921925,-5.591438286977156,-14.835091203519285,11.444783063924243
2.1900017439877297,-5.546215701587219,-0.15711732526196406,-5.476990456337914,-13.857456805294602,13.771515506609166
2.1345395869718575,-5.684790269640165,-0.2118872298253432,-5.339275301271822,-12.798512380907452,16.17347286064997
2.077691684275456,-5.81277539344924,-0.2652799828380614,-5.177540572665323,-11.66970981619745,18.633255643170088
2.0195639303409636,-5.9294724916112145,-0.31705538856471466,-4.991208016233622,-10.484963111712156,21.130677607840884
1.9602692054248514,-6.034322122728336,-0.3669674687270509,-4.779901240155213,-9.260978663922058,23.6425699814708
1.899925984197568,-6.126931909367557,-0.41476648112860304,-4.543475540340505,-8.017552325143672,26.142759990705777
1.8386566651038925,-6.207107432618994,-0.46020123653200806,-4.282047940433447,-6.77775770386719,28.602342415964188
1.7765855907777026,-6.274885009657665,-0.5030217159363425,-3.9960245162738053,-5.567942921502604,30.990360495200058
1.713836740681126,-6.330564438872691,-0.5429819610990805,-3.6861209113218045,-4.417461691830849,33.274985323430926
1.650531096292399,-6.374739055790999,-0.5798431702122985,-3.3533710580874954,-3.358093126201224,35.425227994323556
1.586783705734489,-6.408319987053011,-0.6133768807931734,-2.99911877814426,-2.4231534280362492,37.41313965255305
1.5227005058639589,-6.432551521333374,-0.643368068574616,-2.6249873816187295,-1.6463665732079926,39.21636342086531
1.4583749906506251,-6.449015187065454,-0.6696179423908033,-2.2328237474100763,-1.0606292563208428,40.82081905264481
1.3938848387799707,-6.459621479628662,-0.691946179864904,-1.8246155568836282,-0.6968627135860255,42.223250728566704
1.329288623983684,-6.466590106764523,-0.7101923354337403,-1.4023830495979612,-0.5831753039136504,43.4333725504539
1.264622722916039,-6.472421859803659,-0.7242161659297199,-0.9680493240934223,-0.7445550861949559,44.475415907435824
1.1998985043180024,-6.479867410665609,-0.7338966591706542,-0.523295165019064,-1.20327122801082,45.38901204019045
1.1350998302113462,-6.491900122945717,-0.7391296108208448,-0.06940504461715952,-1.9800984842931788,46.22950867558478
1.070180828981889,-6.511701107788649,-0.7398236612670164,0.39289004213868833,-3.096409867580142,47.06798734849042
1.0050638179040026,-6.54266520646445,-0.7358947608456294,0.8635699156235925,-4.5771291379938575,47.991382150374
0.9396371658393581,-6.588436497844389,-0.7272590616893935,1.3434837371273325,-6.4545069711516065,49.103169875608344
0.8737528008609142,-6.652981567555905,-0.7138242243181201,1.834515435883416,-8.772669274065443,50.52507295000221
0.8072229851853552,-6.740708260296559,-0.6954790699592859,2.339766165383438,-11.592823969246428,52.40002388860817
0.7398159025823896,-6.8566364999890235,-0.6720814083054515,2.8637664042695197,-14.998746987435336,54.89610007179626
0.6712495375824994,-7.0066239698633765,-0.6434437442627563,3.412727404987482,-19.101310504045642,58.20974585995031
0.6011832978838656,-7.197637074903833,-0.6093164702128815,3.9948248635869854,-24.038395384596818,62.563025381967414
0.5292069271348273,-7.438021028749801,-0.5693682215770116,4.620455117406659,-29.960103653819488,68.18048725886818
0.4548267168473293,-7.7376220652879955,-0.523163670402945,5.302259989995341,-36.97273588527524,75.20803764057962
0.3774504961944493,-8.107349424140748,-0.4701410705029916,6.054340366401137,-44.97481652883161,83.47980539217102
0.29637700195304184,-8.557097589429064,-0.40959766683898025,6.889138420322847,-53.23089234379644,91.91628637778486
0.2108060260587512,-9.08940651286703,-0.34070628263575176,7.808301284100695,-59.39983193483343,97.15698068019803
0.11991196093008091,-9.683404832215363,-0.2626232697947448,8.779871090902676,-57.88526283545983,91.2468618693282
0.023077912607927284,-10.26225746056996,-0.17482455888571807,9.692339709595958,-39.373600512608164,61.015745299529634
-0.07954466199777233,-10.655993465696042,-0.07790116178975849,10.302497162591253,1.1558330543528244,-0.5797917203031828
-0.18610459665473275,-10.644435135152515,0.025123809836154046,10.296699245388222,47.24664828513834,-70.19818473804877
-0.2925489480062579,-10.171968652301132,0.12809080229003628,9.594717398007734,71.09928009137126,-108.40424280246351
-0.39426863452926925,-9.460975851387419,0.22403797627011363,8.5106749699831,70.03563828517501,-111.13163195258095
-0.48887839304314346,-8.760619468535669,0.30914472596994463,7.39935865045729,58.738012046182206,-98.93813337735574
-0.5764845877285001,-8.173239348073848,0.3831383124745175,6.409977316683733,46.58431080557036,-85.10404007685277
-0.6582169812092385,-7.707396240018144,0.44723808564135487,5.558936915915205,36.321293341428095,-73.62409197165333
-0.7352909436094199,-7.344183306603863,0.502827454800507,4.8226959961986715,28.1627645724735,-64.8996569268319
-0.8087327766754586,-7.062555660879128,0.5510544147624936,4.1736994269303525,21.727783090136086,-58.455318610391274
-0.87935833328425,-6.845277829977767,0.5927914090317972,3.5891462408264396,16.605264440026122,-53.7404681781281
-0.9478111115840276,-6.679225185577506,0.6286828714400615,3.0517415590451584,12.472157703882845,-50.30344698906906
-1.0146033634398026,-6.554503608538678,0.6592002870305131,2.548707089154468,9.096028495341328,-47.80084764926295
-1.0801483995251895,-6.463543323585264,0.6846873579220578,2.0706986126618387,6.315137235720039,-45.9734822458905
-1.1447838327610422,-6.400391951228063,0.7053943440486762,1.6109637902029337,4.0188473830004705,-44.622073870641096
-1.2087877522733228,-6.360203477398058,0.7215039819507055,1.1647430514965227,2.1324203750767343,-43.58911399947608
-1.2723897870473033,-6.338879273647291,0.7331514124656707,0.7288519115017618,0.6057818286413699,-42.74677928483063
-1.3357785797837762,-6.332821455360877,0.7404399315806883,0.30138411865345544,-0.594851615144084,-41.98956970534573
-1.399106794337385,-6.338769971512318,0.7434537727672229,-0.11851157840000187,-1.4933921172183595,-41.23035570994357
-1.4624944940525082,-6.353703892684502,0.7422686569832229,-0.5308151354994375,-2.108913815663252,-40.39873624388326
-1.5260315329793532,-6.3747930308411345,0.7369605056282285,-0.9348024979382701,-2.4595760209216864,-39.440778815651605
-1.5897794632877646,-6.3993887910503515,0.7276124806488458,-1.329210286094786,-2.565515375263907,-38.31933260831342
-1.6537733511982682,-6.425043944802991,0.7143203777878979,-1.7124036121779203,-2.45068749654517,-37.014224369184305
-1.718023790646298,-6.449550819768443,0.6971963416661188,-2.082545855869763,-2.14363390423472,-35.52180752528975
-1.7825192988439824,-6.47098715881079,0.6763708831074211,-2.4377639311226607,-1.6772199054745307,-33.85355242977113
-1.8472291704320902,-6.487759357865536,0.6519932437961945,-2.776299455420372,-1.0874997737292353,-32.033619863242116
-1.9121067640107456,-6.498634355602828,0.6242302492419908,-3.0966356540527933,-0.41197432559252095,-30.095604366929418
-1.977093107566774,-6.5027540988587536,0.5932638927014628,-3.3975916977220875,0.31242626452768574,-28.078815230789505
-2.0421206485553616,-6.499629836213477,0.5592879757242419,-3.6783798500299825,1.051297632408796,-26.024543181683917
-2.1071169469174964,-6.489116859889389,0.5225041772239422,-3.9386252818468215,1.7743771487885667,-23.972732668974373
-2.17200811551639,-6.471373088401504,0.48311792440547396,-4.178352608536565,2.4566459601158996,-21.959366956887507
-2.236721846400405,-6.446806628800345,0.4413343983201083,-4.39794627810544,3.0788578386941747,-20.01471891671914
-2.3011899126884083,-6.416018050413403,0.3973549355390539,-4.598093467272632,3.6275356042209137,-18.162469133794648
-2.3653500931925424,-6.379742694371194,0.35137400086632753,-4.779718158610578,4.0945433050327145,-16.41957708745077
-2.4291475201362545,-6.338797261320867,0.30357681928022173,-4.943913929485086,4.47637266935055,-14.796724885509075
-2.492535492749463,-6.294033534627361,0.25413767998537085,-5.091881178340176,4.7732812251621795,-13.29913419165944
-2.555475828095737,-6.246300722375739,0.20321886820196908,-5.2248725202567705,4.988397712373764,-11.927573456202731
-2.617938835319494,-6.196416745252002,0.15097014299940137,-5.344148254818798,5.126879188237454,-10.679409116865436
-2.679903002772014,-6.145147953369627,0.09752866045121339,-5.450942345987452,5.195172331240074,-9.549597657233486
-2.7413544823057103,-6.093196230057226,0.04301923699133886,-5.546438322559787,5.20040422554136,-8.531555996923576
-2.8022864446062825,-6.041192187801813,-0.012445146234259012,-5.631753882529023,5.1499076074218495,-7.617880683391492
-2.8626983664843006,-5.989693111727594,-0.06876268505954924,-5.707932689362938,5.050872258309649,-6.800910217844813
-2.9225952976015765,-5.939184389144498,-0.12584201195317862,-5.775941791541386,4.910106831006368,-6.073140183945159
-2.9819871414930215,-5.890083320834434,-0.1836014298685925,-5.836673193380838,4.733892367245222,-5.4275093000752275
-3.040887974701366,-5.842744397161982,-0.24196816180240086,-5.89094828638159,4.527908623228541,-4.85757798597302
-3.099315418672986,-5.797465310929697,-0.30087764466621675,-5.9395240662413205,4.297215855793336,-4.3576212460930215
-3.157290071782283,-5.754493152371763,-0.36027288532862994,-5.983100278702251,4.046277059580983,-3.922655985758577
-3.2148350033060007,-5.714030381775953,-0.42010388811565247,-6.022326838559836,3.779008213697566,-3.5484202623054397
-3.27197530712376,-5.676240299638978,-0.48032715650125085,-6.057811041182891,3.4988465619780182,-3.2313190636961466
-3.3287377101201496,-5.641251834019197,-0.5409052669130797,-6.0901242318198525,3.208829148775045,-2.9683483741152057
-3.3851502284603416,-5.609163542531447,-0.6018065092312782,-6.119807715561005,2.9116757035460092,-2.7570067219499466
-3.441241863885656,-5.580046785495987,-0.6630045863868883,-6.147377782780504,2.6098715146143436,-2.5952011870675955
-3.497042331740616,-5.553948070349843,-0.7244783642146934,-6.17332979465118,2.3057471870449673,-2.481152981132122
-3.552581812444114,-5.5308905984793935,-0.7862116621612052,-6.198141324462502,2.0015531832704774,-2.41330618241592
-3.607890718428908,-5.510875066646689,-0.8481930754058302,-6.222274386286661,1.6995278387068857,-2.3902419671292185
-3.662999469095375,-5.49387978825962,-0.9104158192686969,-6.246176805957953,1.4019581629190339,-2.410599692764606
-3.7179382669779715,-5.47986020663043,-0.9728775873282763,-6.270282802885599,1.1112332073362492,-2.4730054191760518
-3.7727368690442757,-5.468747874557067,-1.0355804153571324,-6.295012857077359,0.8298901235693606,-2.576007869760482
-3.8274243477898464,-5.460448973321373,-1.098530543927906,-6.320772935774964,0.5606532669998712,-2.7180214137841023
-3.8820288375230603,-5.454842440651374,-1.1617382732856556,-6.347953149912805,0.3064668294874631,-2.897275372304381
-3.936577261929574,-5.4517777723564995,-1.2252178047847837,-6.376925903635849,0.07052152115052869,-3.111768799108791
-3.9910950396531386,-5.451072557144994,-1.2889870638211423,-6.408043591626937,-0.14372422900845544,-3.35922985274698
-4.045605765224589,-5.452509799435078,-1.3530674997374117,-6.441635890154407,-0.33252821450641923,-3.637078946962659
-4.100130863218939,-5.455835081580142,-1.4174838586389558,-6.478006679624033,-0.4918534015278077,-3.9423950380512403
-4.1546892140347405,-5.46075361559542,-1.4822639254351961,-6.5174306300045455,-0.6173620305807066,-4.271884674724156
-4.209296750190695,-5.4669272359012275,-1.5474382317352415,-6.560149476751787,-0.7044153535852774,-4.621853797096764
-4.263966022549707,-5.4739713894370805,-1.6130397265027594,-6.606368014722755,-0.7480798907342592,-4.988182726473899
-4.318705736444078,-5.481452188344423,-1.679103406649987,-6.656249841987494,-0.7431415433200365,-5.366305337680166
-4.373520258327522,-5.488883603777623,-1.745665905069862,-6.709912895364296,-0.6841293903680336,-5.751194050957139
-4.428409094365298,-5.495724897681304,-1.8127650340235049,-6.767424835873867,-0.5653515101076486,-6.13735301742731
-4.483366343342111,-5.50137841278238,-1.8804392823822436,-6.82879836604814,-0.38094567350018926,-6.518822689382212
-4.538380127469935,-5.505187869517382,-1.948727266042725,-6.893986592941962,-0.12494821275759738,-6.889199839055771
-4.593432006165109,-5.506437351644958,-2.0176671319721446,-6.96287859133252,0.20861529058329806,-7.241677970987303
-4.648496379681559,-5.5043511987391245,-2.08729591788547,-7.035295371042393,0.6256137147949958,-7.569113888148065
-4.70353989166895,-5.498095061591174,-2.1576488715958937,-7.110986509923873,1.131664903276082,-7.864126807645024
-4.758520842284862,-5.486778412558413,-2.2287587366951325,-7.1896277780003235,1.731958015524749,-8.1192367209177
-4.813388626410446,-5.469458832403165,-2.3006550144751357,-7.2708201452095,2.4310420632222365,-8.32704845333941
-4.868083214734478,-5.445148411770943,-2.3733632159272307,-7.3540906297428945,3.2325810799514825,-8.480486858851535
-4.922534698852187,-5.412822600971428,-2.4469041222246597,-7.4388954983314095,4.139079460594752,-8.573086531181884
-4.976662924861902,-5.3714318063654805,-2.521293077207974,-7.524626363643228,5.151585166741666,-8.599336095229395
-5.030377242925557,-5.319915954698064,-2.596539340844406,-7.610619724595522,6.269383695929248,-8.555072422038918
-5.083576402472537,-5.257222117738771,-2.6726455380903613,-7.696170448815911,7.489701726047331,-8.437914026367926
-5.136148623649925,-5.182325100478298,-2.7496072425785205,-7.78054958907959,8.807445675442631,-8.247715767976313
-5.187971874654708,-5.094250643723872,-2.8274127384693166,-7.8630267467593535,10.215006255791598,-7.98701945709969
-5.238914381091947,-4.992100581165956,-2.90604300593691,-7.942896941330351,11.702164328869879,-7.661468136080076
-5.288835386903607,-4.875078937877257,-2.9854719753502135,-8.019511622691152,13.256134697700928,-7.280147113866019
-5.337586176282379,-4.742517590900247,-3.065667091577125,-8.092313093829812,14.861781563644827,-6.855813917262407
-5.385011352191381,-4.593899775263799,-3.146590222515423,-8.160871233002437,16.502031289241838,-6.404983756784042
