th1 (rad),w1 (rad/s),th2 (rad),w2 (rad/s)
4.054408915072759,2.2750169759064307,0.4263808337566948,-1.523959595803957
4.077159084831823,2.364238677331535,0.4111412377986552,-1.509813119405168
4.100801471605139,2.453029159158909,0.3960431066046035,-1.5001094004191966
4.125331763196728,2.541242719430127,0.38104201260041154,-1.495448836504341
4.15074419039103,2.628790525058586,0.3660875242353681,-1.496378871769009
4.177032095641615,2.715642194185749,0.351123735517678,-1.5033944014159026
4.204188517583472,2.8018263771962046,0.336089791503519,-1.5169405695340135
4.232206781355434,2.8874306605416655,0.32092038580817883,-1.5374177037967605
4.261081087960851,2.972601124701335,0.3055462087702112,-1.5651881346342529
4.290807099207864,3.057541881960445,0.28989432742386867,-1.6005846783635687
4.321382518027469,3.142514908629766,0.27388848064023297,-1.6439206172477283
4.352807667113766,3.227840476532843,0.2574492744677557,-1.695501079305842
4.385086071879095,3.313898485770986,0.24049426367469726,-1.7556358036521051
4.418225056736805,3.401131009787831,0.2229379056381762,-1.8246533721367166
4.452236366834684,3.490046388879759,0.20469137191680903,-1.902917096251315
4.487136830723482,3.581225253655439,0.18566220095429586,-1.990842872902967
4.522949083260036,3.675328929883839,0.1657537722252662,-2.0889194689130717
4.559702372558874,3.773110775507003,0.14486457753613546,-2.197731868665246
4.597433480313944,3.8754311345140398,0.12288725884948301,-2.3179885296986553
4.636187791659085,3.9832767655000496,0.09970737355249645,-2.450553643717629
4.676020559314085,4.097785816473243,0.07520183711532016,-2.59648579683442
4.716998417478818,4.220279663594834,0.04923697914697596,-2.7570847497519155
4.759201214114766,4.352303177664725,0.021666131649456803,-2.9339483676503164
4.8027242458914134,4.495675139821392,-0.007673352027046363,-3.1290418918003304
4.847680997289627,4.652550382813313,-0.03896377094504967,-3.3447814523434434
4.89420650111776,4.825494294549971,-0.07241158546848411,-3.5841322733903387
4.94246144406326,5.017567487140228,-0.1082529082023875,-3.8507178594921103
4.992637118934662,5.232411282997499,-0.14676008679730862,-4.148926153013211
5.0449612317646375,5.474307904345516,-0.18824934832744072,-4.483974754359267
5.099704310808093,5.7481514607570645,-0.2330890958710334,-4.8618437475535545
5.157185825415664,6.059183121236045,-0.28170753334656895,-5.288867903560483
5.217777656628025,6.412169612886524,-0.3345962123821738,-5.7705345925480085
5.28189935275689,6.809363165353182,-0.3923015583076539,-6.308554130226926
5.349992984410421,7.246023696701146,-0.4553870996099232,-6.894486737809878
5.422453221377433,7.701832452645323,-0.524331966988022,-7.497580181727939
5.499471545903886,8.128091360615155,-0.5993077688053013,-8.046688862880213
5.5807524595100375,8.43945245086234,-0.6797746574341035,-8.418632088064973
5.665146984018661,8.536634710711153,-0.7639609783147532,-8.470321629019846
5.750513331125773,8.377338052833283,-0.8486641946049517,-8.138959933886216
5.834286711654106,8.02760255238914,-0.9300537939438138,-7.5149108192532585
5.914562737177997,7.607299960937323,-1.0052029021363464,-6.765525396776689
5.99063573678737,7.204871842458904,-1.0728581561041133,-6.015167338072411
6.062684455211959,6.857864749402965,-1.1330098294848374,-5.317263374957711
6.131263102705988,6.573271146917717,-1.1861824632344145,-4.682372618894494
6.196995814175166,6.346069733810113,-1.2330061894233595,-4.1040303361958355
6.260456511513267,6.168169617269321,-1.274046492785318,-3.571313642613376
6.32213820768596,6.031680619070138,-1.3097596292114517,-3.0735182534611507
6.382455013876661,5.929810179089934,-1.3404948117460633,-2.6015232367553143
6.44175311566756,5.856918499635821,-1.3665100441136164,-2.1479746422062127
6.500322300663918,5.808324820420111,-1.3879897905356786,-1.7071150934268688
6.558405548868119,5.780073210602532,-1.4050609414699473,-1.2745501467184774
6.616206280974144,5.7687232380835916,-1.417806442937132,-0.8470410898577716
6.67389351335498,5.771180983337591,-1.4262768538357098,-0.4223423571414834
6.731605323188356,5.784570095755976,-1.4305002774071247,0.0009218832596245563
6.789451024145916,5.806138727251061,-1.4304910585745285,0.4233538150635759
6.8475124114184265,5.833198017559349,-1.4262575204238928,0.8448629203501175
6.9058443915940195,5.863088376252042,-1.4178088912203917,1.2647421741025524
6.9644752753565395,5.893170104951355,-1.4051614694793662,1.6817472330882368
7.023406976406053,5.920834702253568,-1.3883439971484839,2.0941833263262324
7.082615323428589,5.943532602934291,-1.3674021638852216,2.5000013719391303
7.142050649457932,5.95881238925962,-1.3424021501658303,2.8969018173868384
7.2016387733505285,5.964365994486967,-1.3134331319919619,3.2824421981443455
7.261282433295398,5.958074375605402,-1.2806087100105183,3.6541428038073547
7.320863177051452,5.938048721374,-1.2440672819724448,4.009584384285937
7.380243664265191,5.902663467991132,-1.2039714381295854,4.346492561421356
7.439270298945103,5.850579030726103,-1.1605065125153717,4.6628053208886335
7.497776089252364,5.780753918080622,-1.1138784593064854,4.956722226212411
7.55558362843317,5.6924474365072815,-1.0643112370443613,5.226736304241994
7.612508102798243,5.58521524032623,-1.0120438740019413,5.471651419341188
7.668360255201505,5.458900382269089,-0.9573273598085295,5.690589050097065
7.722949259024196,5.313622274589528,-0.9004214693075588,5.882988581733696
7.776085481770091,5.149765211324759,-0.8415915834902219,6.0486046067830594
7.827583133883338,4.967967049846547,-0.7811055374223913,6.187503517462486
7.877262804381804,4.769107559563016,-0.7192305022477664,6.300060191417178
7.924953879977434,4.55429505714697,-0.6562299003335946,6.386954147262019
7.970496830548904,4.324849445089648,-0.5923603588609745,6.449163461307748
8.013745324999801,4.08227975466975,-0.527868724247897,6.487954186926664
8.054568122546499,3.828254768928741,-0.46298918237863035,6.5048630835931975
8.092850670235787,3.5645661723751116,-0.39794055154269836,6.501672102041775
8.12849633195954,3.293084769362177,-0.3329238305222806,6.4803741342410595
8.161427179653161,3.015711415663184,-0.26812008917986996,6.443130795028005
8.191584293809793,2.734325202828766,-0.2036887812295899,6.392224202617492
8.218927545838081,2.450731956139852,-0.13976653920341497,6.33000564232525
8.24343486539948,2.1666161712699887,-0.07646648278016248,6.258844481011219
8.26510102711218,1.8834991350497627,-0.013878037970050286,6.18108069893089
8.283936018462677,1.6027052489533573,0.047932769019258616,6.098983970699043
8.299963070952211,1.3253376498388851,0.10892260872624905,6.014721482868341
8.3132164474506,1.0522632639682683,0.16906982355493247,5.930335783534381
8.323739080090283,0.7841065777135753,0.2283731813902763,5.8477330771356995
8.331580145867418,0.5212507562269888,0.28685051216163326,5.7686816287849085
8.336792653429688,0.26384433132395996,0.34453732844948237,5.694819400648377
8.339431096742928,0.011811506983632758,0.40148552245596614,5.627669730383894
8.339549211812765,-0.23513584117322325,0.4577622197598051,5.568663758088875
8.337197853401033,-0.47748621697868393,0.5134488573406938,5.5191683631214685
8.332422991231246,-0.7159180652784768,0.5686405409719084,5.480518515551039
8.32526381057846,-0.9512919397622235,0.6234457261274188,5.454053093466634
8.315750891180839,-1.184645921187057,0.6779862570620852,5.4411532596761205
8.303904431968968,-1.4171943296372462,0.7323977896588464,5.443282278759556
8.289732488672596,-1.6503288804860534,0.7868306124464419,5.462024949117148
8.273229199867735,-1.8856199636727597,0.8414508619376134,5.499123215350689
8.254373000231007,-2.1248131618131527,0.8964420940911203,5.556501290175361
8.233124868612876,-2.3698115438181775,0.9520071069928739,5.636267470322238
8.209426753174695,-2.622626090582956,1.0083697816960964,5.740668558350209
8.183200492268865,-2.8852622392500353,1.0657764672795984,5.871952757116632
8.154347869876364,-3.1594862183375465,1.1244959948507647,6.032062756335487
8.122753007692989,-3.446376693228213,1.1848166224141194,6.22202684900632
8.088289240760707,-3.7455166517812106,1.2470368909041827,6.440843895353377
8.050834074242895,-4.053642233754422,1.3114453298577164,6.6836018954398515
8.01029765190535,-4.362632920239863,1.378281348812115,6.938660115733487
7.966671322702952,-4.657135616401462,1.44766794996945,7.184289415851791
7.920099966538937,-4.913209230957462,1.5195108441279679,7.386691395621234
7.870967874229363,-5.10100033834254,1.5933777580841801,7.503594395306138
7.819957870845937,-5.1943895121981205,1.6684137020372416,7.497551219856088
7.768013975723956,-5.1848544800976475,1.7433892142358025,7.355148748791358
7.716165430922979,-5.088331617243285,1.816940701723716,7.096554201891876
7.665282114750546,-4.937006169966189,1.8879062437426348,6.764213833945868
7.615912053050884,-4.763749205491262,1.9555483820820936,6.4014418869799945
7.568274560995972,-4.592240604255291,2.0195628009518933,6.0389243916576145
7.52235215495342,-4.435746372315003,2.0799520448684694,5.693145037782576
7.477994691230269,-4.300051452668074,2.136883495246295,5.370465861413821
7.434994176703588,-4.186666120027545,2.1905881538604333,5.071523085006008
7.393127515503313,-4.095025186053133,2.2413033847104935,4.794208928188906
7.352177263642782,-4.0237312136613745,2.2892454739923824,4.535334575662229
7.311939951506168,-3.9711822426933576,2.334598819749005,4.291453604827609
7.2722281290792345,-3.9358592543680753,2.377513355797281,4.059227277577771
7.232869536535554,-3.916439923601411,2.4181056285730587,3.8355605145868568
7.193705137299539,-3.911828365141768,2.4564612337189273,3.617631079942347
7.154586853648121,-3.921146314575744,2.4926375445183506,3.402873977156529
7.115375390502364,-3.943707727697511,2.526666284289916,3.1889514140121866
7.075938313225389,-3.9789868331828013,2.5585557984300378,2.973722886717488
7.036148444893561,-4.026583724119286,2.5882930272972127,2.7552222940916153
6.995882607652368,-4.086188679860813,2.6158452502381286,2.5316454220861475
6.95502072085376,-4.157545075346825,2.64116170445899,2.301349521739478
6.913445270100292,-4.240410229571273,2.664175199676385,2.062865944080949
6.871041167804579,-4.334513531094239,2.6848038591171943,1.8149263032606118
6.827696032493637,-4.439511518174417,2.7029531221498004,1.5565020700990124
6.783300917311893,-4.554940239150275,2.7185181428507907,1.2868566349873278
6.73775151492039,-4.680166157124294,2.731386709200664,1.0056075910991324
6.690949853349148,-4.81433805024639,2.7414427851116554,0.7127952410966044
6.642806472846684,-4.956343685364658,2.7485707375226216,0.4089512211290291
6.593243035993037,-5.104776296299046,2.752660249733912,0.09515894266095892
6.542195273030047,-5.2579167535321565,2.7536118391605213,-0.2269042428879839
6.489616105494726,-5.413737367672912,2.7513427967316413,-0.5549540008008872
6.435478731817996,-5.5699321439995,2.7457932567236325,-0.8861249546442245
6.379779410378001,-5.723975796515822,2.7369320071771903,-1.217042283167162
6.322539652412843,-5.873210080824349,2.7247615843455186,-1.543940236037992
6.263807551604599,-6.014951605479206,2.7093221819851387,-1.8628219029064743
6.203658035549807,-6.146611206451937,2.690693962956074,-2.169647492783123
6.142191923485288,-6.265812320922631,2.6689974880282428,-2.460532891517617
6.079533800276061,-6.370495415530545,2.6443921591130666,-2.7319378973809485
6.015828846120756,-6.458997639956573,2.617072780139257,-2.980825030821719
5.95123886972119,-6.530100979438369,2.5872645298310397,-3.204774807615035
5.885937859926806,-6.5830471966915445,2.5552167817548894,-3.402050505195081
5.820107387959891,-6.617522548222683,2.5211962767029386,-3.571612920928487
5.753932162477664,-6.63361865706897,2.4854801474936536,-3.713091772696937
5.687595975906975,-6.631777570513896,2.4483492297666842,-3.8267242304483475
5.621278200201836,-6.612729014868947,2.410081987462201,-3.913272392272296
5.555150910053146,-6.577426637483782,2.3709492635394778,-3.9739307669237443
5.489376643678308,-6.526988187540628,2.33120995587024,-4.010232757138364
5.424106761802902,-6.46264265474429,2.2911076282988567,-4.023962535376684
5.3594803352554585,-6.385685711797967,2.25086800294509,-4.0170761717237635
5.295623478137479,-6.297443560864824,2.2106972412278525,-3.9916337746024664
5.232649042528831,-6.199244489317334,2.1707809034818277,-3.949742879833514
5.1706565976356575,-6.092397031926807,2.1312834746834928,-3.8935123586687332
5.109732627316389,-5.978173515199307,2.0923483510968053,-3.8250156130748767
5.0499508921643965,-5.857797823516189,2.0540981949660564,-3.7462616604789374
4.991372913929235,-5.732436391585214,2.016635578361267,-3.659172759895157
4.934048550013382,-5.603191631592026,1.9800438507623153,-3.5655673985870937
4.878016633697462,-5.471097205928761,1.9443881767764444,-3.4671476716389313
4.823305661638175,-5.337114734220283,1.909716700060055,-3.365490299107488
4.769934514295972,-5.2021316657167,1.8760617970689801,-3.262040709748247
4.717913197638805,-5.0669601523580905,1.8434413899714976,-3.158109764260166
4.667243596115224,-4.9323368264018415,1.811860292328896,-3.054872792231053
4.617920227851205,-4.798923424732913,1.7813115644065856,-2.953370679498432
4.569930993603876,-4.667308216472956,1.7517778576116012,-2.8545127740171634
4.5232579114391465,-4.538008188183427,1.7232327298714296,-2.759081387544332
4.477877829557312,-4.411471928343572,1.6956419159959863,-2.6677376664712824
4.433763110273876,-4.288083135542492,1.6689645393312735,-2.5810285958522052
4.390882278918451,-4.168164657483,1.6431542533727514,-2.4993948923303795
4.349200632343622,-4.051982953716282,1.6181603044494477,-2.4231795385436334
4.3086808028064585,-3.9397528660168804,1.5939285090640114,-2.3526367160748856
4.269283274146289,-3.8316425773398244,1.5704021419032625,-2.287940906782204
4.2309668483728915,-3.7277786433178437,1.5475227328354406,-2.229195952744292
4.193689061939713,-3.6282509885165677,1.5252307733079977,-2.1764438915327333
4.157406552054547,-3.5331177720053444,1.5034663343926704,-2.1296734140240754
4.122075374334494,-3.4424100418682757,1.4821696002524296,-2.088827824320974
4.087651273915811,-3.3561361147263065,1.4612813220092198,-2.0538124135452054
4.054089912768548,-3.2742856329624095,1.4407431978737677,-2.0245011896190017
4.021347056438924,-3.1968332681618055,1.4204981859775776,-2.0007429324205863
3.989378723757306,-3.123742053585294,1.4004907566533717,-1.9823665670931507
3.958141303221453,-3.054966340835195,1.3806670909824403,-1.9691858674287572
3.927591639813101,-2.9904543860322907,1.3609752323081528,-1.9610035161127928
3.8976870959527785,-2.9301505787707995,1.3413651971470248,-1.957614559437544
3.8683855901650706,-2.8739973329707404,1.3217890515526494,-1.958809301291142
3.839645616835363,-2.821936662711967,1.302200958539738,-1.9643756853188694
3.8114262502082434,-2.773911468474433,1.2825572016865494,-1.9741012156955078
3.783687135523499,-2.7298665602087473,1.2628161895295944,-1.987774466490039
3.756388469921412,-2.689749443600163,1.242938444864694,-2.005186227657286
3.7294909754854104,-2.6535108950282917,1.2228865825881212,-2.0261303327048275
3.7029558665351274,-2.6211053492947474,1.202625279261073,-2.0504042094386823
3.67674481304218,-2.592491122388067,1.1821212371666863,-2.077809191198334
3.6508199018182994,-2.5676304895410755,1.161343145254703,-2.108150621894551
3.6251435969228885,-2.546489636738781,1.1402616390357574,-2.1412377841461447
3.5996787005555007,-2.5290385017535795,1.118849261194296,-2.176883676006902
3.574388315537965,-2.515250518792063,1.097080424434227,-2.2149046582712315
3.5492358103500443,-2.5051022789858477,1.0749313778515146,-2.255119991201907
3.524184787560186,-2.498573117281941,1.0523801779394955,-2.297351276764081
3.4991990563873667,-2.4956446348068866,1.0294066651718548,-2.341421820084103
3.474242610039298,-2.4963001645031246,1.0059924469710138,-2.3871559218718534
3.4492796083942667,-2.5005241867670875,0.9821208877522952,-2.434378111932113
3.424274366526596,-2.508301700951398,0.9577771066329741,-2.482912332616438
3.399191349517082,-2.5196175579176496,0.9329479833068097,-2.5325810800986686
3.3739951739379057,-2.534455758326781,0.907622172505823,-2.583204510656627
3.348650616354638,-2.5527987210122824,0.8817901273992568,-2.6345995186687143
3.3231226291445153,-2.5746265255752103,0.8554441322125697,-2.686578792743476
3.297376363888763,-2.5999161332439247,0.8285783442851349,-2.738949856247868
3.271377202556324,-2.6286405900275924,0.8011888457226563,-2.791514098440305
3.245090796656048,-2.6607682162306427,0.7732737047382532,-2.8440658024027736
3.2184831144937416,-2.6962617864543783,0.7448330467142255,-2.8963911759598613
3.191520496629198,-2.7350777042611183,0.7158691349546269,-2.948267391733874
3.1641697195865865,-2.7771651756875886,0.6863864610372882,-2.99946164238467
3.1363980678297105,-2.8224653857455477,0.6563918446134415,-3.0497302169029368
3.108173413972255,-2.8709106819261523,0.6258945424444121,-3.098817603565989
3.0794643071529935,-2.922423768531995,0.5949063664087523,-3.1464556248481466
3.0502400694676735,-2.976916915418478,0.5634418101602708,-3.192362609255036
3.0204709003134886,-3.03429118448143,0.5315181840677204,-3.2362426048100184
2.9901279884686742,-3.094435677059842,0.49915575801962025,-3.2777846388904055
2.959183631698076,-3.1572268054481856,0.4663779116307162,-3.3166620294667464
2.927611363643594,-3.222527592091478,0.43321129133604874,-3.3525317537645183
2.895386087722679,-3.2901870009723364,0.39968597379840354,-3.385033882215604
2.862484217712956,-3.360039307441418,0.3658356349762475,-3.413791088608639
2.8288838246385417,-3.431903515577947,0.3316977240901611,-3.438408251919762
2.794564789482762,-3.505582836409391,0.29731364157096346,-3.4584721717466285
2.759508961118668,-3.5808642462890052,0.26272891985349717,-3.4735514278813047
2.723700318655778,-3.657518152723346,0.22799340557468412,-3.4831964255580856
2.687125137128545,-3.7352982051894372,0.19316144131910326,-3.4869396813630305
2.6497721550766506,-3.813941301092114,0.15829204450547296,-3.484296420517788
2.6116327420657295,-3.893167851904593,0.12344908030029508,-3.4747655737367693
2.5727010635466834,-3.9726823913549785,0.08870142456292739,-3.4578312801358857
2.5329742396331336,-4.05217462554876,0.054123111761568525,-3.4329650202011277
2.492452493377646,-4.131321042973679,0.019793461559557246,-3.3996285173784018
2.451139282947909,-4.209787218696534,-0.01420282361422677,-3.357277555427034
2.4090414107609437,-4.287230959412375,-0.047775599168497114,-3.305366857507028
2.36616910116682,-4.363306441433558,-0.08082926774356738,-3.2433561575663
2.3225360367524845,-4.437669488806763,-0.11326282931923039,-3.170717560032219
2.278159341864417,-4.5099841198661785,-0.1449700049195526,-3.086944225182327
2.233059500665755,-4.579930454185929,-0.17583944717137587,-2.9915603307066436
2.1872601961238956,-4.647214015399144,-0.2057550504784423,-2.8841321424604147
2.140788055969904,-4.711576387653266,-0.23459637190304644,-2.7642798798039583
2.0936722920933715,-4.772807086132701,-0.26223917070108604,-2.6316898881011244
2.0459442212320447,-4.8307563902591575,-0.2885560695820973,-2.4861264432218064
1.997636657329453,-4.885348771393539,-0.3134173340143154,-2.32744232664677
1.9487831696155176,-4.9365964392199375,-0.3366917572807831,-2.15558714702849
1.8994172052233183,-4.984612450575922,-0.35824762875106797,-1.9706122706147375
1.849571080717559,-5.029622791647577,-0.3779537514572153,-1.77267118476826
1.7992748528010831,-5.071976878928624,-0.3956804633048979,-1.5620141768883218
1.748555084011797,-5.112156041646146,-0.41130060507378113,-1.3389763752181456
1.6974335235953355,-5.150779755927182,-0.4246903688259626,-1.1039584612697584
1.6459257260360636,-5.188609695353081,-0.4357299534386602,-0.8573996981587988
1.5940396290825327,-5.2265520285273235,-0.44430395042024823,-0.5997432762678201
1.5417741087972594,-5.265658807018857,-0.45030138318292645,-0.3313942918216995
1.4891175207270708,-5.307129717123,-0.45361532610114347,-0.05267087133472592
1.4360462235558409,-5.352315889597361,-0.4541420348144907,0.2362510354851805
1.3825230646598672,-5.402727856518609,-0.4517795244596389,0.5353989065958926
