th1 (rad),w1 (rad/s),th2 (rad),w2 (rad/s),a1 (rad/s^2),a2 (rad/s^2)
3.293191284058819,-2.653153923577226,5.264795624263008,-2.000385603850878,3.988844894306588,3.417346759328607
3.2666597448230466,-2.61326547463416,5.244791768224499,-1.9662121362575917,3.7196652003912516,3.646787963911097
3.240527090076705,-2.5760688226302477,5.225129646861923,-1.9297442566184808,3.4467467318802867,3.8496584270057967
3.2147664018504023,-2.5416013553114447,5.205832204295739,-1.8912476723484228,3.1707677511964216,4.0270192084744485
3.189350388297288,-2.5098936777994805,5.1869197275722545,-1.8509774802636783,2.8923573695561644,4.179885454197805
3.1642514515192928,-2.480970104103919,5.1684099527696175,-1.8091786257217002,2.61208846007241,4.309217703818357
3.1394417504782535,-2.454849219503195,5.150318166512401,-1.7660864486835166,2.330472086488195,4.415914682638994
3.1148932582832214,-2.431544498638313,5.1326573020255655,-1.7219273018571266,2.0479532325019183,4.5008074450974025
3.0905778132968384,-2.411064966313294,5.115438029006994,-1.6769192274061526,1.7649076323080632,4.564654722206877
3.0664671636337055,-2.393415889990213,5.098668836732933,-1.6312726801840838,1.481639520754239,4.608139318507405
3.0425330047338033,-2.3785994947826707,5.082356109931092,-1.5851912869990097,1.1983801406683172,4.631865403947769
3.0187470097859768,-2.3666156933759877,5.066504197061102,-1.538872632959532,0.9152868648533935,4.636356551506282
2.995080852852217,-2.357462824727454,5.0511154707315065,-1.4925090674444692,0.6324428105504774,4.622054381279067
2.9715062246049424,-2.3511383966219492,5.036190380057062,-1.4462885236316785,0.34985684454467897,4.589317685480516
2.947994840638723,-2.3476398281765025,5.021727494820745,-1.4003953467768733,0.06746389739667764,4.5384219257918925
2.924518442356958,-2.346965189202536,5.007723541352976,-1.3550111275189543,-0.21487447449240057,4.469559014456098
2.901048790464933,-2.34911393394746,4.994173430077787,-1.3103155373743933,-0.4973693200123135,4.382837313346696
2.8775576511254584,-2.354087627147583,4.9810702747040425,-1.2664871642409263,-0.7803033381700831,4.278281811029375
2.8540167748539824,-2.361890660529284,4.968405403061634,-1.2237043461306325,-1.0640297359677706,4.155834466863272
2.8303978682486894,-2.3725309578889617,4.956168359600327,-1.1821460014619998,-1.3489708764886297,4.015354743918643
2.8066725586698,-2.386020666653848,4.944346899585708,-1.1419924540228132,-1.635616670552767,3.8566203895521136
2.7828123520032615,-2.4023768333593756,4.932926975045479,-1.103426250127292,-1.9245226392878896,3.6793285646844596
2.7587885836696677,-2.4216220597522544,4.9218927125442065,-1.0666329644804473,-2.2163075460327204,3.483097471125608
2.7345723630721452,-2.4437851352125817,4.911226382899402,-1.0318019897691912,-2.5116504634095373,3.2674686817762324
2.7101345117200193,-2.468901639846677,4.90090836300171,-0.9991273029514289,-2.811287104410215,3.0319104423869843
2.6854454953215523,-2.4970145108907795,4.890917089972196,-0.9688081985275591,-3.116005204210284,2.775822286989662
2.6604753502126446,-2.5281745629328825,4.881229007986921,-0.9410499756576625,-3.4266386915294147,2.4985413932797886
2.635193604583316,-2.5624409498481766,4.871818508230344,-0.9160645617248646,-3.744060334262273,2.199351200072327
2.609569195084834,-2.5998815531907993,4.862657862613095,-0.8940710497241413,-4.069172483711685,1.8774929170021057
2.583570379552926,-2.640573278027916,4.853717152115854,-0.8752961205541202,-4.402895475483785,1.532180676726929
2.5571646467726468,-2.684602232782754,4.8449641909103125,-0.859974313786851,-4.746153174129742,1.1626212107458096
2.5303186244448193,-2.7320637645240513,4.836364447772444,-0.8483481016793929,-5.099855075189752,0.7680390686842535
2.5029979867995786,-2.7830623152759486,4.82788096675565,-0.8406677109925503,-5.464874306116138,0.3477085423652969
2.475167363646819,-2.83771105833711,4.819474289645725,-0.8371906255688973,-5.842020802234842,-0.09900640805911655
2.446790253063448,-2.8961312663594585,4.811102383390036,-0.8381806896494886,-6.232008883468975,-0.5726028104541736
2.417828940399853,-2.958451355194148,4.802720576493542,-0.8439067177540303,-6.635418432932429,-1.0733784209392505
2.3882444268479115,-3.0248055395234723,4.794281509316002,-0.8546405019634228,-7.0526488939964525,-1.6013590246972167
2.3579963714526766,-3.095332028463437,4.785735104296367,-0.8706540922103949,-7.4838653759174285,-2.156211837848536
2.3270430511680424,-3.170170682222611,4.777028563374263,-0.8922162105888802,-7.928936310908322,-2.737143740513379
2.2953413443458164,-3.2494600453316944,4.7681064012683745,-0.919587647994014,-8.387362361608156,-3.342783430440359
2.2628467438924993,-3.333333668947776,4.758910524788434,-0.9530154822984176,-8.858196662135352,-3.9710471637890157
2.2295134072030214,-3.4219156355691296,4.74938036996545,-0.9927259539363078,-9.339957011073935,-4.61898859362331
2.19529425084733,-3.515315205679869,4.739453110426087,-1.0389158398725409,-9.830531336902935,-5.282634370016099
2.1601410987905316,-3.613620519048898,4.729063952027362,-1.091742183572702,-10.327078628615128,-5.956808655051566
2.1240048936000426,-3.7168913053350496,4.7181465301916345,-1.1513102701232176,-10.825928548937801,-6.634951529402862
2.086835980546692,-3.8251505908244274,4.706633427490402,-1.2176597854172462,-11.322484077977315,-7.3089383789018525
2.0485844746384476,-3.9383754316042006,4.69445682963623,-1.2907491692062647,-11.811132688294402,-7.968909645472914
2.0092007203224056,-4.056486758487145,4.681549337944167,-1.370438265660994,-12.285172605689247,-8.603122633366523
1.968635852737534,-4.179338484544037,4.667844955287557,-1.456469491994659,-12.736761504864138,-9.197839134096307
1.9268424678920937,-4.306706099592679,4.653280260367611,-1.548447883335622,-13.1568953467098,-9.737264170433921
1.883775406896167,-4.438275053059777,4.637795781534255,-1.6458205250399613,-13.53542481478976,-10.203551839704899
1.8393926563655691,-4.573629301207674,4.621337576283855,-1.7478560434370103,-13.86111583800708,-10.576893779788161
1.7936563633534923,-4.712240459587745,4.603859015849485,-1.853624981234892,-14.1217589911923,-10.8357040339443
1.746533958757615,-4.853458049499668,4.5853227660371365,-1.9619820215743349,-14.304330311164213,-10.956911118050638
1.6979993782626184,-4.99650135261131,4.565702945821394,-2.0715511327548413,-14.395203628153643,-10.916364256745567
1.6480343647365052,-5.140453388892847,4.544987434493845,-2.180714775322297,-14.38041247796305,-10.689356735111662
1.5966298308475768,-5.284257513672477,4.523180286740622,-2.2876083426734137,-14.245958765885375,-10.251266048254111
1.543787255710852,-5.426717101331331,4.500304203313888,-2.3901210031559548,-13.978166348472628,-9.578309033202787
1.4895200846975387,-5.566498764816057,4.476402993282329,-2.485904093487983,-13.564081129449773,-8.648411206382475
1.4338550970493782,-5.702139576110555,4.451543952347449,-2.5723882055518077,-12.99192520005746,-7.442193219400804
1.3768337012882725,-5.832058828111129,4.425820070291931,-2.6468101377458155,-12.251620291222215,-5.944082687164781
1.3185131130071612,-5.954575031023351,4.399351968914473,-2.7062509646174635,-11.335403617964397,-4.143564125654238
1.2589673626969278,-6.0679290672029955,4.372289459268298,-2.747686605874006,-10.238564173848056,-2.0365791324185456
1.1982880720248978,-6.1703147089414765,4.344812593209558,-2.768052397198191,-8.960325603089327,0.3729225546625671
1.1365849249354831,-6.25991796497237,4.3171320692375765,-2.7643231716515655,-7.504888033311988,3.0713095481532076
1.0739857452857595,-6.33496684530549,4.289488837521061,-2.7336100761700335,-5.882610762406014,6.033553903981234
1.0106360768327045,-6.39379295292955,4.262152736759361,-2.6732745371302213,-4.111267043856138,9.221634716510364
0.9466981473034091,-6.4349056233681114,4.235419991388058,-2.5810581899651175,-2.217231975322398,12.583320639041474
0.8823490910697279,-6.457077943121336,4.209609409488407,-2.455224983574703,-0.23638250584701714,16.051697593358366
0.8177783116385146,-6.459441768179806,4.1850571596526605,-2.2947080076411193,1.7855868002865383,19.545887246614697
0.7531838939567165,-6.441585900176941,4.162110079576249,-2.0992491351749725,3.7937673174542876,22.973407843585754
0.6887680349549471,-6.403648227002398,4.141117588224499,-1.869515056739115,5.72585866786709,26.23450917373911
0.6247315526849231,-6.346389640323727,4.122422437657107,-1.607169965001724,7.515366140516439,29.228530643815766
0.5612676562816858,-6.271235978918562,4.10635073800709,-1.3148846585635663,9.096070656006486,31.86189416689646
0.4985552964925002,-6.1802752723584975,4.0932018914214545,-0.9962657168946016,10.407331354069358,34.05683317084268
0.4367525437689152,-6.076201958817804,4.083239234252509,-0.6556973851861748,11.399456073218428,35.759531231606935
0.37599052418073714,-5.96220739808562,4.076682260400647,-0.2981020728701055,12.038186864711168,36.94618581313972
0.3163684501998809,-5.841825529438508,4.073701239671946,0.07135978526129172,12.30740227844534,37.62575834537917
0.2579501949054958,-5.718751506654055,4.074414837524559,0.4476173687150834,12.209462420551564,37.83881492704492
0.20076267983895527,-5.596656882448539,4.07889101121171,0.8260055179855326,11.763132298734854,37.65272475828715
0.14479611101446987,-5.479025559461191,4.087151066391566,1.202532765568404,10.999544153155362,37.154280136043596
0.09000585541985796,-5.369030117929637,4.09917639404725,1.57407556692884,9.957022800534864,36.44126964157958
0.03631555424056159,-5.269459889924288,4.114917149716538,1.9384882633446359,8.675696919471756,35.61455702480733
-0.016379044658681292,-5.182702920729571,4.134302032349984,2.2946338335927092,7.192663980747248,34.7718574705389
-0.06820607386597699,-5.1107762809220985,4.157248370685911,2.6423524082980983,5.538166252918105,34.003850018648954
-0.11931383667519797,-5.055394618392917,4.183671894768892,2.9823909084845877,3.732896668768914,33.39272784112324
-0.16986778285912715,-5.018065651705228,4.213495803853738,3.31631818689582,1.7862842461734472,33.0129070605364
-0.22004843937617943,-5.000202809243493,4.246658985722696,3.646447257501184,-0.30454597262639577,32.93343195016002
-0.2700504674686144,-5.003248268969758,4.283123458297708,3.9757815770027842,-2.555483350886739,33.221591076473615
-0.32008295015831195,-5.0288031024786255,4.322881274067736,4.30799748776752,-4.996098313483816,33.94730908445395
-0.3703709811830982,-5.0787640856134635,4.365961248945411,4.64747057861206,-7.670391325968161,35.18788606922891
-0.4211586220392328,-5.155467998873145,4.412435954731532,4.999349439304349,-10.637427942974567,37.03245183375503
-0.47271330202796424,-5.261842278302891,4.462429449124576,5.369673957641899,-13.970985118195218,39.58477283017321
-0.5253317248109931,-5.401552129484843,4.516126188700995,5.7655216859436305,-17.755819099533337,42.961114987096394
-0.5793472461058415,-5.579110320480177,4.573781405560432,6.1951328358145945,-22.07470095722256,47.27518110060352
-0.6351383493106433,-5.799857330052403,4.635732733918577,6.66788464682063,-26.97249035161744,52.59128010713063
-0.6931369226111673,-6.0695822335685765,4.702411580386784,7.193797447891936,-32.366306682848865,58.802948137262824
-0.7538327449468532,-6.393245300397065,4.774349554865703,7.7818269292645645,-37.83720168680646,65.34716813878562
-0.8177651979508238,-6.77161731726513,4.852167824158348,8.43529861065242,-42.193054600451966,70.59989946223445
-0.8854813711234751,-7.193547863269649,4.936520810264873,9.141297605274765,-42.72870984393689,70.84745817391855
-0.9574168497561716,-7.6208349617090185,5.027933786317621,9.84977218701395,-34.656985908614345,59.49011616964392
-1.0336251993732617,-7.967404820795162,5.1264315081877605,10.44467334871039,-13.00402971497269,29.673910588892962
-1.1132992475812133,-8.097445117944888,5.230878241674865,10.74141245459932,20.035816379847308,-15.483280163396643
-1.1942736987606621,-7.897086954146415,5.338292366220858,10.586579652965353,50.05757169416395,-55.95848266603905
-1.2732445683021263,-7.396511237204775,5.444158162750512,10.026994826304962,63.97822837615194,-73.76573089253121
-1.347209680674174,-6.756728953443256,5.544428111013561,9.28933751737965,63.64078835479339,-71.71578068613785
-1.4147769702086066,-6.120321069895322,5.637321486187357,8.572179710518272,57.25450343698009,-61.295226653563915
-1.47598018090756,-5.547776035525521,5.72304328329254,7.959227443982633,50.00057620456811,-49.65892030534079
-1.531457941262815,-5.0477702734798395,5.8026355577323665,7.462638240929225,43.72141299967637,-39.30327878561359
-1.5819356439976135,-4.610556143483076,5.877261940141659,7.069605453073089,38.76309363456937,-30.66104441154459
-1.6280412054324442,-4.222925207137382,5.9479579946723895,6.762995008957644,35.003585641263804,-23.530009040082444
-1.670270457503818,-3.8728893507247437,6.015587944761966,6.527694918556819,32.22819276504504,-17.58934148457516
-1.7089993510110655,-3.5506074230742932,6.080864893947534,6.3518015037110676,30.23983511444571,-12.549238515468204
-1.7445054252418084,-3.248209071929836,6.144382908984644,6.226309118556386,28.881419699602176,-8.18058461749498
-1.7769875159611068,-2.9593948749338144,6.206646000170208,6.144503272381436,28.03276398167054,-4.310831843622994
-1.806581464710445,-2.6790672351171088,6.268091032894023,6.101394953945206,27.601901322850978,-0.8132448982863084
-1.833372137061616,-2.403048221888599,6.329104982433475,6.093262504962343,27.51642553250025,2.402805178817488
-1.857402619280502,-2.1278839665635965,6.390037607483099,6.117290556750518,27.71608508480321,5.398862936473269
-1.878681458946138,-1.8507231157155644,6.451210513050604,6.1712791861152505,28.14656713779623,8.211821567272343
-1.8971886901032937,-1.5692574443376022,6.512923304911757,6.253397401787974,28.75415740033716,10.856274936285272
-1.9128812645466697,-1.2817158703342306,6.575457278929637,6.361960151150827,29.481033159787387,13.32536424190357
-1.925698423250012,-0.9869055387363568,6.639076880441145,6.495213793569863,30.261135399075645,15.590733679991557
-1.9355674786373755,-0.6842941847456003,6.704029018376843,6.651121130369779,31.016817817604984,17.602316597398744
-1.9424104204848316,-0.3741260065695505,6.770540229680541,6.827144296343766,31.656768205268847,19.28886246232502
-1.946151680550527,-0.05755832451686199,6.8388116726439785,7.020032920967016,32.07600674088258,20.560341471870416
-1.9467272637956956,0.26320174289196385,6.9090120018536485,7.22563633568572,32.15900021151394,21.31351520508028
-1.944095246366776,0.5847917450071033,6.981268365210505,7.438771487736522,31.78693136549591,21.441844671246905
-1.938247328916705,0.9026610586620625,7.0556560800878705,7.653189934448991,30.84970990616164,20.85027159673911
-1.9292207183300845,1.2111581577236787,7.13218797943236,7.861692650416383,29.262215159991108,19.474058496369533
-1.9171091367528477,1.5037803093235897,7.210804905936524,8.056433235380078,26.98253864843989,17.29887891451305
-1.9020713336596118,1.7736056958079887,7.291369238290324,8.229422024525208,24.028093510619307,14.37728835678361
-1.884335276701532,2.0138866309141816,7.373663458535576,8.373194908093044,20.484315646813332,10.83569501955042
-1.8641964103923903,2.218729787382315,7.457395407616507,8.48155185828855,16.501392892386637,6.867189526605762
-1.8420091125185671,2.3837437163061814,7.542210926199393,8.550223753554606,12.277501382986866,2.709447735307236
-1.8181716753555053,2.50651873013605,7.6277131637349385,8.577318230907679,8.03153538865774,-1.3878577074116156
-1.7931064880541447,2.5868340840226276,7.713486346044015,8.563439653833562,3.9721915057240835,-5.197662731376356
-1.7672381472139185,2.6265559990798684,7.7991207425823506,8.511463026519799,0.2714268853551793,-8.54306692434702
-1.7409725872231199,2.6292702679334203,7.884235372847549,8.426032357276329,-2.951816000814725,-11.31191253951461
-1.7146798845437856,2.5997521079252732,7.968495696420312,8.312913231881183,-5.635798151690219,-13.45744274733786
-1.688682363464533,2.543394126408371,8.051624828739124,8.178338804407804,-7.770102942251626,-14.988312861939805
-1.6632484222004493,2.465693096985855,8.133408216783202,8.028455675788406,-9.383770511068503,-15.953112792273908
-1.6385914912305908,2.3718553918751697,8.213692773541087,7.868924547865666,-10.531623003489326,-16.4241584002634
-1.6148729373118391,2.2665391618402766,8.292382019019744,7.704682963863032,-11.281802296202333,-16.48366690239098
-1.5922075456934364,2.1537211388782533,8.369428848658375,7.539846294839123,-11.70606499092556,-16.2136438022808
-1.5706703343046537,2.0366604889689977,8.444827311606765,7.377709856816315,-11.873184364552037,-15.689502400959483
-1.5503037294149637,1.9179286453234772,8.518604410174929,7.22081483280672,-11.845096343288636,-14.976748509879085
-1.531124442961729,1.7994776818905909,8.590812558502996,7.071047347707929,-11.675136371558924,-14.129855726182901
-1.513129666142823,1.6827263181750016,8.661523031980076,6.929748790446101,-11.407694661639812,-13.192525697601107
-1.496302402961073,1.5686493715586034,8.730820519884537,6.79782353347009,-11.07872854128757,-12.198708298706489
-1.480615909245487,1.4578620861457277,8.798798755219238,6.6758364504830245,-10.716719201328903,-11.173950092830843
-1.4660372883840296,1.3506948941324386,8.865557119724068,6.564096949554716,-10.343797555084171,-10.136801373827346
-1.4525303394427052,1.247256918581597,8.931198089219615,6.462728935816442,-9.976871865639215,-9.100130667881597
-1.440057770256889,1.147488199925205,8.995825378577779,6.371727629137626,-9.628666329170423,-8.07227462125284
-1.428582888257637,1.0512015366335006,9.059542654869155,6.2910048829250975,-9.308629914111611,-7.057999749925789
-1.418070872891302,0.9581152374923845,9.122452703698405,6.22042488542584,-9.023705194046943,-6.059279809723972
-1.4084897205163782,0.8678781855519151,9.184656952552663,6.1598320873286,-8.77896383531133,-5.075906063598062
-1.399810938660859,0.7800885471988018,9.246255273425948,6.109073026692619,-8.578123608006033,-4.105952914543128
-1.392010053188871,0.6943073111187414,9.307346003692874,6.068013497547188,-8.423964689931847,-3.146121900865013
-1.3850669800776836,0.6100676642194229,9.368026138668347,6.0365522785385375,-8.318662884668571,-2.1919852574407983
-1.3789663034354893,0.5268810353727372,9.428391661453732,6.0146324259641295,-8.264055574325782,-1.2381475788323344
-1.373697493081762,0.44424047962947943,9.488537985713373,6.002250950175807,-8.261853556408887,-0.27834146879871946
-1.3692550882854673,0.36162194406539055,9.548560495215131,5.9994675354878195,-8.313808716366303,0.694528979999792
-1.3656388688448133,0.2784838569017275,9.608555170570009,6.006412825287818,-8.42184377062165,1.6883839625908044
-1.362854030275796,0.194265419195511,9.668619298822886,6.023296664913726,-8.588145783136383,2.7119893130869728
-1.360911376083841,0.10838396136414716,9.728852265472023,6.050416558044596,-8.815219168830978,3.774986406245923
-1.3598275364701995,0.02023176967583737,9.789356431052468,6.088166422107055,-9.105885327201038,4.887906229538847
-1.3596252187734412,-0.07082708359617301,9.85023809527354,6.137045484402444,-9.463203043108908,6.062129475838781
-1.360333489609403,-0.1654591140272621,9.911608550117563,6.197666779160832,-9.890263329700751,7.309730314909788
-1.3619880807496756,-0.26436174732426965,9.973585217909172,6.270764082309929,-10.389779613204,8.643100294429434
-1.3646316982229183,-0.3682595434563096,10.03629285873227,6.357195085254224,-10.96334139835665,10.074179976598641
-1.3683142936574815,-0.47789295743987614,10.099864809584814,6.45793688502021,-11.610115116357184,11.613012942829432
-1.3730932232318802,-0.5939941086034479,10.164444178435016,6.574067014448504,-12.324643187683241,13.265155798816863
-1.3790331643179148,-0.7172405404802803,10.230184848579501,6.706718572436673,-13.093191607955731,15.027198994017109
-1.3862055697227176,-0.8481724565598376,10.297252034303868,6.8569905623768435,-13.887814751867138,16.87925383658762
-1.394687294288316,-0.987050604078509,10.365821939927637,7.02578310074272,-14.656972825877213,18.77277159230953
