th1 (rad),w1 (rad/s),th2 (rad),w2 (rad/s)
0.20770983011183555,1.0613373889686744,4.66313927198061,-2.797616785334561
0.2183232040015223,1.0156254097044268,4.6351631041272645,-2.7004583758233034
0.22847945809856657,0.9733929618693067,4.608158520369032,-2.6051835817342717
0.23821338771725964,0.934423106717553,4.58210668455169,-2.5114878657510813
0.24755761878443516,0.898515949711695,4.556991805894179,-2.419107272898655
0.2565427782815521,0.8654852983255311,4.5328007331651925,-2.327814050981053
0.2651976312648074,0.835155876103033,4.509522592655382,-2.2374129178893196
0.2735491900258377,0.8073610198613536,4.487148463476489,-2.147737843392945
0.28162280022445124,0.7819407992588302,4.465671085042559,-2.058649236442153
0.28944220821703953,0.7587405076616264,4.445084592678137,-1.9700314489104302
0.2970296132936558,0.7376094806865168,4.425384278189033,-1.8817905236819394
0.304405708100521,0.7184002043438543,4.406566372952214,-1.7938521295487908
0.31158971014395953,0.7009676787151395,4.388627851656726,-1.7061596379445048
0.31859938693111095,0.6851690059110541,4.371566255277281,-1.618672307420858
0.32545107699022147,0.6708631729759555,4.355379532203072,-1.5313635512066677
0.332159708719981,0.6579110017093295,4.340065896691005,-1.4442192713275106
0.3387388187370743,0.6461752383057611,4.32562370397773,-1.3572362497179598
0.3452005711201319,0.6355207564799557,4.31205134148055,-1.2704205925871663
0.3515557786849315,0.625814848513254,4.299347135554679,-1.183786229046317
0.35781392717006405,0.6169275795665204,4.287509273264216,-1.0973534687057058
0.3639832029657293,0.6087321817468341,4.2765357385771585,-1.0111476256356198
0.37007052478319763,0.6011054658503071,4.266424262320802,-0.9251977178060258
0.3760815794417007,0.5939282304533396,4.257172285142742,-0.8395352519390574
0.38202086174623406,0.5870856500803782,4.248776932623351,-0.7541931037086682
0.38789171824703783,0.5804676265011607,4.241235001586265,-0.6692045025054406
0.39369639451204946,0.5739690897464801,4.234542956561211,-0.5846021286691289
0.39943608540951425,0.5674902381058692,4.228696935274519,-0.5004173293057657
0.4051109877905729,0.5609367091026017,4.223692761981462,-0.4166794566837273
0.4107203548815989,0.5542196761490034,4.219525967414625,-0.33341533087614206
0.41626255164308895,0.5472558681909164,4.216191814105863,-0.25064882590975346
0.4217351103249981,0.5399675120863403,4.2136853258467655,-0.16840057630387822
0.42713478544586153,0.5322821996748074,4.2120013200837265,-0.08668779863106356
0.4324576074426096,0.5241326834409856,4.211134442097416,-0.005524220677006808
0.43769893427701945,0.5154566063339535,4.211079199890646,0.0750798910263063
0.442853500340359,0.5061961726631551,4.211829998800909,0.1551176160416134
0.4479154620669905,0.496297768056995,4.2133811749613255,0.2345851892148478
0.4528784397475605,0.48571153725483907,4.215727026853474,0.3134817471176676
0.4577355551201089,0.4743909290299927,4.218861844324651,0.39180902530622014
0.4624794644104088,0.4622922178366471,4.222779934577713,0.4695710203594059
0.4671023865887753,0.44937401186577747,4.2274756447813076,0.5467736308339751
0.47159612670743306,0.4355967571100249,4.2329433810896475,0.6234242912489041
0.4759520942785333,0.42092224679831863,4.239177624002137,0.699531613013102
0.48016131674651646,0.4053131451844212,4.246172940132268,0.7751050458589682
0.4842144481983607,0.3887325341700241,4.253923990590858,0.850154572853323
0.4881017735400609,0.37114349061577295,4.262425536319391,0.9246904514330109
0.4918132084462186,0.35250870143927,4.271672440833721,0.998723012154119
0.4953382954606113,0.3327901227087542,4.281659670955262,1.0722625259443666
0.49866619668769885,0.3119486879020476,4.292382296214706,1.1453191495970518
0.5017856835667194,0.28994406929829053,4.303835487710677,1.2179029580302396
0.5046851242597022,0.2667344950920757,4.316014517290979,1.2900240704474255
0.507352469210623,0.2422766232573058,4.328914757995453,1.3616928759729858
0.5097752354431961,0.21652547144033205,4.342531686755183,1.4329203626051337
0.5119404901575995,0.18943440023781258,4.356860890381234,1.5037185514530682
0.5138348341599775,0.16095514513590037,4.371898075895764,1.5741010362434391
0.5154443856113365,0.13103789018931838,4.387639086258199,1.644083626054008
0.5167547645132298,0.09963137425109861,4.404079922518739,1.7136850872401168
0.5177510782557407,0.0666830182883831,4.42121677339114,1.7829279786629386
0.5184179084386246,0.032139060108470736,4.439046053177769,1.8518395727253616
0.5187392990397093,-0.004055319251079548,4.457564448905023,1.9204528535022938
0.5186987458471984,-0.041955895068671985,4.476768977440046,1.9888075825540679
0.5182791868965118,-0.08161934359310766,4.4966570532655865,2.0569514229703
0.5174629934605807,-0.12310325221739003,4.51722656749529,2.1249411129338633
0.5162319609384067,-0.16646621646579254,4.5384759786246285,2.1928436817310546
0.5145672987737488,-0.2117680456226364,4.560404415441939,2.260737703752711
0.5124496183175224,-0.2590700990647981,4.583011792479466,2.3287145896945023
0.5098589173268745,-0.30843577538262335,4.606298938376411,2.396879918909719
0.5067745595730483,-0.35993117632033045,4.630267737565508,2.4653548227099678
0.503175247809845,-0.41362596761561965,4.654921285792608,2.534277435350536
0.4990389881336888,-0.46959445918833254,4.680264060146113,2.6038044374796088
0.49434304354180547,-0.5279169280748858,4.706302104520909,2.674112725991449
0.48906387426105663,-0.5886812093141971,4.733043231780823,2.745401254554983
0.4831770621679147,-0.6519845829709553,4.760497244326373,2.8178931006966956
0.4766572163382051,-0.7179359899593807,4.7886761753333404,2.891837828378594
0.46947785643861134,-0.7866586156405048,4.817594553617126,2.967514229793382
0.4616112702822063,-0.8582928886427151,4.84726969591506,3.045233546957942
0.45302834139577913,-0.9329999533134882,4.877722031384639,3.125343293064123
0.44369834186264423,-1.010965687909088,4.90897546431528,3.2082318159297505
0.43358868498355335,-1.0924053572018253,4.941057782474577,3.2943337717271817
0.4226646314115351,-1.1775690075018468,4.974001120191849,3.3841367066747434
0.41088894133651666,-1.2667477335009822,5.007842487258596,3.4781889772157584
0.3982214640015068,-1.3602809681938575,5.042624377030754,3.577109273830615
0.38461865431956826,-1.458564965867626,5.0783954697690605,3.681598046084959
0.370033004660892,-1.5620626567127793,5.11521145022991,3.792451148293999
0.3544123780937642,-1.671315036459386,5.15313596171285,3.910576019195473
0.3376992277291703,-1.7869541901947823,5.1922417219048045,4.0370106423022545
0.3198296858272225,-1.9097178890934483,5.232611828327827,4.17294534385611
0.300732506936288,-2.0404653554610928,5.274341281766389,4.319747056210447
0.2803278533816771,-2.1801931060521014,5.317538752328493,4.478984790311309
0.25852592232115607,-2.33004846457301,5.3623286002316055,4.652453323536984
0.23522543767542597,-2.491335850166226,5.408853133466975,4.842188787496377
0.2103120791737637,-2.6655063388577265,5.457275021341939,5.0504636051557865
0.18365701578518645,-2.8541125548867976,5.507779657393497,5.279736705496946
0.15511589023631847,-3.0586957674833637,5.560577024448467,5.532514060954527
0.12452893256148484,-3.280545566214123,5.615902165058012,5.811037887306232
0.0917234768993436,-3.5202287928566185,5.674012543931074,6.116661918035704
0.05652118897077741,-3.7767206616539375,5.735179163111431,6.448680531268396
0.018753982354238037,-4.0459047105420085,5.799665968424114,6.802284576394818
-0.02170506475118205,-4.318228146364327,5.867688814188062,7.165338643947747
-0.06488734621482532,-4.575670142010869,5.939342200627539,7.514180894319949
-0.11064404763493402,-4.789408232172243,6.014484009570739,7.81034293865949
-0.15853812995665645,-4.921849032336118,6.0925874389573345,8.003254936808187
-0.20775662028001762,-4.9377378401743695,6.172619988325416,8.045466297306076
-0.25713399868176134,-4.822794522186783,6.253074651298477,7.918219606211393
-0.3053619439036292,-4.595224787476762,6.332256847360591,7.6470878215222715
-0.35131419177839684,-4.296133698061822,6.4087277255758135,7.288494861281638
-0.39427552875901506,-3.9678524733927065,6.4816126741886295,6.899850669787883
-0.43395405349294214,-3.6399656913890936,6.550611180886508,6.520625805092735
-0.47035371040683305,-3.3279947063371766,6.615817438937436,6.170903912648971
-0.5036336574702048,-3.037824543117227,6.677526478063926,5.857681526249266
-0.5340119029013771,-2.7701576900190967,6.736103293326418,5.5810492171181645
-0.561713479801568,-2.5233727610402297,6.7919137854975995,5.338098940993863
-0.5869472074119704,-2.295037713792405,6.845294774907538,5.1249572465456374
-0.6098975845498944,-2.0826209791146555,6.896544347372995,4.9377167691952994
-0.630723794341041,-1.883788249416589,6.945921515064947,4.772806711697426
-0.6495616768352068,-1.69650189315957,6.993649582181922,4.627101058906567
-0.6665266957668026,-1.5190326674159151,7.039920592770987,4.497913671248581
-0.6817170224409618,-1.3499362052756552,7.084899729483473,4.382950570831808
-0.6952163844937184,-1.1880183256290398,7.128729235191791,4.280250996913046
-0.7070965677500087,-1.032299582556472,7.171531745160921,4.188130482045872
-0.7174195635755735,-0.8819831050150974,7.21341304998138,4.105130789602013
-0.7262393946257244,-0.7364268957536407,7.2544643578774,4.029977842212954
-0.7336036635832608,-0.5951205237128031,7.29476413629953,3.9615472461514756
-0.7395548688203888,-0.4576656750346727,7.3343796087610444,3.898836485529095
-0.7441315255707355,-0.32375990466281934,7.373367973616335,3.8409427614532303
-0.7473691246173637,-0.19318295548242198,7.411777401230867,3.7870455246584562
-0.7493009541721879,-0.06578509317642581,7.449647856477451,3.7363928777242794
-0.7499588051039522,0.058522998897125394,7.487011785254694,3.6882911540758516
-0.7493735751149809,0.17977912704183258,7.523894696795453,3.642097096096024
-0.7475757838445626,0.297977574857288,7.560315667756413,3.597212148689742
-0.7445960080959897,0.41307637626912663,7.59628778924331,3.5530784585729034
-0.7404652443332984,0.5250040172104422,7.631818573829039,3.5091762268622357
-0.735215204161194,0.6336656579125287,7.666910336097661,3.4650221073323615
-0.7288785475820687,0.7389489263640258,7.701560557170985,3.420168378941063
-0.7214890583184285,0.8407293014526849,7.735762240960395,3.374202652340929
-0.7130817653039017,0.9388750811426766,7.769504267483804,3.3267478988386587
-0.7036930144924749,1.03325191627068,7.802771746472191,3.277462618609423
-0.6933604953297681,1.1237268835466723,7.835546372658285,3.226040994119432
-0.6821232264943013,1.2101720712919624,7.867806782599479,3.1722129051052175
-0.6700215057813818,1.2924676572607137,7.899528911650531,3.1157437128880217
-0.6570968292087747,1.3705044682572098,7.930686348779411,3.056433753511353
-0.6433917845262026,1.4441860246845908,7.961250686314525,2.9941175100479405
-0.6289499242793567,1.5134300880621057,7.991191861415004,2.9286624631063005
-0.6138156233987356,1.578169744379093,8.020478486046066,2.859967643752168
-0.5980339259549448,1.6383540695180596,8.049078162483587,2.7879619335912036
-0.5816503852597642,1.6939484337350381,8.0769577818195,2.712602171788267
-0.5647109009224138,1.7449345095223827,8.104083803537383,2.633871137871283
-0.54726155582719,1.7913100506553217,8.130422514916097,2.5517754822588383
-0.5293484553206368,1.8330885097636709,8.155940269738686,2.466343673945313
-0.5110175702230001,1.870298557628587,8.18060370647814,2.377624027410767
-0.49231458464671424,1.9029835601019218,8.204379946752248,2.2856828595909575
-0.473284749045695,1.9312010587911626,8.227236775348157,2.1906028137993263
-0.4539727384577834,1.9550222902599508,8.24914280348615,2.0924813720462367
-0.4344225155551839,1.9745317663051067,8.270067617206612,1.9914295614242352
-0.41467719789213286,1.9898269256926429,8.289981912820855,1.8875708451869087
-0.3947789286352064,2.0010178562900705,8.308857621272724,1.7810401757499312
-0.3747687500723057,2.0082270764270347,8.326668023030223,1.6719831758044141
-0.3546864793080354,2.011589356024028,8.343387854788267,1.5605554055713418
-0.3345705857477951,2.0112515518829834,8.35899340884398,1.446921669256246
-0.31445807022896527,2.007372427728949,8.373462625536543,1.331255312105573
-0.2943843459516758,2.000122428191815,8.386775178657599,1.2137374610588432
-0.27438312166975765,1.989683376860801,8.398912553268188,1.0945561666054793
-0.25448628790114963,1.976248071658448,8.409858114934243,0.973905410714478
-0.23472380718456515,1.9600197557900165,8.419597169041388,0.8519839551020708
-0.215123609626665,1.9412114490653998,8.428117008592409,0.7289940150250088
-0.195711495136011,1.9200451320302854,8.435406948742658,0.6051397555471107
-0.17651104381570815,1.8967507835981252,8.441458346298129,0.4806256190956069
-0.1575435359797269,1.8715652812372767,8.446264602489086,0.35565450437306767
-0.13882788316735412,1.8447311807362758,8.449821147532816,0.23042582663609587
-0.12038057135999136,1.8164953996785214,8.452125405799178,0.10513349739814287
-0.10221561736320614,1.7871078346062594,8.45317674077316,-0.02003613270496865
-0.08434453901714355,1.7568199461369252,8.45297637944611,-0.14490632113559293
-0.06677633955577429,1.7258833488210552,8.451527316234754,-0.2693119237869256
-0.049517506067563735,1.6945484432342723,8.448834196996884,-0.39310128395493504
-0.03257202163522101,1.6630631267370302,8.444903184157335,-0.5161379804593552
-0.015941390367850704,1.631671616692437,8.43974180435274,-0.6383024024956709
0.00037532579907366415,1.600613415979325,8.433358780327785,-0.7594931274587761
0.016381459958866914,1.570122445719837,8.425763849053197,-0.8796280876576267
0.03208268441606528,1.5404263646422007,8.416967568176622,-0.9986455219579375
0.04748694806248729,1.5117460888111365,8.406981112957043,-1.1165047183990997
0.06260440895059866,1.484295519949055,8.395816065773053,-1.2331865632575056
0.07744736415008921,1.4582814855626736,8.383484200140478,-1.348693920499366
0.09203017900571595,1.4339038898395826,8.369997260935484,-1.4630518728294737
0.10636921790411177,1.4113560709714938,8.35536674220719,-1.5763078614696946
0.12048277861382671,1.3908253583027927,8.339603663592493,-1.6885317663805568
0.13439103219685464,1.3724938215289515,8.322718345928688,-1.79981597195974
0.14811597041214414,1.3565392040478206,8.30472018620909,-1.910275465477969
0.16168136245262235,1.3431360334091875,8.28561743155431,-2.020048016859895
0.17511272278671422,1.3324569034760654,8.265416951385712,-2.129294489116594
0.18843729182147487,1.3246739252205686,8.244124006494546,-2.238199329002395
0.20168403107368055,1.3199603457931188,8.221742013204523,-2.3469712874621393
0.21488363453161174,1.318492338325002,8.1982723003299,-2.455844419215141
0.22806855791486177,1.3204509674500866,8.173713856137748,-2.565079410286337
0.24127306758936265,1.3260243372016984,8.148063062034884,-2.674965281090848
0.25453331096137966,1.3354099279371086,8.121313409223976,-2.785821510069393
0.26788741024075075,1.348817126029735,8.093455194123282,-2.898000617530557
0.2813755815010481,1.3664699423431717,8.064475187947975,-3.0118912390303034
0.2950402809244798,1.388609899987243,8.034356275557672,-3.127921698605305
0.30892637992435223,1.4154990438782438,8.003077058571618,-3.2465640584727753
0.32308137036313467,1.447422976805133,7.97061141798689,-3.3683385637630736
0.337555600131186,1.4846937473795394,7.936928032349259,-3.4938183030021683
0.3524025376049814,1.5276522859851918,7.9019898493192375,-3.62363374271244
0.36767906046483334,1.576669876538542,7.865753511892113,-3.758476528316577
0.3834457592302188,1.6321478187527305,7.828168746608948,-3.8991015111443197
0.3997672374177461,1.6945139062096015,7.789177731497505,-4.046325264658847
0.4167123764798421,1.7642135098946046,7.748714478850916,-4.201018239873021
0.4343545115787881,1.8416917497592311,7.706704296452186,-4.364085949944154
0.45277142907638046,1.92736122119978,7.663063436952744,-4.536431833160575
0.47204504128837826,2.021546707065236,7.617699118621139,-4.718890276431097
0.4922605083590306,2.1243939138687087,7.570510215856828,-4.912112195683306
0.5135044474977177,2.235723375252455,7.5213890938999945,-5.116377306047165
0.5358616812502422,2.3548039078740772,7.470225320839523,-5.331297565946467
0.5594097203289831,2.4800152666734703,7.416912345180059,-5.555369083838134
0.5842098729957178,2.608375014266797,7.361358654341678,-5.7853360253025965
0.6102936231383858,2.734938051321289,7.303505294088652,-6.015374418412091
0.6376430036515986,2.852169765038788,7.2433515499045305,-6.2362291585384275
0.6661647013019866,2.9495772711729638,7.180989258319146,-6.434688669182051
0.6956604740137162,3.014131946063259,7.116642371627325,-6.594124142157073
0.7258017934743488,3.032124218742047,7.050701130205755,-6.696970580029202
0.7561230356617693,2.9926215782074426,6.9837314244054625,-6.729382554033014
0.7860492514438437,2.8914118607260946,6.916437598865132,-6.686528575413561
0.8149633700511046,2.733088342761913,6.849572313110996,-6.575318487171859
0.8422942534787238,2.5295662822444482,6.783819128239277,-6.412259996573227
0.8675899163011682,2.295903404658071,6.719696528273545,-6.217702131102215
0.890548950347749,2.04610550004544,6.657519506962522,-6.010163681323971
0.9110100053482033,1.7908240026220805,6.5974178701492825,-5.80331648735055
0.9289182453744241,1.537002808505485,6.539384705275777,-5.605635571953072
0.944288273459479,1.2885767710139606,6.483328349556246,-5.421447462831011
0.9571740411696186,1.047417501736091,6.429113874927936,-5.25227103425599
0.9676482161869795,0.814135662870655,6.376591164585377,-5.097928982691563
0.975789572815686,0.5886452722235332,6.3256118747584615,-4.95731554625158
0.9816760255379213,0.3705218318228849,6.276038719295946,-4.828874672463485
0.9853812438561502,0.15921471552797353,6.227749972571312,-4.71087746349463
0.98697339101143,-0.04583381278918097,6.180641197936366,-4.601573579667309
0.9865150528835382,-0.24512617082305493,6.1346254621396925,-4.499268193299639
0.9840637911753077,-0.43908015163305997,6.0896327802066965,-4.402356998610414
0.9796729896589771,-0.6280185275642605,6.045609210220593,-4.3093387302107224
0.9733928043833345,-0.8121692298997992,6.002515822918485,-4.218816444515925
0.9652711120843366,-0.9916713278396635,5.960327658473326,-4.129493892611459
0.95535439880594,-1.1665841222226714,5.919032719547212,-4.040170425065985
0.9436885575837133,-1.3368978723270861,5.878631015296552,-3.9497361991713773
0.9303195788604425,-1.5025453499698793,5.839133653304838,-3.8571685009168695
0.9152941253607437,-1.6634137826572828,5.8005619682956695,-3.7615294467557026
0.8986599875341709,-1.8193569366594797,5.762946673828113,-3.6619650189382797
0.8804664181675761,-1.970207178413984,5.72632702363873,-3.557705212692906
0.8607643463834362,-2.1157873841725325,5.6907499715118,-3.4480649772541287
0.839606472541711,-2.2559225705720847,5.656269321739259,-3.332445584186851
0.8170472468359901,-2.3904511093620364,5.622944865897391,-3.210336038413534
0.7931427357423697,-2.5192353779763885,5.590841505513255,-3.081314150552891
0.7679503819626058,-2.642171690183593,5.560028364007726,-2.9450469086249917
0.7415286650607699,-2.7591993513316266,5.530577894921477,-2.80128982001054
0.7139366715474535,-2.870308692663502,5.502564996721371,-2.6498849388197243
0.6852335846208185,-2.975547959490476,5.4760661473331735,-2.490757347790545
0.6554781050259137,-3.075028958391973,5.451158573855268,-2.3239099256013382
0.624727815441994,-3.1689314079898745,5.427919474599254,-2.1494162978191325
0.5930385013620952,-3.2575059844750927,5.406425311621063,-1.9674119400176786
0.5604634415173443,-3.341076104605474,5.386751192220886,-1.7780834719954863
0.5270526804712895,-3.4200385424586957,5.368970357500931,-1.5816562495092383
0.4928522950467025,-3.4948630283994735,5.353153795005839,-1.378380421736727
0.4579036647627078,-3.5660910255473928,5.339369990788471,-1.1685156767400298
0.42224275450723386,-3.634333915894405,5.327684834021071,-0.9523149428969624
0.3858994153482898,-3.700270849569173,5.318161684592102,-0.7300073534468847
0.3488967068525981,-3.764646509498088,5.310861611057633,-0.5017808196998245
0.31125024175761723,-3.828269010107969,5.305843802860635,-0.2677646078471325
