th1 (rad),w1 (rad/s),th2 (rad),w2 (rad/s),a1 (rad/s^2),a2 (rad/s^2)
1.5019562244279374,-1.5491403957607899,6.20670836674661,2.9568310752678117,-14.13647580567605,3.0405527104468537
1.4864648204703295,-1.6905051538175504,6.236276677499288,2.9872366023722803,-14.295866289746133,3.850210343963739
1.469559768932154,-1.8334638167150117,6.2661490435230105,3.025738705811918,-14.510344945251155,4.73695975765559
1.451225130765004,-1.9785672661675233,6.29640643058113,3.073108303388474,-14.788375740802868,5.708716423144401
1.4314394581033287,-2.126451023575552,6.327137513615015,3.130195467619918,-15.139476183997695,6.775129648892465
1.4101749478675731,-2.277845785415529,6.358439468291214,3.197946764108843,-15.574369840542872,7.947757834151895
1.387396490013418,-2.433589483820958,6.390418935932303,3.2774243424503617,-16.105095399267476,9.240175433138052
1.3630605951752084,-2.5946404378136325,6.423193179356806,3.3698260967817424,-16.745006533304366,10.667918979913095
1.337114190797072,-2.762090503146676,6.456891440324624,3.476505286580873,-17.508539845795006,12.248099025286049
1.3094932857656052,-2.937175901604626,6.491656493190432,3.5989862768337337,-18.41052606280072,13.99836081011447
1.280121526749559,-3.1212811622326333,6.52764635595877,3.7389698849348783,-19.46463860560623,15.934621493692369
1.2489087151272327,-3.3159275482886956,6.565036054808119,3.898316099871802,-20.680258422465453,18.06656793684621
1.2157494396443458,-3.52273013251335,6.604019215806837,4.078981779240264,-22.056502110218393,20.389150397953753
1.1805221383192124,-3.7432951536155343,6.64480903359924,4.282873283219802,-23.571316397554128,22.867119255065845
1.143089186783057,-3.9790083175910755,6.687637766431438,4.51154447577046,-25.162368969019056,25.407998993289212
1.1032991036071462,-4.230632007281266,6.732753211189142,4.765624465703352,-26.695358958934726,27.817330464794182
1.0609927835343336,-4.497585596870613,6.780409455846176,5.043797770351294,-27.916092770298576,29.731015138782904
1.0160169275656274,-4.776746524573599,6.830847433549689,5.341107921739123,-28.3904513577002,30.53051971567878
0.9682494623198915,-5.060651038150601,6.88425851276708,5.646413118895911,-27.462385116159663,29.283279108181542
0.9176429519383855,-5.335274889312197,6.94072264395604,5.939245909977727,-24.315959417239124,24.829321777190753
0.8642902030452635,-5.578434483484589,7.000115103055817,6.187539127749634,-18.28569097426542,16.217313163541395
0.8085058582104176,-5.761291393227243,7.061990494333314,6.349712259385048,-9.469276771021622,3.5669852788214587
0.7508929442781452,-5.855984160937459,7.125487616927164,6.385382112173263,0.7419942667424669,-11.181736175200662
0.6923331026687707,-5.848564218270035,7.1893414380488965,6.273564750421256,10.02037980484903,-24.76450527426361
0.6338474604860703,-5.748360420221545,7.252077085553109,6.02591969767862,16.44335188102883,-34.47188256433339
0.5763638562838549,-5.583926901411257,7.312336282529896,5.681200872035286,19.519652259189307,-39.59045433911223
0.5205245872697424,-5.388730378819363,7.369148291250249,5.285296328644164,19.94991801058632,-41.07374191428934
0.46663728348154876,-5.1892311987135,7.42200125453669,4.874558909501271,18.780350224716006,-40.36268899289955
0.41474497149441375,-5.00142769646634,7.470746843631703,4.470932019572276,16.853430786792142,-38.61910431451932
0.3647306945297504,-4.832893388598419,7.515456163827426,4.084740976427082,14.688790245717538,-36.558335616675734
0.3164017606437662,-4.6860054861412435,7.556303573591697,3.719157620260325,12.557742034320091,-34.55174251843518
0.26954170578235376,-4.5604280657980425,7.5934951497942995,3.373640195075973,10.58212125975126,-32.76320475323139
0.22393742512437334,-4.45460685320053,7.6272315517450595,3.046008147543659,8.804812177351616,-31.246484647585163
0.17939135659236805,-4.366558731427014,7.657691633220496,2.7335433010678076,7.230896202455485,-30.001944989657115
0.1357257692780979,-4.294249769402459,7.685027066231174,2.4335238511712367,5.849411487651854,-29.006474797369528
0.09278327158407332,-4.23575565452594,7.7093623047428865,2.143459103197541,4.644155050788153,-28.228304519975755
0.05042571503881391,-4.189314104018059,7.730796895774862,1.8611760579977836,3.5987252983502716,-27.633908890900443
0.008532573998633323,-4.153326851034556,7.74940865635484,1.5848369690887791,2.6986586172677574,-27.19094996239589
-0.03300069451171223,-4.126340264861878,7.765257026045727,1.31292746946482,1.9321439939135312,-26.869318714601828
-0.07426409716033101,-4.107018824922743,7.778386300740376,1.0442342823188018,1.290064430425149,-26.64131758769797
-0.11533428540955844,-4.094118180618491,7.788828643563564,0.7778211064418221,0.7657346891018879,-26.48150148744981
-0.15627546721574334,-4.086460833727472,7.796606854627982,0.513006091567324,0.35451360961717243,-26.36642832719142
-0.19714007555301805,-4.0829156976313,7.801736915543655,0.2493418082954098,0.053374637000347204,-26.274435640313836
-0.23796923252933105,-4.082381951261297,7.8042303336266095,-0.013402548107728562,-0.13952724269815492,-26.185491677730454
-0.27879305204194404,-4.083777223688279,7.804096308145533,-0.2752574648850331,-0.22527459128387017,-26.081134417969725
-0.31963082427882683,-4.0860299696011175,7.801343733496682,-0.5360688090647303,-0.20458337190609266,-25.94449343368039
-0.360491123974838,-4.088075803320178,7.795983045406035,-0.7955137434015342,-0.07816878658135015,-25.76037945523672
-0.4013718820080398,-4.088857491185991,7.78802790797202,-1.0531175379539015,0.15292557584481287,-25.51542095813672
-0.44226045691989974,-4.0873282354275435,7.777496732592481,-1.3082717475352688,0.4870423395038428,-25.198224551281267
-0.4831337392741752,-4.082457812032505,7.764414015117128,-1.5602539930480814,0.9216756173549538,-24.799535745004672
-0.5239583173945003,-4.073241055858955,7.748811475186647,-1.808249350498128,1.4532927902398978,-24.312378587322193
-0.5646907279530898,-4.058708127956556,7.730728981681666,-2.05137313637135,2.0772164824467825,-23.73215643881163
-0.6052778092326554,-4.037935963132088,7.710215250317952,-2.2886947007594665,2.7875674999997266,-23.056701401198683
-0.6456571688639763,-4.010060288132091,7.687328303310357,-2.5192617147714533,3.5772662274353144,-22.286265989832327
-0.6857577717452972,-3.9742876258577375,7.662135686162642,-2.7421243746697765,4.438086916286652,-21.423456748075644
-0.7255006480038746,-3.929906756694871,7.6347144424159445,-2.956358942150533,5.360756972651357,-20.47311480939889
-0.7647997155708233,-3.8762991869683576,7.60515085299444,-3.161090090244522,6.3350921488256535,-19.442152215162025
-0.8035627074405068,-3.812948265480101,7.573539952091995,-3.355511612396142,7.350158620013418,-18.33935466273859
-0.8416921900953078,-3.739446679279967,7.539984835968033,-3.538905159023528,8.394454166171071,-17.175161228568268
-0.8790866568881075,-3.655502137618256,7.5045957843777975,-3.7106567713092105,9.456102717827454,-15.961429804835403
-0.9156416782642901,-3.5609411104399817,7.467489216664705,-3.8702710693575644,10.523058830589497,-14.711194139474511
-0.95125108936869,-3.455710522134087,7.4287865059711296,-4.01738301075231,11.583320640667809,-13.438415284993038
-0.9858081945900308,-3.3398773157274086,7.388612675863606,-4.151767163602241,12.625151013664736,-12.157727754097232
-1.0192069677473048,-3.213625805590761,7.347095004227584,-4.273344441143213,13.63730661043716,-10.884179397186458
-1.0513432258032125,-3.0772527394863896,7.304361559816152,-4.3821862351150775,14.609273399218532,-9.63296431184344
-1.0821157531980763,-2.9311600054942044,7.260539697465001,-4.478515878233512,15.53150496705514,-8.419149958821725
-1.1114273532530183,-2.775844955823653,7.215754538682666,-4.56270737782173,16.395657294194013,-7.257402729266666
-1.139185802811255,-2.6118883828817125,7.170127464904449,-4.635281405114396,17.19481107291802,-6.161719845588789
-1.165304686640072,-2.4399402721525325,7.1237746508533055,-4.696898603570284,17.92367082435643,-5.145178906061948
-1.1897040893615973,-2.2607035639089683,7.076805664817603,-4.748350392630904,18.578729531002136,-4.219718848360319
-1.212311125000687,-2.074916268598947,7.029322160891294,-4.790547581114507,19.158388572909608,-3.3959670399093214
-1.2330602876866765,-1.883332382869851,6.9814166850801485,-4.8245072515136,19.66302545273907,-2.6831263324134977
-1.251893611515375,-1.6867021283424601,6.933171612565013,-4.851338514837734,20.095005840874713,-2.088933323201086
-1.2687606327987995,-1.485752069933713,6.884658227416636,-4.872227848069746,20.458641347729518,-1.619695149706108
-1.2836181534981366,-1.2811656564564178,6.835935948935938,-4.888424799566807,20.760099482960243,-1.2804075377843698
-1.2964298100627007,-1.0735646616268153,6.78705170094027,-4.901228874944651,21.007276831614867,-1.0749522540388192
-1.307165456678969,-0.8634918933106666,6.738039412190823,-4.911978397485039,21.209650016838822,-1.006368244686081
-1.3158003756120757,-0.6513953931422783,6.688919628215973,-4.9220420799319,21.378121166165013,-1.0771880600026715
-1.3223143295434985,-0.43761418148062825,6.639699207416654,-4.932813960531926,21.52487519599463,-1.2898298655381824
-1.3266904713583048,-0.22236542952068197,6.5903710678113345,-4.945712259187308,21.663265273507143,-1.6470352926539147
-1.3289141256535115,-0.005732776785610544,6.540913945219462,-4.962182612113848,21.807740341929712,-2.1523440601657295
-1.3289714534213677,0.21234462663368658,6.491292119098323,-4.9837060527155055,21.973824489811157,-2.8105967146108575
-1.3268480071550308,0.43208287153179814,6.441455058571168,-5.011812019861614,22.17815166335023,-3.6284553240169823
-1.3225271784397128,0.6538643881653005,6.391336938372552,-5.048096573101783,22.43854934799816,-4.614925727713841
-1.3159885345580598,0.8782498816452821,6.340855972641534,-5.094245830378921,22.774148355053146,-5.78184915053207
-1.3072060357416069,1.1059913651958135,6.289913514337744,-5.152064321884242,23.205466785231188,-7.144296949614212
-1.2961461220896486,1.3380460330481254,6.238392871118902,-5.223507291380384,23.754363318139415,-8.720734082542297
-1.2827656617591674,1.5755896662295195,6.186157798205098,-5.310714632205808,24.44365721044242,-10.532685281288403
-1.2670097650968721,1.8200262383339436,6.13305065188304,-5.416041485018692,25.296031369137985,-12.6033892336366
-1.2488095027135326,2.0729865520253234,6.078890237032853,-5.542075377355058,26.33150198267338,-14.95446404092627
-1.2280796371932794,2.3363015718520574,6.023469483259302,-5.691620017764321,27.562136629854557,-17.598767004307263
-1.2047166214747589,2.611922938150603,5.966553283081659,-5.867607687807394,28.98165394394852,-20.526159278399383
-1.1785973920932529,2.901739477590088,5.907877206203585,-6.072869280591387,30.545840197209834,-23.676488531166093
-1.149579997317352,3.2071978795621865,5.847148513397671,-6.309634165903049,32.137411445053345,-26.89081306138793
-1.11750801852173,3.52857199401272,5.78405217173864,-6.578542296516928,33.507318118064525,-29.829461196022216
-1.0822222985816028,3.863645175193365,5.718266748773471,-6.87683690847715,34.18895821270847,-31.85147706085799
-1.043585846829669,4.20553475732045,5.6494983796886995,-7.19535167908573,33.407770528820066,-31.88590626746323
-1.0015304992564646,4.539612462608651,5.577544862897843,-7.514210741760363,30.084018599136137,-28.430284771238668
-0.9561343746303781,4.840452648600012,5.502402755480239,-7.7985135894727495,23.15074585628354,-19.98561367950492
-0.907729848144378,5.071960107162847,5.424417619585512,-7.998369726267799,12.395729770237718,-6.220940014309038
-0.8570102470727495,5.195917404865225,5.344433922322834,-8.06057912641089,-0.5633182081631708,10.672638029276888
-0.8050510730240973,5.190284222783593,5.263828131058725,-7.9538527461181205,-12.513783233204348,26.30399346513983
-0.7531482307962614,5.065146390451549,5.184289603597544,-7.6908128114667225,-20.65994646601295,36.86097800248006
-0.7024967668917459,4.858546925791419,5.107381475482877,-7.322203031441922,-24.344985442541393,41.47416983342938
-0.6539112976338317,4.615097071366005,5.034159445168458,-6.907461333107628,-24.661370544389946,41.65909233939347
-0.6077603269201717,4.368483365922105,4.965084831837382,-6.490870409713693,-23.09088449973834,39.43918429387874
-0.5640754932609506,4.137574520924722,4.900176127740245,-6.0964785667749055,-20.726881566680547,36.2885898382383
-0.5226997480517034,3.9303057052579162,4.839211342072496,-5.7335926683925225,-18.183100036550417,33.02035426969847
-0.4833966909991242,3.748474704892412,4.781875415388571,-5.403389125695538,-15.746388827678203,30.003107329631224
-0.44591194395020006,3.59101081661563,4.727841524131615,-5.103358052399226,-13.525575501446479,27.36711120780512
-0.41000183578404376,3.4557550616011654,4.676807943607623,-4.829686940321175,-11.544115407526709,25.13074693503259
-0.3754442851680321,3.3403139075258985,4.628511074204412,-4.57837947097085,-9.788877494109471,23.266171006360814
-0.3420411460927731,3.242425132584804,4.582727279494703,-4.345717760907242,-8.233687441023005,21.73039455467031
-0.30961689476692505,3.1600882581745737,4.539270101885631,-4.128413815360538,-6.849963664583771,20.47889094211567
-0.2780160121851793,3.091588621528736,4.497985963732026,-3.9236249059393815,-5.61113672325333,19.470903785043507
-0.24710012596989195,3.0354772542962025,4.458749714672632,-3.7289158680889463,-4.494199103220868,18.670992435227227
-0.2167453534269299,2.9905352632639937,4.421460555991743,-3.542205943736674,-3.4799947810184606,18.048968571449365
-0.18684000079428997,2.955735315453809,4.386038496554376,-3.3617162580221804,-2.5530023422859838,17.579216636097982
-0.1572826476397519,2.930205292030949,4.352421333974155,-3.1859240916612004,-1.7009543274892167,17.239840554593027
-0.1279805947194424,2.913195748756057,4.320562093057543,-3.01352568611527,-0.9144405694798478,17.011823447642406
-0.09884863723188182,2.9040513430612585,4.29042683619639,-2.843407451638846,-0.1865519202213732,16.878271272503465
-0.06980812380126925,2.9021858238590448,4.261992761680002,-2.674624738913811,0.4874214307110096,16.82376150045994
-0.040786265562678795,2.9070600381661547,4.235246514290864,-2.506387123909212,1.110241862046436,16.83379888197176
-0.011715665181017246,2.918162456786619,4.210182643051772,-2.3380491350894945,1.6829394545015683,16.894375337073985
0.01746595938684894,2.9349918513316346,4.186802151700878,-2.1691053817187544,2.205006476130413,16.991631991709056
0.04681587790016529,2.9570419160929386,4.16511109788369,-1.999189061801664,2.6745879650938784,17.111624366886907
0.07638629706109468,2.9837877957438774,4.145119207265673,-1.8280728181327948,3.0886842794583647,17.24019458127498
0.10622417501853346,3.014674638538461,4.126838479084346,-1.6556708723200448,3.4433793524375127,17.362955859469576
0.13637092140391807,3.049108432062836,4.110281770361145,-1.482041313725349,3.7341049252701866,17.465393782993573
0.16686200572454643,3.086449481315538,4.095461357223892,-1.3073873758954133,3.9559460966702327,17.533085029769385
0.1977265005377018,3.1260089422822404,4.082387483464937,-1.1320565255977195,4.103987141972381,17.552027645754674
0.2289865899605242,3.1670488137019643,4.07106691820896,-0.9565362491401728,4.173689029426187,17.50906751161927
0.26065707809754385,3.2087857039962264,4.061501555717558,-0.7814455740239801,4.161282097481973,17.39239456613142
0.2927449351375061,3.2503985249710463,4.053687099977318,-0.6075216283626659,4.064150043360971,17.192071132335546
0.3252489203872166,3.291040025404656,4.047611883693691,-0.4356009170393104,3.881176054926825,16.900545466517134
0.35815932064126316,3.3298517859539243,4.0432558745232985,-0.2665954623741391,3.6130199377105705,16.51309866243205
0.3914578385008024,3.3659819853310298,4.040589919899557,-0.10146447574981862,3.2622974381533627,16.02817417221227
0.4251176583541127,3.3986049597125634,4.039575275142059,0.05881726597230408,2.8336399354058566,15.447547398628943
0.45910370795123834,3.426941359066622,4.040163447801782,0.21329273995859352,2.3336236379332727,14.776307667127282
0.49337312154190455,3.4502775954459546,4.042296375201368,0.36105581662986636,1.7705708326804834,14.022644536079012
0.5278758974963641,3.467983303772759,4.045906933367667,0.5012822619906565,1.1542394099700546,13.197451824090551
0.5625557305340917,3.4795256978724596,4.050919755987573,0.6332567802315621,0.4954284945838879,12.313782395643758
0.5973509875128162,3.4844799828182986,4.057252323789889,0.7563946041879996,-0.19446436894983293,11.386201453369239
0.6321957873409992,3.4825353391288,4.064816269831769,0.870256618721692,-0.9038964635948519,10.43009371547444
0.6670211407322872,3.4734963744928518,4.073518836018986,0.9745575558764364,-1.6216080593147248,9.460979790469853
0.7017561044772158,3.4572802938997045,4.08326441157775,1.069167353781135,-2.3369965638068297,8.49389017643837
0.7363289074162128,3.433910328261636,4.093956085115562,1.1541062555455188,-3.040416873163434,7.542833598673307
0.7706680106988292,3.403506159530002,4.105497147671017,1.229534591532252,-3.7233980306652605,6.62038235856499
0.8047030722941292,3.366272179223349,4.1177924935863395,1.2957384151179019,-4.378775425061704,5.737383401617116
0.8383657940863627,3.322484424972732,4.130749877737519,1.353112249134073,-5.000745035398192,4.902791779058988
0.87159063833609,3.27247697461875,4.14428100022886,1.402140166924663,-5.584851148760111,4.123614169136852
0.9043154080822775,3.2166284631311486,4.158302401898107,1.4433763086160314,-6.127921533304015,3.404944481685962
0.9364816927135889,3.1553492477981084,4.172736164984267,1.477425753432891,-6.627964589011923,2.750071044252254
0.9680351851915701,3.089069601907989,4.187510422518596,1.5049264638754134,-7.0840420524937215,2.16063484955538
0.99892588121065,3.018229181383052,4.20255968715735,1.5265328123709672,-7.496128963375584,1.6368200800438872
1.0291081730244804,2.9432678917492963,4.2178250152810595,1.542901013171406,-7.864970304004172,1.1775608879759436
1.0585408519419734,2.8646181887092546,4.233254025412774,1.5546766220511654,-8.19194137786437,0.780751595829429
1.087187033829066,2.7826987749306107,4.248800791633285,1.5624841380094596,-8.47891684185032,0.4434506535259972
1.115014021578372,2.6979096065121073,4.26442563301338,1.5669186445447196,-8.728151485291308,0.1620715692614576
1.141993117643493,2.610628091659194,4.280094819458827,1.5685393602373343,-8.942174399150579,-0.06744352250887713
1.168099398560085,2.5212063476676883,4.2957802130612,1.5678649250122456,-9.123697089087802,-0.24947002301192586
1.1933114620367617,2.42996937677681,4.311458862311323,1.5653702247821264,-9.275535310906541,-0.3885676166368166
1.21761115580453,2.3372140236677446,4.327112564559144,1.5614845486157582,-9.400543888006254,-0.4893673518506883
1.2409832960412075,2.243208584787682,4.342727410045302,1.5565908750972515,-9.501563448959793,-0.5564780313716988
1.2634153818890843,2.148192950298084,4.3582933187962745,1.5510260947835346,-9.581377846807834,-0.5944103821109288
1.2848973113920652,2.052379171830006,4.37380357974411,1.5450819909624254,-9.642680947077142,-0.6075171745293074
1.3054211031103653,1.9559523623592345,4.389254399653734,1.5390068192171322,-9.688051465693425,-0.5999473120194042
1.3249806267339577,1.8590718477023003,4.404644467845905,1.5330073460969382,-9.719934576503713,-0.5756118713692169
1.3435713452109808,1.7618725019372632,4.419974541306875,1.5272512273832461,-9.740629073926414,-0.5381601124023263
1.3611900702303534,1.664466211197999,4.435247053580707,1.5218696262592228,-9.752278957777932,-0.4909635636744821
1.3778347323423334,1.5669434216202198,4.4504657498433,1.516959990622478,-9.756868397182558,-0.437106413375707
1.3935041665585357,1.4693747376483943,4.465635349749524,1.512588926488721,-9.756219124239072,-0.3793805773348406
1.4081979139350196,1.3718125464060036,4.480761239014411,1.5087951207153725,-9.751989403525737,-0.32028397045753426
1.4219160393990795,1.2742926523707463,4.4958491902215645,1.5055922810107971,-9.745673819899592,-0.2620206686819561
1.434658965922787,1.1768359141717504,4.510905113031672,1.5029720743239776,-9.738603224948658,-0.20650181309211404
