th1 (rad),w1 (rad/s),th2 (rad),w2 (rad/s),a1 (rad/s^2),a2 (rad/s^2)
3.530100192926064,0.35694975151319247,5.319153160140372,2.040512390984017,6.76140416351903,9.39031728034328
3.533669690441196,0.4245637931483828,5.339558284050212,2.13441556378745,7.055008590967918,9.403027373056457
3.5379153283726796,0.4951138790580619,5.360902439688086,2.2284458375180143,7.361537513036436,9.409940760414184
3.54286646716326,0.5687292541884262,5.383186898063267,2.322545245122156,7.680328472266822,9.409880644502293
3.548553759705144,0.6455325389110944,5.406412350514488,2.416644051567179,8.01058195653855,9.401475046065515
3.5550090850942553,0.72563835847648,5.43057879103016,2.510658802027834,8.351344932547033,9.383143126321512
3.56226546867902,0.8091518078019503,5.455685379050439,2.6044902332910493,8.701493956403473,9.353082445426386
3.5703569867570395,0.896166747365985,5.481730281383349,2.698021057745313,9.059718254032518,9.309257683734495
3.579318654230699,0.9867639299063102,5.5087104919608025,2.791113634582658,9.424503262454492,9.249391440000352
3.5891862935297625,1.0810089625308552,5.536621628306629,2.8836075489826616,9.79411522622575,9.170957806369293
3.599996383155071,1.1789501147931127,5.565457703796456,2.9753171270463543,10.166587546613709,9.071179497263959
3.611785884303002,1.2806159902592498,5.59521087506692,3.066028922018994,10.53970967820299,8.94702937046129
3.6245920442055946,1.3860130870412797,5.62587116428711,3.155499215723607,10.91101945061033,8.795237214815398
3.6384521750760075,1.495123281547383,5.657426156444346,3.243451587871761,11.277799752401425,8.612302680374796
3.6534034078914814,1.6079012790713971,5.689860672323064,3.3295746146755087,11.637080539717086,8.394515183094066
3.669482420682195,1.724272084468568,5.723156418469819,3.4135197665064494,11.985647112892977,8.137981518959492
3.686725141526881,1.8441285555974978,5.757291616134884,3.4948995816960444,12.320055530859618,7.838661764612862
3.705166427082856,1.967329110906094,5.792240611951844,3.573286199342173,12.636655898280626,7.492413821201516
3.724839718191917,2.0936956698889,5.827973473945266,3.648210337554188,12.931624061634892,7.09504667913007
3.7457766748908057,2.223011910505249,5.8644555773208085,3.7191608043454885,13.201001991645501,6.642382155552056
3.768006793995858,2.355021930421704,5.901647185364263,3.785584625901009,13.440746822751867,6.130324504979315
3.7915570133000753,2.4894293986492224,5.939503031623273,3.846887870950802,13.646788187330085,5.554936956924024
3.8164513072865676,2.625897280522523,5.977971910332781,3.902437240520042,13.81509315424242,4.912523931699039
3.8427102800917927,2.764048212064947,6.016996282737981,3.9515624798370323,13.941737797129758,4.19971746958516
3.8703507622124422,2.903465590036245,6.056511907536351,3.9935596545328838,14.02298422096933,3.413566321248296
3.8993854181128045,3.043695432245938,6.09644750408168,4.0276953177453665,14.055361807330165,2.5516262203649536
3.9298223724352637,3.1842490503192398,6.136724457259134,4.053211579949016,14.035751531037697,1.6120501044629092
3.961664862938456,3.3246065656296167,6.1772565730586235,4.069332080993645,13.96147246561907,0.5936774473295536
3.994910928594752,3.464221290285807,6.21794989386856,4.07526885546694,13.830370014646068,-0.5038776447661842
4.02955314149761,3.602524990432268,6.258702582423229,4.070230079019279,13.640905926288724,-1.6801394483195968
4.065578391401933,3.738934049695155,6.299404883213422,4.053428684536082,13.392250673013239,-2.9336843233504246
4.102967731898884,3.8728565564252877,6.339939170058783,4.024091841302578,13.084379172336023,-4.2620547356809455
4.141696297463137,4.003700348148648,6.380180088471809,3.9814712939457686,12.718170924712117,-5.66167386959926
4.181733300944623,4.130882057395769,6.419994801411266,3.924854555249776,12.295515280748061,-7.12776249283174
4.223042121518581,4.253837210203249,6.459243346963764,3.8535769303214584,11.819421576110063,-8.654262013505194
4.265580493620614,4.37203142596435,6.497779116266979,3.7670343101864066,11.294132207640194,-10.233770835846068
4.309300807880257,4.484972748040752,6.535449459368842,3.664696601827946,10.725234397459612,-11.857505005569887
4.354150535360665,4.592225092015348,6.572096425387122,3.546121551772247,10.11976358631737,-13.51529834116577
4.400072786280818,4.693422727878522,6.607557640904845,3.4109685683605893,9.486288481472279,-15.195661132497229
4.447007013559603,4.788285612693245,6.6416673265884505,3.259011957035617,8.834965316789008,-16.88591919227938
4.494889869686536,4.876635265861135,6.674257446158807,3.090152765112823,8.177547576694497,-18.572455579305245
4.543656222345147,4.9584107416280805,6.705158973809935,2.9044282093197706,7.527338068735407,-20.241074726866124
4.593240329761428,5.033684122315434,6.734203255903132,2.7020174620511095,6.8990734962222,-21.877502345187025
4.643577170984582,5.102674857277656,6.761223430523644,2.4832424385992393,6.308738003431372,-23.46802423804539
4.694603919557358,5.16576223731197,6.786055854909636,2.2485621962187854,5.773311490587779,-25.000253835596876
4.746261541930478,5.2234953522178476,6.808541476871824,1.9985596578628166,5.310470159590029,-26.464003535498147
4.798496495452657,5.276600053813747,6.828527073450452,1.7339196225078353,4.938269456604401,-27.852221507291976
4.851262495990794,5.325982748379792,6.845866269675531,1.4553974074349156,4.67485155655546,-29.16194664178397
4.904522323474592,5.372731263945346,6.86042024374988,1.1637779410170759,4.538228903132761,-30.395232927649744
4.958249636114045,5.418113552976674,6.872058023160051,0.8598256117405785,4.546200558019941,-31.560002968093038
5.012430771643812,5.463575558556873,6.880656279277456,0.5442255820596481,4.716458544606067,-32.670809304894284
5.067066527229381,5.510740144002934,6.886098535098053,0.21751748901070528,5.066937427494941,-33.749510395544206
5.12217392866941,5.561409518277884,6.88827370998816,-0.1199776149447368,5.616453481730703,-34.82590213746119
5.177788023852189,5.617574053095191,6.887073933838712,-0.4682366363193487,6.385671732531701,-35.938380486654545
5.233963764383141,5.681430770420508,6.882391567475518,-0.8276204411858942,7.3984305337113625,-37.13473856517339
5.290778072087346,5.755415075757621,6.87411536306366,-1.198967826837628,8.683441073955608,-38.47321130851629
5.348332222844922,5.842249486497177,6.862125684795283,-1.583699939922791,10.276351218962944,-40.023851032093326
5.406754717709894,5.945012998686806,6.846288685396056,-1.9839384502437243,12.222087655261694,-41.870202751985396
5.466204847696762,6.067233875239423,6.826449300893619,-2.4026404777635784,14.577191677374131,-44.11094429176567
5.526877186449156,6.213005792013164,6.802422896115983,-2.843749920681235,17.411366697571104,-46.860420576149345
5.589007244369288,6.387119458988876,6.773985396909171,-3.3123541264427288,20.80625603839166,-50.245271966883365
5.652878438959177,6.595182019372793,6.740861855644744,-3.8148068461115625,24.846647177939733,-54.39034579476153
5.718830259152905,6.84364849115219,6.702713787183629,-4.358710304059178,29.592810385504148,-59.377928462737216
5.787266744064427,7.139576595007232,6.659126684143037,-4.95248958868655,35.00833536267178,-65.14417996895145
5.858662510014499,7.48965994863395,6.609601788256171,-5.603931388376065,40.78888854353771,-71.23609070439775
5.933559109500838,7.897548834069327,6.55356247437241,-6.316292295420043,45.992673965520716,-76.28996289952653
6.012534597841531,8.357475573724534,6.49039955141821,-7.0791919244153085,48.37092356840582,-77.09027928774829
6.096109353578777,8.841184809408592,6.419607632174056,-7.850094717292792,43.646906995755316,-67.56369970366022
6.1845212016728635,9.277653879366145,6.341106685001129,-8.525731714329394,26.442280077282472,-40.10914784626538
6.277297740466525,9.54207668013897,6.255849367857834,-8.926823192792048,-3.8120005591636956,6.031733534568666
6.372718507267915,9.503956674547334,6.166581135929914,-8.866505857446361,-35.565854641692766,54.440829792920134
6.467758074013388,9.148298128130406,6.077916077355451,-8.32209755951716,-53.46345208155833,83.25583754573638
6.5592410552946925,8.613663607314823,5.994695101760279,-7.489539184059796,-55.39049742643189,89.28062125735333
6.645377691367841,8.059758633050505,5.9197997099196815,-6.596732971486262,-49.06872773326872,83.29760189894921
6.725975277698346,7.569071355717818,5.853832380204819,-5.76375695249677,-40.77054100249473,74.17077011769463
6.801665991255525,7.161365945692871,5.796194810679852,-5.022049251319824,-33.07884963713056,65.61204530083857
6.873279650712453,6.830577449321565,5.745974318166653,-4.365928798311438,-26.631162744681685,58.58555129642532
6.941585425205669,6.564265821874748,5.702315030183539,-3.7800732853471843,-21.39053206546799,53.08330935267073
7.007228083424416,6.3503605012200675,5.664514297330067,-3.249240191820477,-17.155988098300398,48.845359809771
7.070731688436617,6.178800620237063,5.632021895411862,-2.7607865937227674,-13.724620835975943,45.59249181738986
7.132519694638988,6.0415544118773035,5.6044140294746345,-2.3048616755488687,-10.931430187534096,43.08645603768124
7.192935238757761,5.932240110001962,5.581365412719146,-1.8739971151720562,-8.65169781377485,41.13652579320734
7.252257639857781,5.845723131864214,5.562625441567425,-1.4626318572399828,-6.79389122139412,39.59210610835926
7.310714871176423,5.777784219650273,5.547999122995025,-1.0667107961563902,-5.2915847116355925,38.33365256848242
7.368492713372926,5.7248683725339164,5.537332015033461,-0.683374270471566,-4.096572344158537,37.2651837236456
7.425741397098265,5.683902649092331,5.530498272328745,-0.31072243323510995,-3.1734421029404833,36.30887561021869
7.482580423589188,5.6521682280629255,5.527391047996394,0.052366322867076986,-2.4953950924007127,35.40144250072005
7.5391021058698175,5.627214277138918,5.527914711225065,0.4063807478742775,-2.0410425504519583,34.49185099529505
7.595374248641207,5.606803851634399,5.5319785187038075,0.7512992578272281,-1.7919746691553766,33.53993627601779
7.6514422871575505,5.588884104942845,5.53949151128208,1.086698620587406,-1.7309662450281076,32.515552571186724
7.707331128206979,5.5715744424925635,5.550358497487954,1.4118541462992733,-1.840735190465406,31.397959540241352
7.763046872631905,5.55316709058791,5.564477038950947,1.725833741701687,-2.103195443948928,30.175217791161277
7.818578543537784,5.532135136148421,5.581735376367964,2.0275859196132995,-2.499149258127986,28.843441085357753
7.873899894899268,5.507143643567141,5.602011235564096,2.316020330466877,-3.0083525184931244,27.40582841768198
7.92897133133494,5.47706011838221,5.625171438868765,2.590078614643697,-3.609869509252655,25.871470556783745
7.983741932518762,5.440961423289683,5.651072225015202,2.8487933202115343,-4.282618930194921,24.25398497787343
8.038151546751658,5.398135233987734,5.679560158217318,3.0913331699902686,-5.006007401440649,22.570073186106956
8.092132899091535,5.348075159973328,5.710473489917221,3.3170339018513384,-5.760553215795962,20.838111211855523
8.145613650691269,5.290469627815368,5.743643828935734,3.5254150139698934,-6.5284210650177865,19.076878160609844
8.198518346969422,5.225185417165189,5.778897979075433,3.7161837955759918,-7.293814278768238,17.304504045071738
8.250770201141075,5.1522472743775065,5.816059817031193,3.8892288360267093,-8.043199679041516,15.53768433461204
8.30229267388485,5.071815277587091,5.85495210539146,4.04460567937283,-8.765366481099862,13.79117284251188
8.353010826660721,4.984161612776092,5.895398162185188,4.182517407797949,-9.451341104839225,12.077533412687393
8.402852442788483,4.8896482017277005,5.937223336263168,4.303292741924823,-10.094192523031984,10.407108491555467
8.45174892480576,4.788706276497381,5.980256263682416,4.407363826840378,-10.688767885518564,8.788150473414708
8.499635987570732,4.681818597642195,6.02432990195082,4.495245331574525,-11.231396925669145,7.22705888678695
8.546454173547154,4.569504628385504,6.069282355266565,4.5675159204423945,-11.719598015149282,5.728670909387533
8.59214921983101,4.452308648234011,6.114957514470989,4.62480262953627,-12.151810689255617,4.296561748369114
8.636672306313349,4.330790541341455,6.1612055407663515,4.6677682470199615,-12.52717071696626,2.9333226466541142
8.679980211726763,4.205518834171792,6.207883223236551,4.697101473486502,-12.84533556743988,1.6407957338103654
8.722035400068481,4.077065478497393,6.254854237971416,4.713509430824606,-13.106361181953652,0.4202553101887282
8.762806054853455,3.9460018666778565,6.301989332279662,4.717711983926494,-13.310625656289071,-0.7274663145400607
8.802266073520233,3.812895610114966,6.3491664521189275,4.710437320781093,-13.458791848000763,-1.8019039180016165
8.840395029621382,3.6783076916349584,6.396270825326739,4.692418281601077,-13.551798937961488,-2.802926638101592
8.877178106537732,3.5427897022553436,6.44319500814275,4.664389015220061,-13.590872382843068,-3.730736363353812
8.912606003560285,3.406880978426913,6.48983889829495,4.627081651586523,-13.577542227408767,-4.585885530407896
8.946674813344554,3.2711055561528255,6.536109714810816,4.581222796282444,-13.513661112936363,-5.369303267285268
8.979385868906082,3.135968945023462,6.58192194277364,4.527529763609591,-13.401415229327558,-6.082320405255096
9.010745558356316,3.0019547927301864,6.6271972404097355,4.46670655955704,-13.243323636308485,-6.7266860483182835
9.040765106283617,2.8695215563671015,6.671864306005306,4.399439699073858,-13.042223575265176,-7.30457081184455
9.069460321847288,2.7390993206144496,6.715858702996044,4.326393990955412,-12.801241401689811,-7.818554241425052
9.096851315053433,2.6110869065975515,6.759122642905599,4.2482084485411615,-12.523750436098553,-8.271596078541373
9.122962184119409,2.485849402236566,6.80160472739101,4.165492487755748,-12.213318265021805,-8.666992797412101
9.147820678141775,2.363716219586348,6.843259652268567,4.078822559781627,-11.8736467888718,-9.008322112820448
9.171457840337638,2.2449797516976298,6.884047877866383,3.9887393386534225,-11.508508628645396,-9.299378931893399
9.193907637854615,2.1298946654111757,6.923935271252917,3.8957455493344884,-11.121683428427186,-9.544106527643837
9.215206584508726,2.0186778311269036,6.962892726746262,3.8003044840580498,-10.716897212372178,-9.746526621683769
9.235393362819995,1.911508859003182,7.000895771586843,3.702839217841212,-10.297767372006977,-9.910671673713827
9.254508451410027,1.808531185283112,7.037924163765255,3.6037325011040737,-9.867755169495316,-10.040522089252939
9.272593763262858,1.709853633588159,7.073961488776296,3.5033272802115443,-9.43012693035007,-10.139950372054559
9.28969229959874,1.615552364284658,7.108994761578411,3.4019277764909988,-8.987924432110532,-10.212673546607792
9.305847823241585,1.5256731199635527,7.1430140393433215,3.299801041024921,-8.543944420091314,-10.262214522311382
9.32110455444122,1.4402336757626395,7.176012049753571,3.197178895801807,-8.100726723536525,-10.291872506695718
9.335506891198847,1.3592264085272743,7.2079838387115895,3.09426017073485,-7.660550113982305,-10.304702123351603
9.349099155284119,1.2826209073874513,7.238926440418938,2.991213149501334,-7.22543483744164,-10.303500557678221
9.361925364357994,1.2103665590130348,7.268838571913951,2.8881781439245517,-6.797150649109279,-10.290801834700492
9.374029029948124,1.142395052521942,7.297720353353197,2.7852701255775467,-6.377229164429643,-10.268877214516966
9.385452980473344,1.0786227608776455,7.325573054608973,2.682581353432377,-5.966979392553782,-10.239740654578934
9.39623920808212,1.0189529669521078,7.352398868143297,2.5801839468865877,-5.567505417065572,-10.205158314740498
9.406428737751641,0.963277912781452,7.378200707612162,2.4781323637391828,-5.179725316274671,-10.16666115237883
9.416061516879456,0.9114806596187053,7.402982031249554,2.3764657522153945,-4.804390556366553,-10.125559754482714
9.425176323475643,0.8634367540550397,7.426746688771708,2.2752101546705674,-4.4421052336699995,-10.082960667866589
9.433810691016193,0.8190157017183397,7.4494987903184136,2.1743805479919014,-4.093344678909074,-10.039783607009367
9.442000848033377,0.778082254929249,7.471242595798333,2.0739827119218077,-3.7584730610791732,-9.99677903373607
9.44978167058267,0.7404975243184573,7.491982422917551,1.974014921584447,-3.4377597384189746,-9.95454570887832
9.457186645825855,0.7061199269342675,7.511722572133396,1.8744694644956637,-3.131394197563521,-9.913547910087313
9.464247845095198,0.6748059849586323,7.530467266778352,1.7753339853947905,-2.839499499406434,-9.87413209068861
9.470995904944784,0.6464109899645679,7.5482206066323,1.6765926644879043,-2.5621442124079077,-9.836542821634845
9.47746001484443,0.6207895478404888,7.564986533277179,1.578227236271556,-2.2993528625329356,-9.800937912843462
9.483667910322835,0.5977960192151595,7.580768805639894,1.4802178571431213,-2.0511149654274163,-9.767402652649501
9.489645870514986,0.5772848695608853,7.595570984211325,1.3825438306166262,-1.8173927326423072,-9.735963136203786
9.495418719210594,0.5591109422344622,7.6093964225174915,1.2851841992545883,-1.5981275614361388,-9.706598676967715
9.501009828632938,0.5431296666201009,7.622248264510038,1.1881182124849112,-1.3932454285140345,-9.679253311554357
9.506441125299139,0.5291972123349605,7.634129446634887,1.0913256793693678,-1.2026613133974486,-9.653846418508575
9.51173309742249,0.5171705992009861,7.64504270342858,0.994787215184282,-1.0262827781559307,-9.630282477532072
9.5169048034145,0.5069077714194268,7.654990575580423,0.8984843904089613,-0.8640128279606062,-9.608459998300368
9.521973881128694,0.4982676431398207,7.663975419484513,0.8023997904259577,-0.7157521721398702,-9.58827964836788
9.526956557560093,0.491110121418422,7.671999417388772,0.7065169939422788,-0.5814009987644896,-9.569651608517734
9.531867658774276,0.48529611143077706,7.679064587328194,0.6108204778571015,-0.46086036775042744,-9.552502181921119
9.536720619888584,0.4806875077532728,7.685172792106766,0.5152954560378903,-0.3540333184107971,-9.536779681107431
9.541527494966116,0.47714717456916483,7.690325746667145,0.41992765922681596,-0.26082577758045283,-9.522459614351707
9.546298966711808,0.4745389167933603,7.694525023259413,0.3247030630832989,-0.1811473440638967,-9.509549190873837
9.55104435587974,0.4727274433527213,7.697772053890246,0.2296075711745605,-0.11491201433997801,-9.49809116231676
9.555771630313268,0.4715783232093215,7.700068129601991,0.13462665955139289,-0.062038903261975926,-9.488167016329545
9.560487413545362,0.4709579341767018,7.701414396197505,0.03974498938809744,-0.02245300194230464,-9.479899536638456
9.56519699288713,0.47073340415727877,7.701811846091386,-0.05505400597828712,0.003913996908150334,-9.473454742575578
9.569904326928702,0.47077254412636027,7.701261306031602,-0.1497885534040429,0.017122788255442566,-9.469043219408341
9.574612052369966,0.4709437720089147,7.699763420497562,-0.2444789855981263,0.01722545354746734,-9.466920848662756
9.579321490090056,0.47111602654438933,7.697318630641581,-0.3391481940847539,0.004264377437234263,-9.467388944582538
9.5840326503555,0.4711586703187617,7.693927148700733,-0.43382208353057927,-0.021728894916914644,-9.470793798476995
9.588744237058688,0.4709413813695925,7.689588927865427,-0.5285300215153492,-0.060734822034009366,-9.477525626481798
9.593453650872384,0.47033403314925243,7.684303627650273,-0.6233052777801672,-0.11274699726467494,-9.4880169076262
9.598156991203876,0.4692065631766057,7.678070574872471,-0.7181854468564292,-0.17777317419548316,-9.50274008744134
9.602849056835641,0.46742883143465086,7.670888720403907,-0.8132128477308426,-0.25583609329958473,-9.522204606964458
9.607523345149987,0.46487047050165503,7.662756591926598,-0.9084348938004871,-0.34697399394447637,-9.546953197131266
9.612172049855005,0.46140073056221026,7.653672242988593,-1.0039044257717997,-0.45124066974128146,-9.577557353369707
9.616786057160628,0.45688832386479744,7.643633198730875,-1.0996799993054969,-0.5687048950990418,-9.614611873806563
9.621354940399275,0.451201274913807,7.632636398737819,-1.1958261180435625,-0.6994490158631634,-9.658728305899725
9.625866953148414,0.4442067847551754,7.620678137557384,-1.2924134011025599,-0.8435664560944731,-9.710527099483247
