th1 (rad),w1 (rad/s),th2 (rad),w2 (rad/s)
3.0641287458643323,-2.2922673274769974,1.4998774642040362,-2.9899848452718154
3.041206072589562,-2.344403457226232,1.469977615751318,-3.0348535033295923
3.0177620380173,-2.400285698274227,1.439629080718022,-3.077417746668767
2.9937591810345574,-2.4598880038016238,1.4088549032513344,-3.1174010295860706
2.969160300996541,-2.5231708179988708,1.3776808929554738,-3.1545071022882794
2.9439285928165524,-2.590080181860095,1.346135821932591,-3.1884188896827075
2.9180277909979515,-2.6605469260168184,1.3142516330357639,-3.218797541116633
2.8914223217377835,-2.7344859890861555,1.2820636576245976,-3.24528169430345
2.864077461846922,-2.811795906103513,1.2496108406815631,-3.2674869992175575
2.835959502785887,-2.892358517737429,1.2169359706893876,-3.2850059492123656
2.8070359176085127,-2.9760389569386545,1.184085911197264,-3.2974080666074346
2.777275528039126,-3.062685975212978,1.1511118305311896,-3.304240488029559
2.7466486682869964,-3.1521326755492396,1.118069425650894,-3.3050289903472296
2.715127341531504,-3.2441977228759047,1.0850191357474217,-3.2992794905267773
2.6826853643027446,-3.3386871054442198,1.052026340842154,-3.286480041544735
2.6492984932483026,-3.4353965214333426,1.0191615404267067,-3.266103330984174
2.614944528033969,-3.5341144640682045,0.986500507116865,-3.2376096685095637
2.579603383393287,-3.6346260754320365,0.9541244104317693,-3.2004504224977284
2.5432571226389666,-3.736717833861082,0.9221199062067921,-3.154071834249322
2.505889944300356,-3.840183132428376,0.8905791878642988,-3.0979191001251802
2.4674881129760724,-3.944828796908795,0.859599996863047,-3.0314405675786755
2.4280398250069846,-4.050482581456401,0.8292855911872602,-2.9540918406097925
2.3875349991924204,-4.157001670129362,0.7997446727811622,-2.8653395342124743
2.3459649824911266,-4.264282203991261,0.7710912774390375,-2.7646643568661595
2.303322160451214,-4.372269849008573,0.7434446338703758,-2.6515631363625123
2.2595994619611286,-4.480971422181557,0.7169290025067507,-2.525549338939428
2.214789747739313,-4.590467605708197,0.6916735091173565,-2.3861515667854873
2.1688850716822308,-4.700926805348582,0.6678119934495016,-2.232909456677161
2.121875803628745,-4.812620253491314,0.64548289888273,-2.0653663452873845
2.073749601093832,-4.9259385231182895,0.6248292354298561,-1.8830580176543514
2.0244902158626488,-5.041409707507217,0.6059986552533126,-1.6854968192381503
1.9740761187875766,-5.159719629598484,0.5891436870609311,-1.4721503980801882
1.9224789224915917,-5.281734563618875,0.5744221830801293,-1.2424143710028082
1.869661576855403,-5.408527052435472,0.5619980393701012,-0.9955783173803872
1.8155763063310484,-5.541405427577978,0.5520422561962973,-0.7307847813853089
1.7601622520552687,-5.681947462075702,0.5447344083824442,-0.44698158458803633
1.7033427774345116,-5.832037962005714,0.5402645925365639,-0.14286907044607206
1.6450223978144545,-5.993908538263421,0.5388359018321032,0.18315337080284727
1.5850833124318202,-6.170174318386484,0.5406674355401316,0.5330316115224487
1.5233815692479553,-6.363855032261949,0.5459977516553561,0.9090709455653693
1.4597430189253358,-6.578352980795591,0.5550884611110098,1.3138771192642418
1.3939594891173799,-6.817330754493208,0.5682272323036522,1.7501383344384371
1.3257861815724479,-7.0843745062501,0.5857286156480366,2.2200807081959923
1.2549424365099469,-7.382224529942465,0.6079294227299965,2.7242823622545536
1.1811201912105223,-7.711185740434964,0.635172246352542,3.2592944976755747
1.1040083338061726,-8.066129648621798,0.6677651913292977,3.8132428030956325
1.0233470373199547,-8.431528968861468,0.705897619360254,4.358649214842402
0.93903174763134,-8.77512722727692,0.749484111508678,4.84341078777297
0.8512804753585708,-9.044839598931974,0.7979182193864077,5.186613563659689
0.760832079369251,-9.179734098743698,0.8497843550230046,5.294791923067721
0.669034738381814,-9.142387263654797,0.9027322742536819,5.109122150382835
0.5776108657452661,-8.950647842562077,0.9538234957575102,4.652103790297748
0.48810438731964534,-8.668186695761404,1.0003445336604877,4.015125405942378
0.4014225203620313,-8.361791515813675,1.0404957877199115,3.297301982906163
0.31780460520389453,-8.073498474146529,1.0734688075489731,2.5643272056898954
0.23706962046242924,-7.820578024477021,1.099112079605872,1.8471234637420006
0.15886384021765904,-7.605578367517475,1.117583314243292,1.1555624124218524
0.08280805654248428,-7.424386900809132,1.1291389383675106,0.4899143981018901
0.008564187534392961,-7.270519692066431,1.1340380823485294,-0.15285835562769168
-0.06414100938627135,-7.136996375640199,1.1325094987922526,-0.7762246175727254
-0.13551097314267335,-7.017041755614927,1.1247472526165254,-1.3829316110020247
-0.20568139069882263,-6.904293745053933,1.1109179365065052,-1.9746331211676833
-0.274724328149362,-6.792832914808838,1.0911716052948284,-2.5518548773976732
-0.34265265729745037,-6.677168200604233,1.0656530565208517,-3.11410495646313
-0.4094243393034927,-6.5522314339664725,1.0345120069562204,-3.6600499091651724
-0.4749466536431574,-6.413397181337941,0.9979115078645686,-4.187724700983731
-0.5390806254565368,-6.256528163853734,0.9560342608547313,-4.69476256720284
-0.6016459070950742,-6.078038961863313,0.9090866351827029,-5.178636200236503
-0.6624262967137072,-5.874967076161857,0.8573002731803379,-5.6369019275382115
-0.7211759674753258,-5.645038888982699,0.8009312539049558,-6.067437263656023
-0.7776263563651528,-5.386717998503847,0.7402568812683955,-6.468661155171207
-0.8314935363501912,-5.099224590422729,0.6755702697166834,-6.839726223874958
-0.8824857822544184,-4.782516865116508,0.6071730074779338,-7.180673713957579
-0.9303109509055835,-4.437228910637874,0.535366270338358,-7.492544713340453
-0.9746832400119622,-4.064563518330002,0.4604408232049535,-7.777445342752499
-1.0153288751952623,-3.6661428458468364,0.3826663697774285,-8.03856853922135
-1.0519903036537306,-3.243824015768603,0.30228068438521505,-8.280180112339975
-1.0844285438114165,-2.7994902352037285,0.2194788832618153,-8.507581001048157
-1.112423446163454,-2.334830704901992,0.13440307325133372,-8.72705993707689
-1.1357717532124738,-1.8511250620392727,0.047132473880564824,-8.94584943742902
-1.1542830038328666,-1.3490523280919688,-0.04232602049372537,-9.172090591052465
-1.1677735271137863,-0.8285547272506057,-0.13404692640425003,-9.41479333024362
-1.1760590743862924,-0.28881237575918306,-0.22819485970668624,-9.683737783379273
-1.1789471981438842,0.27155616863202436,-0.32503223754047894,-9.989175400246042
-1.176231636457564,0.8538255007519915,-0.42492399154293936,-10.34100847641202
-1.167693381450044,1.4575319570997136,-0.5283340763070595,-10.74677087423912
-1.1531180618790469,2.076947054928495,-0.6358017850494507,-11.207112555346367
-1.132348591329762,2.694234866005206,-0.7478729106029144,-11.706766758034545
-1.10540624266971,3.268408799293395,-0.8649405781832599,-12.19960151547165
-1.072722154676776,3.724417654225503,-0.9869365933379763,-12.5933470409932
-1.035477978134521,3.961125849411098,-1.1128700637479083,-12.759304317260481
-0.99586671964041,3.904442202871869,-1.2404631069205132,-12.60275606186469
-0.9568222976116912,3.5777029653672723,-1.3664906675391602,-12.156123394098675
-0.9210452679580186,3.0916508828874756,-1.488051901480147,-11.563345980629299
-0.8901287591291438,2.5578474998103253,-1.60368536128644,-10.964072872382124
-0.8645502841310405,2.0391444906451524,-1.7133260900102611,-10.431143317916764
-0.844158839224589,1.5579564441878944,-1.8176375231894288,-9.984913289523629
-0.8285792747827101,1.11690011413907,-1.917486656084665,-9.62175247745888
-0.8174102736413194,0.7114874358345236,-2.013704180859254,-9.330639119239326
-0.8102953992829741,0.3356283416945854,-2.107010572051647,-9.099891105171386
-0.8069391158660283,-0.016399594845577792,-2.198009483103361,-8.91928033085861
-0.807103111814484,-0.3494002942713402,-2.2872022864119472,-8.78040320525342
-0.8105971147571974,-0.667214927499692,-2.3750063184644814,-8.676493306775207
-0.8172692640321944,-0.9728320016157512,-2.4617712515322334,-8.602108952260918
-0.8269975840483519,-1.2685252633727495,-2.5477923410548424,-8.552837060127883
-0.8396828366820794,-1.5559788310566893,-2.6333207116561215,-8.525049808443054
-0.8552426249926464,-1.8363902875144174,-2.718571209740552,-8.51571569174815
-0.8736065278677906,-2.1105530703042703,-2.8037283666580333,-8.52225683444832
-0.8947120585708332,-2.378922420069909,-2.8889509350025167,-8.54244318596529
-0.9185012827715323,-2.64166934821882,-2.9743753668621697,-8.574315480840575
-0.9449179762537205,-2.898726408433531,-3.0601185216705753,-8.616130505542454
-0.9739052403380558,-3.1498281666727332,-3.146279826726,-8.666323621498828
-1.0054035220047832,-3.394548379642525,-3.232943062940988,-8.723484512876338
-1.0393490058012085,-3.6323350737593527,-3.3201779080697515,-8.786342793582632
-1.075672356538802,-3.8625439813821107,-3.408041336005578,-8.853760508473666
-1.114297796352623,-4.084470150345755,-3.4965789410903145,-8.924728795962125
-1.1551424978560807,-4.297377016363501,-3.585826229049936,-8.99836613482153
-1.1981162680197157,-4.500521842790706,-3.6758098903981513,-9.07391575596543
-1.2431214864476228,-4.693176216519276,-3.7665490479578057,-9.150740021102514
-1.2900532486128156,-4.874640262843831,-3.858056448168831,-9.228309892149248
-1.3387996512412539,-5.044249411679982,-3.9503395470903233,-9.306188050211388
-1.3892421453580537,-5.20137289962716,-4.043401427592437,-9.384004758610759
-1.4412558743543253,-5.345403696742791,-4.137241475178545,-9.461426170558164
-1.4947099113217532,-5.475740161914816,-4.2318557368841265,-9.538115420947502
-1.5494673129409013,-5.591760412930792,-4.327236891093602,-9.613687481063428
-1.6053849170702092,-5.692791111295946,-4.423373765904236,-9.687659379504591
-1.6623128281831687,-5.77807308668442,-4.520250359699282,-9.759398010822437
-1.7200935590500128,-5.846726955219311,-4.617844339807506,-9.828068395938448
-1.7785608286022059,-5.897722618421781,-4.716125023766891,-9.892585966162162
-1.8375380547864237,-5.929857250633467,-4.815050883428512,-9.951577243284085
-1.8968366272927584,-5.941747035471634,-4.9145666558613526,-10.003354162702166
-1.9562540976474747,-5.931838366711577,-5.014600197488374,-10.045908128770977
-2.0155724813145905,-5.8984442565580935,-5.115059278776084,-10.076930469999468
-2.0745569238801713,-5.839810960102494,-5.215828583476078,-10.09386589898548
-2.1329550334811964,-5.7542179272146,-5.316767242465933,-10.09400437801831
-2.1904972127533426,-5.640110768891334,-5.417707286246117,-10.074613921378832
-2.246898320442256,-5.496261834266712,-5.518453425459905,-10.033111975652272
-2.301860938784923,-5.3219465609616945,-5.618784545216427,-9.967266207056044
-2.35508040439454,-5.117116983890516,-5.7184572072869875,-9.875407622574636
-2.4062515742334454,-4.882548373878045,-5.817211283512734,-9.756631656509034
-2.455077057972226,-4.619933043529378,-5.914777600077824,-9.610958506227554
-2.5012763884075198,-4.331898735195654,-6.010887185140099,-9.439424906713503
-2.544595375759476,-4.021938328683951,-6.105281434207234,-9.244086961800573
-2.5848147590463157,-3.69425160336833,-6.19772230382524,-9.027926930435363
-2.621757275079999,-3.3535152795570924,-6.288001573129594,-8.794673152695427
-2.65529242787557,-3.0046103853405812,-6.375948304656548,-8.548557336894923
-2.6853385317289757,-2.652342561874577,-6.461433878025497,-8.294043107687084
-2.7118619573477214,-2.3011896506451954,-6.544374309102368,-8.035561680354036
-2.7348738538541735,-1.9551027677470165,-6.624729925905909,-7.777284995726198
-2.7544248815316434,-1.6173749895012621,-6.702502775863171,-7.522956068096268
-2.770598631426656,-1.290579316630202,-6.777732336544133,-7.275784125208737
-2.783504424592958,-0.9765676357798156,-6.850490177796221,-7.038401463149909
-2.793270100950756,-0.6765164231076162,-6.92087419242772,-6.81287166818193
-2.800035265181832,-0.39100296657712713,-6.98900290910954,-6.600735421554158
-2.8039452948476034,-0.12009699458790962,-7.055010263325081,-6.403079892772858
-2.8051462647934824,0.13654449204735875,-7.119041062252809,-6.2206196355606425
-2.8037808198730088,0.37958784710618854,-7.1812472586084155,-6.053779807359
-2.799984941401947,0.6099441752813981,-7.241785056682006,-5.902775577036314
-2.7938854996491327,0.8287040832132617,-7.300812812452369,-5.767684245773208
-2.785598458817,1.0370864078522124,-7.358489654910101,-5.648508656682443
-2.775227594738478,1.2364002884475398,-7.414974741476925,-5.5452318826201
-2.7628635918540025,1.4280192500656277,-7.470427060303126,-5.457864036245617
-2.7485833993533464,1.6133656505300136,-7.525005700665582,-5.386482450686843
-2.732449742848046,1.7939037392779145,-7.57887052517245,-5.331266525538274
-2.714510705455267,1.9711395285869873,-7.632183190427832,-5.292528265764864
-2.694799310169397,2.1466255273206505,-7.685108473085481,-5.270738930975455
-2.6733330548961907,2.321967947090407,-7.7378158623952356,-5.266551123236078
-2.6501133754252866,2.49883299401281,-7.790481373627596,-5.28081377592909
-2.6251250454851585,2.6789468857807677,-7.843289511386887,-5.314574314777216
-2.598335576627351,2.8640806005024233,-7.896435254534659,-5.369056800875399
-2.5696947706223265,3.0560039872791482,-7.950125822543414,-5.4455956076687455
-2.539134730749535,3.256383167746839,-8.004581778620102,-5.545488881837865
-2.5065708990720665,3.4665782721214558,-8.06003666743848,-5.669712018973868
-2.471905116350852,3.687274723865089,-8.116733787628219,-5.818397466204611
-2.4350323691122013,3.9178555858759974,-8.174917762290265,-5.989950258593318
-2.3958538132534413,4.155418300752607,-8.234817264876199,-6.1796613292058415
-2.354299630245915,4.393423040293767,-8.296613878168257,-6.3777958921242375
-2.3103653998429774,4.62026572357851,-8.3603918370895,-6.567560149682344
-2.2641627426071924,4.818733168140372,-8.426067438586323,-6.724279539811496
-2.2159754109257888,4.968089895934707,-8.493310233984438,-6.818235959947517
-2.166294511966442,5.050209976409238,-8.561492593583914,-6.823153978085735
-2.1157924122023495,5.057994463635292,-8.629724133364771,-6.727902718121196
-2.0652124675659964,5.000041463837484,-8.697003160545982,-6.543013275278566
-2.0152120529276214,4.8968430732535415,-8.762433293298768,-6.295433434894767
-1.966243622195086,4.771638441287542,-8.825387627647716,-6.015881002738449
-1.9185272377822107,4.643149612608491,-8.885546437675101,-5.728829237190023
-1.8720957416561257,4.52331908629809,-8.942834730047002,-5.4494189632777035
-1.8268625507931449,4.418392478604979,-8.997328919679779,-5.184973053564918
-1.782678626007095,4.330903673804922,-9.049178650215428,-4.93772914483609
-1.7393695892690457,4.261329352443437,-9.098555941663788,-4.707097483932676
-1.6967562957446114,4.209162025854352,-9.145626916503115,-4.49110948571114
-1.6546646754860679,4.173521683697363,-9.190538011360227,-4.287229965378347
-1.6129294586490943,4.153475709544767,-9.23341031101401,-4.09277014296722
-1.5713947015536467,4.1481930121333095,-9.274338012443682,-3.90507604792386
-1.5299127714323135,4.157009545710551,-9.31338877292292,-3.72159901522008
-1.488342675975208,4.179448408041983,-9.35060476307512,-3.539908245118964
-1.4465481918947882,4.21521732765453,-9.386003845526309,-3.3576778541594052
-1.404396018618243,4.264194881184248,-9.419580624067903,-3.1726658139148887
-1.3617540698064003,4.326410468172552,-9.451307282207052,-2.982694429221126
-1.3184899651246749,4.402019575606031,-9.481134226499263,-2.7856383053547242
-1.2744697693686144,4.491273869304452,-9.50899060955281,-2.579424242990025
-1.2295570306755699,4.59448446292934,-9.53478485198271,-2.362047136778326
-1.1836121860462765,4.71197602110825,-9.558405323350494,-2.131606105278281
-1.136492425835194,4.844029068929896,-9.579721384403276,-1.886365280851386
-1.0880521351458952,4.990808086993856,-9.598585037211791,-1.6248434928066304
-1.0381440542759566,5.152273869544793,-9.614833472139857,-1.3459359844698848
-0.9866213155805087,5.3280804804474124,-9.628292831984556,-1.0490687531883582
-0.9333405107760345,5.517460198990463,-9.638783519516439,-0.7343815615098097
-0.8781659087861299,5.719104157908223,-9.646127335131537,-0.40292886238205267
-0.8209748672070476,5.931051576247155,-9.650156623755358,-0.056879148056545814
-0.761664351444576,6.150605567369782,-9.650725415235923,0.3003160680566781
-0.7001582957708782,6.374296712694793,-9.647722254555356,0.6638196710601618
-0.6364153286439302,6.597914745023058,-9.641084057844754,1.0274103875750524
-0.5704361811936997,6.816621965101421,-9.630809953969004,1.383618359213904
-0.5022699615426854,7.025149195085407,-9.616973770376866,1.724006936333705
-0.4320184695918314,7.218058533387897,-9.599733701013529,2.0395867566972896
-0.3598378842579524,7.39004182777934,-9.579337833446555,2.3213209586068784
-0.28593746598015896,7.536215357293606,-9.556124623860486,2.5606610530018945
-0.21057531240722288,7.652373458586784,-9.530518013330466,2.7500487783679697
-0.13405157782135502,7.735176268852867,-9.503017525546786,2.8833316619043456
-0.05669981513282635,7.782264591845222,-9.474184208927744,2.95606364792581
0.02112283078562588,7.792311317675902,-9.444623572448485,2.9656874744077877
0.0990459439623849,7.765028237240355,-9.414966697704408,2.9116134171171337
0.17669622633478846,7.701147299475131,-9.385850563533236,2.795214870272883
0.25370769932953974,7.6023878620478404,-9.357898414830506,2.6197558563868686
0.3297315779500182,7.471410247999024,-9.331700856266638,2.3902540929542635
0.4044456804300084,7.311745696168545,-9.307798315337095,2.11327259756852
0.47756313739169387,7.127687689477553,-9.28666558936141,1.7966291309646472
0.5488400142864694,6.924132050303675,-9.268699298051764,1.4490194007924122
0.6180813347895062,6.7063630019269524,-9.25420910404384,1.079566093092542
0.6851449648087757,6.479796738418226,-9.243413443112914,0.697326382891746
0.749942932192958,6.249707951665995,-9.236440179283996,0.31080774533397176
0.812440011709618,6.020972947131888,-9.233332101830657,-0.07245183874126127
0.8726497411809369,5.797862138285501,-9.23405662021807,-0.4461914107131675
0.9306283625637919,5.583905095445889,-9.238518534325202,-0.8055949617028019
0.9864674135182507,5.38183655086121,-9.24657448394223,-1.1473183667346356
1.040285779026863,5.193616931582979,-9.258047667609576,-1.4693970263856273
1.0922219483426927,5.0205103372893545,-9.272741637873432,-1.7710702291861875
1.1424270517155863,4.863198271946358,-9.290452340165293,-2.0525620356365715
1.19105903443505,4.721908331177119,-9.31097796052166,-2.3148537296526244
1.2382781177468212,4.5965414608933965,-9.334126497818186,-2.559473406036049
1.284243532355755,4.486787110917526,-9.359721231878547,-2.7883177871258447
1.3291114034649303,4.392220933349988,-9.387604409749805,-3.003512395645338
1.3730336127984302,4.312383741256402,-9.417639533706259,-3.2073098385351084
1.4161574502109942,4.246843036519694,-9.449712632091611,-3.4020221908038017
1.4586258805761911,4.195239714453907,-9.48373285399965,-3.589981748567155
1.5005782777207302,4.157322872607823,-9.51963267148532,-3.7735240094827183
1.5421515064468083,4.132975276966926,-9.557367911580148,-3.954986940389696
1.5834812592164775,4.122231133427985,-9.596917780984045,-4.136720810309021
1.6247035705507573,4.125286367394863,-9.638284989087134,-4.321102558692547
1.665956434224706,4.142499402749307,-9.68149601467406,-4.510547222949116
1.707381428252199,4.174376931239758,-9.72660148690355,-4.707505506133039
1.7491251975645967,4.221533428846131,-9.773676541964882,-4.914429771317652
1.791340531853058,4.284603670192745,-9.822820839678059,-5.1336784693218585
1.8341865685549854,4.364072014234952,-9.874157624371277,-5.3673081806531675
1.8778272886973348,4.4599584555285405,-9.927830706177808,-5.616669799736545
1.9224268732526202,4.571269630782027,-9.983997404175174,-5.881681164506339
1.9681395695604404,4.69509497180004,-10.042814215820238,-6.159608858112829
2.015090519278441,4.8252501972653254,-10.104410304401366,-6.443220977551534
2.0633430212510944,4.950563906790156,-10.168842514176882,-6.718439554817246
2.112848660318996,5.053481523618768,-10.236026909725055,-6.962423749994713
