th1 (rad),w1 (rad/s),th2 (rad),w2 (rad/s),a1 (rad/s^2),a2 (rad/s^2)
2.2365977622302697,-1.70025942295336,3.100268227736519,0.48370578769027295,-8.584040250683938,2.9740283617020324
2.219595168000736,-1.7860998254601994,3.1051052856134214,0.5134460713072933,-8.51789615364212,2.563496715005674
2.201734169746134,-1.8712787869966205,3.1102397463264944,0.53908103845735,-8.453455231543286,2.129654066704648
2.183021381876168,-1.9558133393120534,3.115630556711068,0.5603775791243965,-8.392229879798867,1.6728726977736394
2.1634632484830476,-2.039735638110042,3.1212343325023117,0.5771063061021329,-8.335786103653007,1.1935135266275607
2.143065892101947,-2.123093499146572,3.1270053955633332,0.5890414413684085,-8.285711473595184,0.6918828488083186
2.1218349571104813,-2.205950613882524,3.1328958099770174,0.5959602698564918,-8.243582634283634,0.16818982356565904
2.099775450971656,-2.28838644022536,3.1388554126755825,0.5976421680921483,-8.210933652045444,-0.3774929471193958
2.0768915865694026,-2.370495776745815,3.144831834356504,0.5938672386209544,-8.189226183363841,-0.9452637019187418
2.0531866288019445,-2.4523880385794534,3.150770506742713,0.584414601601767,-8.179822072178794,-1.5354190072163276
2.02866274841615,-2.5341862593012414,3.156614652758731,0.5690604115296036,-8.183958577789767,-2.148473204041092
2.0033208858231375,-2.616025845079139,3.162305256874027,0.5475756794891927,-8.202726035332752,-2.785168961329909
1.977160627372346,-2.6980531054324666,3.1677810136689186,0.5197239898758936,-8.237047387886323,-3.446478405036009
1.9501800963180214,-2.78042357931133,3.1729782535676776,0.48525920582553356,-8.28765872470025,-4.133594520358915
1.9223758605249082,-2.863300166558332,3.177830845625933,0.4439232606219444,-8.355089725839141,-4.847912644303571
1.8937428588593248,-2.9468510638167236,3.1822700782321522,0.3954441341789087,-8.439642753651972,-5.591001879962664
1.8642743482211577,-3.0312474913532435,3.1862245195739414,0.3395341153792821,-8.541369244321876,-6.36456618677758
1.8339618733076253,-3.116661183796462,3.1896198607277344,0.27588845351150626,-8.660042034137621,-7.170394756571766
1.8027952614696607,-3.2032616041378383,3.1923787452628494,0.2041845059457886,-8.795122301204458,-8.010301104387302
1.7707626454282823,-3.291212827149883,3.194420590322307,0.12408149490191557,-8.945719913026636,-8.886050122205457
1.7378505171567835,-3.3806700262801495,3.195661405271326,0.03522099367986099,-9.110546147296025,-9.799272202527819
1.704043816893982,-3.4717754877531095,3.1960136152081247,-0.0627717283454172,-9.287858006431293,-10.751363480943532
1.669326062016451,-3.5646540678174223,3.1953858979246705,-0.17028536315485251,-9.475393690686705,-11.743371318699587
1.6336795213382767,-3.6594080047242894,3.193683044293122,-0.2877190763418484,-9.6702992494381,-12.775864396928654
1.5970854412910338,-3.7561109972186704,3.1908058535297035,-0.41547772031113495,-9.869047017627777,-13.84878727358403
1.5595243313188472,-3.8548014673949482,3.186651076326592,-0.5539655930469752,-10.067347185642525,-14.96130001015865
1.5209763166448977,-3.9554749392513733,3.1811114203961224,-0.7035785931485617,-10.26005476191112,-16.11160454821325
1.481421567252384,-4.058075486870484,3.1740756344646366,-0.8646946386306943,-10.441075272261736,-17.296760930092706
1.4408408123836791,-4.162486239593101,3.1654286880783298,-1.0376622479316213,-10.603273783346012,-18.51249821161084
1.3992159499877481,-4.268518977426561,3.1550520655990137,-1.2227872300477296,-10.738393196734307,-19.753026964552767
1.3565307602134824,-4.375902909393904,3.1428241932985364,-1.4203174996932573,-10.836989158685078,-21.01086251760461
1.3127717311195433,-4.484272800980755,3.1286210183016037,-1.6304261248693033,-10.888390252398901,-22.276670375351404
1.2679290031097357,-4.593156703504745,3.1123167570529104,-1.8531928286228174,-10.880693231664717,-23.53914735783657
1.2219974360746881,-4.701963635821392,3.0937848287666823,-2.088584302201183,-10.800803736612911,-24.784953630615153
1.1749777997164743,-4.809971673187521,3.0728989857446702,-2.3364338385073347,-10.634533016689904,-25.998711628676134
1.126878082984599,-4.91631700335442,3.049534647359597,-2.596420954794096,-10.366760511418406,-27.163087615887903
1.0777149129510548,-5.019984608468604,3.023570437811656,-2.8680518309529752,-9.981670609728228,-28.25897004897146
1.0275150668663688,-5.119801314565887,2.9948899195021266,-3.1506415314426897,-9.463069531009834,-29.265755978045547
0.97631705372071,-5.214432009875985,2.9633835041876995,-3.443299091223145,-8.794785179184323,-30.161752589175222
0.9241727336219502,-5.302379861667828,2.928950513275468,-3.7449166171148973,-7.961149263728403,-30.924696106067394
0.8711489350052719,-5.381991354305112,2.891501347104319,-4.054163578175571,-6.9475572615639045,-31.532385252536585
0.8173290214622208,-5.451466926920751,2.850959711322563,-4.3694874307009375,-5.741098151426057,-31.963422033789573
0.7628143521930133,-5.508877908435012,2.8072648370155537,-4.689121651038834,-4.331242308560098,-32.19804925210663
0.7077255731086631,-5.552190331520612,2.7603736205051654,-5.0111021435599,-2.7105721487051073,-32.21907200383836
0.652203669793457,-5.579296053007663,2.7102625990695666,-5.333292863598284,-0.8755352472056345,-32.01284877564753
0.5964107092633804,-5.58805140547972,2.6569296704335836,-5.653421351354759,1.1728074522262437,-31.57033523832327
0.5405301952085831,-5.576323330957457,2.600395456920036,-5.969124703737992,3.428076324150578,-30.888158404078208
0.4847669618990086,-5.542042567715952,2.540704209882656,-6.278006287778775,5.87796343067495,-29.969688440651765
0.42934653622184904,-5.483262933409202,2.477924147004868,-6.577703172185292,8.503789781952415,-28.826059042599343
0.374513906887757,-5.398225035589678,2.412147115283015,-6.865963762611286,11.28032009934992,-27.47706585145387
0.3205316565318602,-5.285421834596178,2.343487477656902,-7.140734421125825,14.175940984729896,-25.95185003664121
0.26767743818589845,-5.14366242474888,2.2720801334456437,-7.400252921492237,17.153312401123355,-24.289258144432477
0.21624081393840966,-4.972129300737646,2.1980776042307215,-7.643145502936562,20.170587285967724,-22.53776939970858
0.1665195209310332,-4.770423427877969,2.121646149201356,-7.868523196933648,23.183254136342313,-20.75490747338824
0.11881528665225352,-4.5385908865145455,2.0429609172320196,-8.076072271667531,26.146591917250344,-19.00611137502224
0.07342937778710806,-4.277124967342042,1.9622001945153442,-8.266133385417753,29.01864294495187,-17.363128363303254
0.030658128113687642,-3.986938537892523,1.8795388606611667,-8.439764669050785,31.763523364828433,-15.902099826479208
-0.00921125726523759,-3.6693033042442385,1.7951412139706588,-8.598785667315576,34.354824339383185,-14.70161949741215
-0.04590429030767997,-3.3257550608504065,1.709153357297503,-8.745801862289698,36.77883189741201,-13.841128392489578
-0.07916184091618403,-2.9579667418762865,1.621695338674606,-8.884213146214593,39.03732323393883,-13.400051290554583
-0.10874150833494689,-2.567593509536898,1.53285320721246,-9.01821365912014,41.14977992097458,-13.45806257188111
-0.13441744343031586,-2.1560957103271523,1.4426710706212587,-9.15279428483895,43.15497061410421,-14.096790504665611
-0.15597840053358739,-1.7245460041861103,1.3511431277728692,-9.293762189885607,45.11194860512666,-15.403121492460656
-0.17322386057544847,-1.2734265181348436,1.2582055058740131,-9.447793404810213,47.10049827497346,-17.47400850993961
-0.1859581257567969,-0.802421535385109,1.163727571825911,-9.622533489909609,49.22079366619786,-20.42217775663374
-0.193982341110648,-0.31021359872313037,1.067502236926815,-9.826755267475946,51.59117678923466,-24.380966373032877
-0.1970844770978793,0.20569816916921624,0.9692346842520555,-10.070564931206274,54.34077768834763,-29.50370545550241
-0.19502749540618713,0.7491059460526925,0.8685290349399928,-10.365601985761298,57.588428161109384,-35.94614896033953
-0.18753643594566022,1.3249902276637864,0.7648730150823798,-10.725063475364694,61.38693930092827,-43.803782366818304
-0.17428653366902236,1.938859620673069,0.6576223803287329,-11.163101299032878,65.5839693039556,-52.937538860927916
-0.15489793746229166,2.594699313712625,0.5459913673384041,-11.692476687642158,69.49529141435075,-62.543648395084475
-0.1289509443251654,3.2896522278561324,0.4290666004619826,-12.317913171593002,71.2152994231447,-70.21962772980508
-0.09605442204660408,4.0018052220875795,0.30588746874605255,-13.020109448891052,66.50228041931472,-70.41836954401153
-0.05603636982572829,4.666828026280727,0.17568637425714204,-13.724293144331167,48.34021099402223,-53.762778642571114
-0.009368089562921018,5.150230136220949,0.03844344281383036,-14.261920930756878,11.521056079211547,-13.15225488644941
0.042134211799288473,5.265440697013064,-0.10417576649373841,-14.393443479621371,-35.28577140794032,39.96981479335261
0.09478861876941912,4.912582982933661,-0.24811020128995212,-13.993745331687846,-69.72175122517464,76.18356016594011
0.14391444859875574,4.215365470681915,-0.38804765460683055,-13.231909730028445,-81.58980883800106,83.03638326722906
0.18606810330557488,3.3994673823019044,-0.520366751907115,-12.401545897356154,-79.41183017410708,72.78115453591401
0.22006277712859393,2.6053490805608335,-0.6443822108806766,-11.673734351997014,-72.92060339596938,58.38068114598257
0.24611626793420227,1.8761430466011397,-0.7611195544006467,-11.089927540537188,-66.45360874624942,45.23444979622897
0.2648776984002137,1.2116069591386456,-0.8720188298060186,-10.637583042574898,-61.16410495446003,34.5492717289456
0.27699376799160014,0.5999659095940453,-0.9783946602317676,-10.292090325285441,-57.09177314655472,26.18241480502355
0.2829934270875406,0.029048178128498026,-1.081315563484622,-10.030266177235205,-53.99251040789135,19.719794831964226
0.2832839088688256,-0.5108769259504156,-1.1816182252569742,-9.833068228915563,-51.594107178961686,14.780012367310938
0.27817513960932144,-1.0268179977400325,-1.2799489075461299,-9.685268105242454,-49.65968859869694,11.071967020421841
0.2679069596319211,-1.5234148837270018,-1.3768015885985545,-9.574548435038235,-47.995391157592465,8.386410833628316
0.2526728107946511,-2.0033687953029267,-1.472547072948937,-9.490684326701953,-46.44492235614931,6.574747577011186
0.23263912284162183,-2.4678180188644196,-1.5674539162159564,-9.424936850931841,-44.883227082469034,5.529041203614584
0.20796094265297763,-2.9166502896891098,-1.6617032847252748,-9.369646438895696,-43.21211389668343,5.165968709422488
0.17879443975608653,-3.3487714286559442,-1.7553997491142317,-9.317986751801472,-41.35790622843628,5.414644849810049
0.14530672546952708,-3.762350490940307,-1.8485796166322463,-9.263840303303372,-39.270416388365135,6.207811209729621
0.107683220560124,-4.155054654823958,-1.9412180196652802,-9.201762191206075,-36.922401803797946,7.475997352728311
0.06613267401188441,-4.5242786728619375,-2.033235641577341,-9.127002217678791,-34.30874872322687,9.144389533122842
0.02088988728326504,-4.867366160094206,-2.1245056637541286,-9.035558322347564,-31.44482947963176,11.132146789934282
-0.02778377431767702,-5.181814454890524,-2.214861246977604,-8.924236854448221,-28.363754914419225,13.353789346863646
-0.07960191886658226,-5.465452004034716,-2.304103615522086,-8.790698960979585,-25.112550251704715,15.722112508707783
-0.1342564389069294,-5.716577506551763,-2.392010605131882,-8.633477835892506,-21.74756110516404,18.151933116896096
-0.19142221397244702,-5.934053117603404,-2.478345383490807,-8.451958504723546,-18.329585012889034,20.563926473255986
-0.25076274514848107,-6.117348967732294,-2.5628649685380425,-8.246319239990987,-14.919282408764461,22.88789404556071
-0.311936234825804,-6.266541791819939,-2.6453281609379524,-8.01744029953538,-11.573346132859127,25.065002581185233
-0.3746016527440034,-6.38227525314853,-2.7255025639333064,-7.766790273723528,-8.341735608279782,27.048799807374643
-0.4384244052754887,-6.465692609231327,-2.8031704666705415,-7.496302275649781,-5.266069135862229,28.80507058540579
-0.503081331367802,-6.51835330058995,-2.8781334894270394,-7.208251569795723,-2.3790747068672196,30.310790650577076
-0.5682648643737015,-6.5421440476586215,-2.9502160051249966,-6.9051436632899525,0.29513246114692676,31.552532011612342
-0.6336863048502877,-6.539192723047152,-3.019267441757896,-6.589618343173829,2.740233888946973,32.52467599022251
-0.6990782320807591,-6.511790384157682,-3.0851636251896344,-6.264371583271603,4.946630600405234,33.22772153730548
-0.7641961359223359,-6.46232407815363,-3.1478073410223506,-5.932094367898548,6.910325802313176,33.66687229609304
-0.8288193767038723,-6.393220820130498,-3.2071282847013363,-5.595425644937618,8.631912420962895,33.85097779649048
-0.8927515849051773,-6.306901695920869,-3.2630825411507125,-5.2569158669727125,10.115735289593061,33.791814585743595
-0.955820601864386,-6.205744343024938,-3.3156516998204397,-4.918997721115277,11.369237147382186,33.503633330510944
-1.0178780452946354,-6.0920519715511166,-3.3648416770315923,-4.5839613878101675,12.402457472233845,33.00286991679388
-1.0787985650101466,-5.968027396828778,-3.410681290909694,-4.253932688642228,13.227633730177875,32.30791800618371
-1.1384788389784344,-5.8357510595269995,-3.4532206177961164,-3.930853508580391,13.858852456720047,31.438879745255093
-1.1968363495737044,-5.697162534959799,-3.4925291528819202,-3.6164647111278403,14.311707493945145,30.41724169614493
-1.2538079749233024,-5.5540454600203475,-3.5286937999931984,-3.312292294166391,14.602939106813265,29.265456416591515
-1.3093484295235058,-5.4080160689522145,-3.5618167229348625,-3.019637730000476,14.750045564901171,28.006439879392065
-1.363428590213028,-5.260515613303203,-3.592013100234867,-2.7395733312065556,14.770874233645296,26.663016658939267
-1.4160337463460602,-5.112806870966749,-3.6194088335469328,-2.472943164617163,14.683209873724755,25.257356480334643
-1.4671618150557277,-4.965974772229502,-3.6441382651931042,-2.2203695998138167,14.504382803775538,23.810447488755763
-1.5168215627780228,-4.820930944191747,-3.6663419611912422,-1.982265124926259,14.250919232150832,22.34164531861387
-1.5650308722199402,-4.678421751870238,-3.6861646124405048,-1.7588486717401204,13.938251688290045,20.86832556698789
-1.6118150897386425,-4.539039234987338,-3.7037530991579057,-1.5501654160702414,13.58050077796098,19.40565366565884
-1.6572054820885158,-4.403234227207728,-3.719254753318608,-1.3561088794136529,13.190332121619164,17.966473055180643
-1.701237824360593,-4.271330905991536,-3.732815842112745,-1.1764441488618465,12.778885648754047,16.561301856698467
-1.7439511334205084,-4.143542049503996,-3.7445802836013633,-1.0108311302948618,12.355769262071833,15.198420869116108
-1.7853865539155485,-4.019984356883278,-3.754688594904312,-0.8588469216037007,11.929105606497984,13.884031839194611
-1.8255863974843813,-3.900693300818298,-3.763277064120349,-0.7200066032117546,11.505619230150021,12.62246412748327
-1.8645933304925644,-3.7856371085167977,-3.7704771301524667,-0.5937819619369219,11.090751497053489,11.416409372465122
-1.9024497015777324,-3.674729593546263,-3.776414949771836,-0.4796178682122707,10.688791772868681,10.267166700054766
-1.939196997513195,-3.567841675817576,-3.7812111284539585,-0.37694620121172306,10.303015214097579,9.174884672184255
-1.974875414271371,-3.4648115236766004,-3.7849805904660756,-0.2851973544898805,9.93581956867104,8.138789917731346
-2.009523529508137,-3.36545332798989,-3.7878325640109742,-0.203809455312567,9.588855457006094,7.157395834272066
-2.043178062788036,-3.269564773419829,-3.7898706585640998,-0.13223549696984632,9.263146462779956,6.22868766003361
-2.075873710522234,-3.1769333087920293,-3.7911930135337983,-0.06994862036951022,8.959196923820976,5.350282502815153
-2.107643043610154,-3.0873413395538196,-3.7918924997374934,-0.016445795341358684,8.677086543817495,4.519564585649599
-2.1385164570056925,-3.0005704741156447,-3.792056957690907,0.028749850515137308,8.416551857534785,3.733797095867131
-2.168522161746849,-2.9164049555402967,-3.7917694591857556,0.06608782147380862,8.177055213996512,2.9902127014362945
-2.197686211302252,-2.8346344034003317,-3.7911085809710174,0.09598994848817156,7.957842342919024,2.2860851289238875
-2.2260325553362557,-2.7550559799711416,-3.790148681486136,0.11885079977741043,7.7579897903349675,1.618784277165162
-2.253583115135967,-2.677476082067792,-3.788960173488362,0.13503864254906206,7.576443596215543,0.9858172520234616
-2.280357875956645,-2.6017116461056364,-3.787609787062871,0.14489681506929666,7.412050579226793,0.38485751651195027
-2.3063749924177013,-2.5275911403133686,-3.7861608189121783,0.14874539023441616,7.263583522768046,-0.18623589270178617
-2.331650903820835,-2.4549553050856883,-3.784673365009834,0.1468830313073983,7.129761445795014,-0.7294073905361496
-2.356200456871692,-2.383657690627738,-3.78320453469676,0.1395889574020368,7.009266008769489,-1.2464006690176952
-2.380037033777969,-2.313565030540043,-3.78180864512274,0.12712495071185986,6.900754961350183,-1.7387601078592623
-2.4031726840833696,-2.244557480926541,-3.7805373956156214,0.10973734963326724,6.802873392218354,-2.2078367485579617
-2.425618258892635,-2.1765287470043577,-3.7794400221192888,0.08765898214768762,6.7142633980979145,-2.6547979685195564
-2.4473835463626785,-2.1093861130233784,-3.778563432297812,0.061111002462492056,6.633572652242655,-3.0806401148763065
-2.4684774074929123,-2.0430503865009517,-3.777952322273187,0.03030460131372899,6.559462225101655,-3.486203449468389
-2.4889079113579218,-1.977455764249935,-3.7776492762600493,-0.0045574331809549,6.490613893736642,-3.8721888223126015
-2.508682469000421,-1.9125496253125687,-3.777694850591859,-0.04327932140408092,6.425737073852963,-4.239175537347301
-2.5278079652535466,-1.848292254574039,-3.7781276438058997,-0.08567107677755392,6.363575420910838,-4.587639908387295
-2.546290887799287,-1.7846565003649306,-3.778984354573675,-0.13154747586142687,6.302913076419701,-4.917974032022289
-2.564137452802936,-1.7216273696007336,-3.7802998293322894,-0.18072721618164977,6.242580483542183,-5.230504333964156
-2.5813537264989437,-1.6592015647653118,-3.782107101494106,-0.23303225952129134,6.181459663306501,-5.525509481237816
-2.597945742146597,-1.5973869681322468,-3.784437424089319,-0.2882873543336695,6.118488828971175,-5.803237298164917
-2.613919611827919,-1.536202079842535,-3.7873202976326557,-0.3463197273153186,6.0526662203057375,-6.06392038096386
-2.6292816326263444,-1.4756754176394777,-3.790783494905809,-0.40695893112495723,5.983053059535565,-6.307790173626329
-2.6440383868027393,-1.415844887044122,-3.7948530842170585,-0.47003683286122055,5.9087755631715835,-6.535089344245757
-2.6581968356731807,-1.3567571314124063,-3.7995534525456707,-0.5353877263036781,5.829025984747058,-6.7460823822522125
-2.6717644069873048,-1.2984668715649357,-3.8049073298087075,-0.6028485501262003,5.743062707888623,-6.941064417987834
-2.684749075702954,-1.2410362444860494,-3.8109358153099695,-0.6722591943060786,5.650209452276168,-7.1203683411453875
-2.6971594381478146,-1.1845341499632878,-3.81765840725303,-0.7434628777175325,5.549853692317774,-7.28437035835157
-2.7090047796474472,-1.12903561304011,-3.8250930360302053,-0.8163065813010482,5.441444415950713,-7.433494177985749
-2.720295135777848,-1.0746211688806029,-3.8332561018432156,-0.8906415230809057,5.324489366168623,-7.568214038941665
-2.7310413474666544,-1.0213762752189166,-3.8421625170740246,-0.9663236634703224,5.1985519093392485,-7.68905680799407
-2.7412551102188436,-0.9693907561255242,-3.8518257537087277,-1.043214231550263,5.063247662274346,-7.7966033582045515
-2.750949017780099,-0.9187582795027807,-3.8622578960242304,-1.1211802651323086,4.918240985938023,-7.891489410774464
-2.7601366005751267,-0.8695758696434004,-3.8734696986755535,-1.2000951592400533,4.763241420459697,-7.974405978949591
-2.7688323592715607,-0.8219434554388034,-3.885470650267954,-1.2798392190295491,4.598000097490306,-8.046099500221946
-2.7770517938259487,-0.7759634544639004,-3.8982690424582493,-1.3603002140317686,4.4223061261409855,-8.107371688016595
