th1 (rad),w1 (rad/s),th2 (rad),w2 (rad/s),a1 (rad/s^2),a2 (rad/s^2)
5.483540050480812,0.345807058663694,4.359538601632593,-1.9458892188955716,3.651038590965068,7.72654992922841
5.486998121067449,0.38231744457334466,4.340079709443637,-1.8686237196032875,3.8320789677636036,7.685703556799924
5.490821295513182,0.4206382342509807,4.321393472247604,-1.7917666840352884,4.004004153783461,7.6589919238865685
5.495027677855692,0.46067827578881526,4.303475805407252,-1.7151767647964227,4.166903653911009,7.6465033629110595
5.49963446061358,0.5023473123279254,4.286324037759288,-1.638711731167312,4.320882306044035,7.648306367010986
5.504657933736859,0.5455561353883658,4.2699369204476145,-1.5622286674972021,4.4660503150202855,7.664450874121185
5.510113495090743,0.5902166385385686,4.254314633772642,-1.4855841587559904,4.60251448903723,7.694967999623119
5.516015661476128,0.6362417834289409,4.239458792185083,-1.4086344787597591,4.730370382262776,7.739868536342443
5.522378079310418,0.6835454872515686,4.225372447397485,-1.3312357933963348,4.849695114098969,7.799140456320659
5.529213534182933,0.7320424383925583,4.212060089463522,-1.2532443888331282,4.960540689104204,7.872745584732232
5.536533958566858,0.7816478452836004,4.19952764557519,-1.1745169329858058,5.062927685010522,7.960615568576445
5.544350437019694,0.8322771221337056,4.187782476245332,-1.0949107773000413,5.156839212098671,8.06264722825831
5.552673208241031,0.8838455142546924,4.176833368472332,-1.0142843050174581,5.24221507742734,8.178697356532185
5.561511663383578,0.9362676650289657,4.166690525422157,-0.9324973314521363,5.318946113661031,8.308577014743648
5.570874340033868,0.989457126165576,4.157365552107636,-0.8494115613046999,5.386868655777913,8.452045369552373
5.580768911295523,1.0433258127233551,4.148871436494589,-0.7648911076091761,5.445759170766354,8.608803113380496
5.591202169422757,1.0977834044310186,4.141222525418497,-0.6788030764753712,5.495329066307145,8.778485517991701
5.602180003467067,1.15273669509409,4.1344344946537435,-0.5910182212954542,5.535219724958247,8.960655182326564
5.613707370418008,1.2080888923436726,4.128524312440789,-0.5014116694721886,5.564997830898828,9.154794552568433
5.625788259341444,1.2637388706526609,4.123510195746068,-0.4098637239465043,5.5841510770651315,9.360298314004185
5.638425648047971,1.3195803814233122,4.119411558506603,-0.31626074080646244,5.592084361566941,9.576465780176644
5.651621451862204,1.3755012250389818,4.116248951098538,-0.22049608300469598,5.58811660347984,9.802493434635112
5.665376464112594,1.4313823910737802,4.114043990268491,-0.12247114865834485,5.571478329151442,10.037467813696226
5.679690288023331,1.4870971743652945,4.112819278781908,-0.022096470521382583,5.541310200535154,10.280358954286521
5.694561259766984,1.542510276370646,4.112598314076694,0.08070711902148263,5.496662676068741,10.530014668207516
5.709986362530691,1.5974769031313334,4.113405385266908,0.1860072657035578,5.436497011339758,10.7851559418687
5.725961131562004,1.6518418732447309,4.115265457923944,0.2938588251222448,5.3596878201171805,11.04437379724636
5.742479550294451,1.7054387514459026,4.118204046175166,0.4043025630947084,5.265027424977442,11.306127983862332
5.75953393780891,1.7580890256956772,4.122247071806114,0.5173638429333317,5.151232229241579,11.568747901005654
5.777114828065867,1.809601347988093,4.127420710235447,0.6330513219433882,5.016951336656976,11.830436172096013
5.795210841545748,1.8597708613546629,4.133751223454881,0.7513556836643484,4.860777630495395,12.089275306701229
5.813808550159294,1.9083786376596168,4.141264780291525,0.8722484367313607,4.681261497753848,12.343237887871945
5.83289233653589,1.9551912526371553,4.149987264658839,0.9956808156100801,4.476927345221364,12.590200710745153
5.852444249062262,1.999960526089369,4.15994407281494,1.1215828227175317,4.246293000705847,12.827963270502416
5.872443854323155,2.042423456096427,4.171159901042116,1.249862455422556,3.987892023288831,13.054270951681811
5.89286808888412,2.0823023763293156,4.183658525596341,1.380405164939374,3.700298859969546,13.266843204818038
5.913691112647413,2.1193053649290112,4.197462577245735,1.5130735969875544,3.3821566817431146,13.4634069091836
5.934884166296703,2.1531269317464425,4.21259331321561,1.6477076660793903,3.0322076098091344,13.641735011395289
5.956415435614168,2.183449007844534,4.229070389876404,1.7841250161933433,2.6493249026448957,13.799690398951213
5.978249925692613,2.209942256870983,4.246911640038338,1.9221219201828554,2.232546518321061,13.935274816397058
6.000349348261323,2.2322677220541935,4.266132859240166,2.061474668346826,1.7811092958967603,14.046682461904267
6.022672025481865,2.250078815013161,4.286747605923634,2.2019414929658687,1.2944828184394797,14.132357717033424
6.045172813631996,2.263023643197556,4.308767020853293,2.3432650701362028,0.7724018330912958,14.19105626745226
6.067803050063972,2.270747661528469,4.332199671554655,2.4851756328107255,0.21489591732777347,14.221908674491988
6.090510526679257,2.2728966207017467,4.357051427882762,2.6273947195556455,-0.3776850961848546,14.22448526619696
6.113239492886274,2.269119769739898,4.383325375078319,2.7696395722176153,-1.004651580101294,14.198861044317104
6.135930690583673,2.259073253938885,4.411021770800495,2.9116281826607864,-1.664962225327763,14.145679165998102
6.158521423123062,2.2424236316856074,4.440138052627103,3.0530849743207673,-2.3572216485779167,14.066211474397164
6.180945659439918,2.218851415199828,4.470668902370311,3.193747089064739,-3.0796893484433663,13.962414542562431
6.203134173591916,2.1880545217153946,4.502606373260958,3.333371234490363,-3.8303017969331026,13.836979782999585
6.22501471880907,2.1497515037460637,4.535940085605862,3.471741032320359,-4.606709294974107,13.69337638495605
6.246512233846531,2.1036844107963226,4.570657495929066,3.6086747961699195,-5.406328961924708,13.535886193864654
6.267549077954494,2.0496211211770756,4.606744243890764,3.744033658108566,-6.226414869076298,13.369630158389013
6.288045289166265,1.9873569724863127,4.64418458047185,3.8777299596924557,-7.064145872493103,13.200586646496651
6.307918858891128,1.9167155137613816,4.682961880068775,4.0097358261574225,-7.9167311680426895,13.035602765613525
6.327086014028742,1.8375482020809546,4.723059238330349,4.140091853813558,-8.78153300618343,12.88240078741185
6.345461496049552,1.7497328720191203,4.764460156868485,4.268915861687676,-9.656205395074329,12.749582825673935
6.362958824769743,1.653170818068377,4.807149315485362,4.396411689944415,-10.538847011796658,12.646637965968285
6.379490532950427,1.5477823479504105,4.851113432384806,4.522878069604098,-11.428165935832835,12.583956977343199
6.3949683564299304,1.433500688592082,4.896342213080847,4.64871763937753,-12.323653172472891,12.57286036698324
6.409303363315852,1.3102641568673532,4.942829389474622,4.774446243047363,-13.225761114476207,12.625645589094601
6.422406004884525,1.1780065457225912,4.990573851905095,4.900702698938309,-14.136081811544395,12.75565824097261
6.4341860703417515,1.0366457276071472,5.039580878894478,5.028259281348035,-15.057517627949718,12.977389323037917
6.444552527617823,0.8860705513276501,5.089863471707958,5.1580331745784145,-15.994432566640555,13.306594811676641
6.4534132331311,0.7261262256612446,5.141443803453742,5.291099122695181,-16.952764444929294,13.760422613144588
6.460674495387712,0.5565985812119517,5.194354794680694,5.428703348826627,-17.940063097533987,14.357511371528442
6.466240481199832,0.37719795023661185,5.24864182816896,5.572278462541911,-18.965392381758605,15.117988337253994
6.470012460702198,0.1875440264190258,5.304364612794379,5.723458345914451,-20.038984391520295,16.063226634239836
6.471887900966388,-0.012845817496177164,5.361599196253524,5.884090612256849,-21.17144630762763,17.2151029486405
6.471759442791426,-0.22456028057245347,5.420440102376092,6.056241641743254,-22.372165242603558,18.594285256499084
6.4695138399857015,-0.44828193299848906,5.481002518793524,6.242184494308245,-23.6462872171034,20.2167103010356
6.465031020655717,-0.6847448051695231,5.543424363736606,6.444351597318601,-24.98919086978308,22.086778604059056
6.458183572604022,-0.9346367138673539,5.607867879709792,6.665219383359192,-26.376642443974355,24.184764555034484
6.448837205465349,-1.1984031383070974,5.674520073543384,6.907067028909537,-27.74775059669024,26.44441525697752
6.436853174082278,-1.4758806442739998,5.743590743832479,7.171511181479312,-28.97664743514116,28.714948515804167
6.422094367639538,-1.7656471186254115,5.8153058556472725,7.458660666637354,-29.828680322673108,30.701222173688123
6.404437896453284,-2.0639339218521426,5.889892462313646,7.765672888374236,-29.901656208635206,31.881984648662147
6.383798557234762,-2.3629504839384947,5.967549191197388,8.084492734860858,-28.571659034692026,31.431713703965503
6.360169052395377,-2.648667074285415,6.048394118545996,8.398809871900513,-25.010287233273832,28.236402421366552
6.3336823816525225,-2.8987699466181533,6.132382217265001,8.681173896114178,-18.41033521893131,21.190956600319055
6.304694682186341,-3.0828732988074665,6.219193956226143,8.893083462117369,-8.54603473309829,9.953122132633926
6.2738659491982665,-3.1683336461384495,6.308124790847317,8.992614683443708,3.536250958194311,-4.122392141224091
6.242182612736882,-3.1329711365565065,6.398050937681754,8.951390762031467,15.483955951957267,-17.943194433203775
6.210852901371317,-2.9781315770369337,6.487564845302069,8.77195881769943,24.829098495240014,-28.29660931434878
6.1810715856009475,-2.7298405920845337,6.575284433479063,8.488992724555942,30.434590398655875,-33.78445741979231
6.153773179680102,-2.425494688097975,6.660174360724622,8.151148150358019,32.71041341134405,-35.06618056593569
6.129518232799122,-2.0983905539845344,6.741685842228202,7.800486344698662,32.76638028591091,-33.683958925515505
6.108534327259277,-1.7707267511254252,6.819690705675189,7.463646755443507,31.634042759967226,-31.021874911990473
6.0908270597480225,-1.4543863235257528,6.894327173229624,7.153428006323602,29.99828536355178,-27.970356644792314
6.076283196512765,-1.154403469890235,6.96586145329286,6.873724439875679,28.23595781451566,-24.999054596923923
6.064739161813863,-0.8720438917450783,7.034598697691617,6.62373389390644,26.52635872741478,-22.31583214332985
6.056018722896412,-0.6067803044709306,7.100836036630682,6.400575572473142,24.940009697158295,-19.989298337339264
6.049950919851702,-0.3573802074993476,7.164841792355413,6.200682589099749,23.492995032947587,-18.021638833150217
6.046377117776709,-0.12245025716987176,7.226848618246411,6.020466200768247,22.176514725412726,-16.386972321544718
6.04515261520501,0.09931489008425551,7.287053280254093,5.8565964775528,20.971947880733993,-15.050068352368726
6.0461457641058525,0.3090343688915954,7.345619245029621,5.706095794029112,19.858171270353346,-13.974839259010436
6.049236107794768,0.5076160815951288,7.402680202969912,5.566347401439008,18.814925740857667,-13.127781044011323
6.05431226861072,0.6957653390037055,7.458343676984303,5.435069590998895,17.824226408735388,-12.479029486977547
6.061269922000757,0.8740076030910594,7.512694372894291,5.310279296129119,16.87083223295042,-12.002357648778814
6.070009998031668,1.0427159254205636,7.5657971658555825,5.190255719641331,15.942280563401555,-11.674757522586225
6.080437157285873,1.2021387310545792,7.617699723051996,5.073508144415468,15.028732946899993,-11.475908129989488
6.092458544596419,1.3524260605235792,7.668434804496151,4.958749063115573,14.122748437172092,-11.387665205496198
6.105982805201655,1.4936535448953001,7.718022295127307,4.844872411060611,13.219036405048973,-11.393626614914877
6.120919340650608,1.62584390894579,7.766471019237913,4.730936144911462,12.314209897593908,-11.478789083151447
6.137177779740066,1.748986007921729,7.813780380687027,4.616148254079948,11.406546441807889,-11.629293963918796
6.154667639819283,1.863051472339808,7.859941863227827,4.49985531444076,10.495757422089246,-11.832251980641072
6.173298154542681,1.9680090465607005,7.904940416372234,4.381532794634349,9.582765468164762,-12.075633890817997
6.1929782450082875,2.063836701242348,7.948755744318578,4.26077645572617,8.669489438670556,-12.348213369050116
6.213616612020711,2.1505315956290536,7.991363508875839,4.137294322035668,7.758637411271816,-12.639548886194639
6.235121927977001,2.228117969741772,8.032736452096195,4.010898833173722,6.853508992433771,-12.939992436990082
6.257403107674419,2.2966530596661094,8.072845440427932,3.881498908803821,5.957808945292796,-13.240714377880433
6.28036963827108,2.3562311491190373,8.11166042951597,3.749091765025017,5.075474484651991,-13.533735242459386
6.30393194976227,2.4069858939655573,8.149151347166221,3.6137544126004233,4.210518589962964,-13.811957107911798
6.328001808701925,2.449091079865187,8.185288891292226,3.4756348415213054,3.3668913873946846,-14.069188807775834
6.352492719500577,2.482759993739134,8.220045239707439,3.334942953443547,2.5483611303284657,-14.300160944953593
6.377320319437969,2.5082436050424186,8.253394669241874,3.191941343994011,1.75841565506187,-14.500528183343368
6.402402755488393,2.525827761593037,8.285314082681815,3.046936062160577,1.0001844926705954,-14.666857630794457
6.427661033104323,2.535829606519743,8.31578344330342,2.9002674858526327,0.276381152322863,-14.79660323416762
6.45301932916952,2.5385934180429715,8.344786118161947,2.7523014535109565,-0.41073549044160734,-14.888066974608169
6.47840526334995,2.5344860631385555,8.372309132697056,2.6034207837648746,-1.0593822324694828,-14.940348283172147
6.503750123981336,2.523892240813861,8.398343340534705,2.454017300933153,-1.668256877150561,-14.953283514865651
6.528989046389474,2.507209672042355,8.422883513544036,2.3044844657844963,-2.236529942218737,-14.927377554178783
6.554061143109897,2.484844372620168,8.445928358201881,2.1552106902427086,-2.7638249161463246,-14.863729712791049
6.578909586836099,2.457206123458705,8.467480465104307,2.006573393114798,-3.2501892406445485,-14.763956055145384
6.603481648070686,2.4247042310522593,8.487546199035455,1.8589338325633442,-3.696058125909275,-14.630110180880969
6.627728690381209,2.3877436497931663,8.506135537361088,1.7126327307545346,-4.102213180417102,-14.464604329800833
6.651606126879141,2.3467215179889953,8.523261864668633,1.5679866874565263,-4.469737674903425,-14.270132474251593
6.675073342059031,2.302024141239961,8.538941731543199,1.4252853627140103,-4.799970073855101,-14.04959683940838
6.69809358347143,2.25402444050141,8.553194585170338,1.2847893943199264,-5.094457267457532,-13.806039053982522
6.720633827876444,2.2030798678268346,8.566042479113538,1.1467290037801012,-5.354908729946606,-13.542576889817665
6.7426646265547125,2.1495307805273685,8.57750976915134,1.0113032348819246,-5.5831526224695285,-13.262347304944182
6.764159934359986,2.093699254302673,8.587622801500158,0.8786797618324829,-5.781094654517342,-12.96845626666684
6.785096926903013,2.0358883077575,8.596409599118482,0.7489951991658145,-5.950680321812285,-12.663935604776064
6.805455809980589,1.9763815045393769,8.60389955111014,0.6223558431180538,-6.093860953897718,-12.351706935450242
6.825219625025983,1.9154428950003997,8.610123109541322,0.4988387737635514,-6.212563834920939,-12.034552508874476
6.8443740539759865,1.8533172566511902,8.615111497278956,0.3784932486748066,-6.308666509095508,-11.715092672251153
6.862907226542498,1.790230591560235,8.618896429765705,0.26134232195229506,-6.383975250330399,-11.395769507762283
6.880809532458101,1.726390839056931,8.621509852985229,0.14738462687467224,-6.440207564990108,-11.07883610379114
6.898073440848671,1.6619887634070298,8.622983699253975,0.036596265836760844,-6.478978508297935,-10.766350847440984
6.914693328482741,1.5971989783240506,8.623349661912343,-0.071067242637649,-6.50179052821768,-10.4601760857811
6.930665318265982,1.5321810730418737,8.622638989485967,-0.17566900349546,-6.510026504627189,-10.161980489746146
6.945987128996401,1.4670808079956017,8.620882299451013,-0.27728880839292147,-6.504945624420475,-9.87324446471349
6.960657937076356,1.402031351751397,8.618109411367085,-0.3760212530400564,-6.487681722522529,-9.59526798137956
6.97467825059387,1.3371545345261717,8.614349198836685,-0.47197393285385203,-6.459243722037672,-9.32918024528178
6.988049795939132,1.272562097305795,8.609629459508147,-0.5652657353066698,-6.420517821121693,-9.075950678836639
7.000775416912189,1.208356919094578,8.60397680215508,-0.6560252420950362,-6.372271096961608,-8.836400752038347
7.012858986103135,1.1446342081249619,8.59741654973413,-0.7443892496154196,-6.315156225940342,-8.611216263396463
7.024305328184385,1.0814826458655584,8.589972657237976,-0.8305014122493842,-6.2497170514142,-8.400959738257301
7.03512015464304,1.0189854753514165,8.581667643115482,-0.9145110096319572,-6.176394764638778,-8.206082674929904
7.0453100093965535,0.9572215277050287,8.572522533019162,-0.9965718363812562,-6.095534498710035,-8.026937428196243
7.054882224673603,0.8962661827179284,8.56255681465535,-1.0768412106632186,-6.007392168775586,-7.863788573547441
7.063844886500783,0.8361922610301725,8.551788402548718,-1.155479096398693,-5.912141423395353,-7.716823643047149
7.072206809111084,0.777070846796219,8.540233611584732,-1.2326473328291645,-5.809880601280153,-7.586163164661059
7.079977517579047,0.7189720407834175,8.52790713825644,-1.308508964475775,-5.700639614472089,-7.471869971082451
7.087167237986881,0.6619656446386966,8.514822048611682,-1.3832276641865995,-5.584386703342706,-7.373957771605621
7.093786894433268,0.6061217776052695,8.500989771969817,-1.4569672419026558,-5.461035030755864,-7.292399001647843
7.099848112209321,0.5515114272977109,8.48642009955079,-1.5298912319191342,-5.330449102717033,-7.227131979331555
7.1053632264822975,0.4982069362705405,8.471121187231597,-1.6021625517124498,-5.192451021291943,-7.178067407316164
7.110345295845003,0.4462824260576211,8.455099561714473,-1.6739432257856115,-5.0468265931368625,-7.145094260920864
7.11480812010558,0.3958141601262525,8.438360129456617,-1.7453941683948202,-4.893331334379912,-7.128085100455125
7.118766261706842,0.34688084678245334,8.420906187772669,-1.8166750193993715,-4.731696430710668,-7.12690083629649
7.122235070174667,0.29956388247534665,8.402739437578676,-1.8879440277623365,-4.561634731428341,-7.141394959058671
7.12523070899942,0.2539475351610633,8.383859997301052,-1.9593579773529233,-4.382846879140047,-7.17141722323259
7.127770184351031,0.21011906636966282,8.364266417527523,-2.031072149585249,-4.195027704347977,-7.216816739540301
7.129871375014728,0.16816878932618307,8.34395569603167,-2.103240316980652,-3.9978730482466633,-7.27744438689745
7.13155306290799,0.12819005884371643,8.322923292861864,-2.1760147608496263,-3.7910872200894152,-7.353154396552353
7.132834963496427,0.09027918664282228,8.301163145253367,-2.2495463048151496,-3.574391350528729,-7.443804884914727
7.133737755362856,0.054535273137534986,8.278667682205215,-2.323984353664297,-3.3475329732595096,-7.549257012839806
7.134283108094231,0.021059943404939892,8.255427838668572,-2.3994769237926947,-3.1102972589978397,-7.6693723211963425
7.13449370752828,-0.010043029185038507,8.231433069430645,-2.476170647004658,-2.862520444494278,-7.8040076270160545
7.13439327723643,-0.038668233629981286,8.206671362960599,-2.5542107232748186,-2.6041061526375318,-7.953006650665555
7.1340065949001294,-0.06470929515635661,8.18112925572785,-2.633740789781474,-2.3350454972697325,-8.116187268812341
7.133359501948566,-0.08805975012905393,8.154791847830035,-2.7149026624695973,-2.055442119565463,-8.293322933880413
7.132478904447275,-0.10861417132470856,8.127642821205338,-2.7978358918084014,-1.7655436250247873,-8.484116348415963
7.131392762734028,-0.12626960757495642,8.099664462287254,-2.882677055292561,-1.4657812958443848,-8.688162909815684
7.130130066658278,-0.14092742053340027,8.07083769173433,-2.9695586843907176,-1.156820456885151,-8.904900723698463
7.1287207924529445,-0.1524956251022518,8.041142104890422,-3.058607691627702,-0.8396244852241305,-9.13354310220721
7.127195836201922,-0.1608918699544931,8.010556027974145,-3.1499431226497743,-0.5155361738905503,-9.3729884068581
