th1 (rad),w1 (rad/s),th2 (rad),w2 (rad/s),a1 (rad/s^2),a2 (rad/s^2)
2.356971858427943,1.7443104660789697,4.577248121999398,-0.1686953816349545,-5.763233266366411,3.802066279368904
2.374414963088733,1.6866781334153056,4.575561168183048,-0.13067471884126547,-5.58091688523918,4.120703184327128
2.391281744422886,1.6308689645629137,4.574254420994635,-0.08946768699799419,-5.408478257875912,4.421945040645375
2.4075904340685153,1.5767841819841546,4.573359744124655,-0.04524823659154044,-5.244570014183397,4.706909174313148
2.423358275888357,1.5243384818423207,4.57290726175874,0.0018208551515910484,-5.087884110583218,4.976654586960179
2.43860166070678,1.4734596407364884,4.572925470310256,0.05158740102119284,-4.937158882494863,5.232177213040786
2.4533362571141453,1.4240880519115398,4.573441344320468,0.1039091731516007,-4.791183507169519,5.474409247880347
2.4675771376332607,1.3761762168398446,4.574480436051984,0.15865326563040416,-4.648800529161936,5.704221454205004
2.481338899801659,1.3296882115482251,4.576066968708289,0.2156954801724542,-4.508906954381679,5.922427580228599
2.4946357819171414,1.2845991420044083,4.578223923510013,0.2749197559747402,-4.370454298943286,6.12979020543311
2.5074817733371857,1.2408945990149753,4.580973121069761,0.33621765802907133,-4.232447882681819,6.3270274771413595
2.5198907193273357,1.1985701201881571,4.5843352976500515,0.39948793280048495,-4.0939455809230845,6.514820317903836
2.5318764205292172,1.1576306643789263,4.588330176978056,0.4646361359795233,-3.9540561888037544,6.693819776103255
2.5434527271730065,1.1180901024908887,4.592976538337852,0.5315743337405558,-3.811937507351269,6.864654264803361
2.5546336281979154,1.079970727417376,4.598292281675257,0.6002208763885895,-3.666794227243039,7.027936490762898
2.5654333354720893,1.0433027851449457,4.604294490439143,0.6705002412962184,-3.517875662615644,7.184269920006636
2.575866363323539,1.0081240285187891,4.610999492852105,0.7423429404962848,-3.364473371769056,7.334254661036972
2.5859476036087266,0.9744792948010985,4.618422922257068,0.8156854871066546,-3.205918692688598,7.478492673743497
2.5956923965567373,0.9424201078742125,4.626579777128135,0.8904704138440895,-3.041580217829746,7.617592232885376
2.6051165976354795,0.9120043056959151,4.635484481266576,0.9666463361729433,-2.8708612336430783,7.752171590823841
2.6142366406924387,0.8832956933594843,4.6451509446283055,1.0441680520811816,-2.6931971551152443,7.8828617957628655
2.6230695976260336,0.8563637218083319,4.655592625149117,1.1229966700388103,-2.508052993588026,8.010308629626788
2.631633234844117,0.8312831918724516,4.666822591849505,1.2030997563350783,-2.3149209068532364,8.135173634151009
2.6399460667628416,0.8081339828039192,4.678853589412856,1.2844514926765884,-2.113317893691538,8.258134194897815
2.648027406590881,0.7870008038670039,4.691698104339621,1.3670328346255665,-1.902783710419445,8.379882650716315
2.655897414629551,0.7679729667628095,4.7053684326858765,1.4508316611327297,-1.6828791045149156,8.501124390534862
2.663577144297179,0.7511441757176603,4.719876749297204,1.5358429050380782,-1.4531844799686922,8.62257489014496
2.671088586054356,0.7366123309179734,4.735235178347585,1.6220686539395277,-1.213299130677448,8.744955628628691
2.6784547093635354,0.7244793396111989,4.751455864886981,1.7095182102258146,-0.9628412020155638,8.868988807139901
2.6856995027596473,0.7148509275910433,4.768551046989239,1.7982080982972137,-0.7014485667640054,8.995390771777258
2.6928480120355576,0.7078364419234032,4.786533127972211,1.8881620060149864,-0.4287808298757377,9.12486401730252
2.6999263764547914,0.7035486336246458,4.805414748032361,1.9794106461880117,-0.14452270706992534,9.258087619650745
2.706961862791038,0.7021034065539465,4.8252088544942415,2.071991522384519,0.15161094523535923,9.395705912992126
2.7139828968565776,0.7036195160063001,4.845928769718086,2.1659485815144404,0.4598681370877286,9.53831519233093
2.7210190920166406,0.7082181973771774,4.867588255533231,2.26133173343775,0.7804504429649503,9.686448186535268
2.7281012739904122,0.7160227018068269,4.890201572867608,2.3581962153031024,1.113501010249325,9.840556011195549
2.7352615010084804,0.7271577119093202,4.913783535020639,2.456601775415058,1.4590894668644423,10.000987278566896
2.7425330781275736,0.7417486065779646,4.938349552774789,2.556611648200727,1.8171932918386307,10.167964016917383
2.7499505641933535,0.7599205394963509,4.963915669256797,2.658291288369901,2.187675198432181,10.341554039131088
2.757549769588317,0.7817972914806727,4.9904985821404955,2.761706828761212,2.5702560824143728,10.521639407391245
2.765367742503124,0.8074998523048164,5.018115650428108,2.8669232228351245,2.9644831165409995,10.707880676286768
2.773442741026172,0.8371446834702263,5.046784882656459,2.974002029597992,3.3696926372320832,10.899676672297137
2.7818141878608746,0.8708416098425471,5.076524902952439,3.0829987963209633,3.784967584731322,11.096119697611238
2.7905226039593,0.9086912856898604,5.107354890915649,3.1939599932970757,4.209089440575657,11.295946247770546
2.7996095168161985,0.9507821800956169,5.139294490848619,3.306919455774781,4.640484875944147,11.497483625473997
2.809117338617155,0.9971870288550584,5.172363685406367,3.421894292029521,5.077167703728563,11.698593238683175
2.8190892089057056,1.047958705892344,5.206582628326662,3.538880224416353,5.516677239355451,11.896611911828934
2.829568795964629,1.1031254782858986,5.241971430570826,3.657846343534642,5.956014842407192,12.088293233811399
2.840600050747488,1.1626856267099706,5.278549894006172,3.7787292758727564,6.391581249329674,12.269751828024985
2.8522269070145874,1.2266014392032674,5.316337186764899,3.9014267941530063,6.819118321811729,12.436414456893257
2.86449292140662,1.2947926224213846,5.35535145470643,4.025790938721939,7.233660010743176,12.582983043417638
2.877440847630834,1.3671292225288163,5.395609364093649,4.151620769156115,7.629498626495608,12.703415949251228
2.891112139856122,1.4434242087937723,5.43712557178521,4.278654928648628,8.000173824291728,12.790935091945869
2.9055463819440597,1.5234259470366895,5.479912121071696,4.406564279568086,8.33849291489353,12.838067555403766
2.9207806414144266,1.6068108761856248,5.523977763867377,4.534944955122124,8.636591986596729,12.836731023789417
2.9368487501762828,1.693176796051592,5.569327213418598,4.663312265360018,8.886047597092146,12.778372361074238
2.953780518136799,1.7820372720225135,5.615960336072198,4.79109598897076,9.078048127629476,12.654167625533262
2.971600890857024,1.8728177532988082,5.663871295961905,4.917637665226092,9.203631924152962,12.455289395332166
2.9903290683900123,1.9648540725403378,5.713047672614166,5.042190559179414,9.253995747648696,12.173243181101034
3.0099776091154156,2.057394030016825,5.76346957820596,5.163922990990424,9.220871602554066,11.800268749255153
3.0305515494155837,2.1496027460423655,5.815108808115864,5.281925678482976,9.096962719396362,11.329794467785149
3.0520475768760074,2.240572373236329,5.867928064900694,5.3952236231608275,8.876420693987988,10.75692377956375
3.0744533006083707,2.329336580176209,5.921880301132302,5.502792860956465,8.555336329241477,10.078923528264937
3.0977466664101327,2.4148899434686237,5.976908229741866,5.603582096239114,8.132207851990838,9.295675488932032
3.121895565844819,2.496212021988532,6.032944050704257,5.696538851128434,7.608343528080299,8.410046804631245
3.1468576860647044,2.5722954572693353,6.089909439215542,5.780639319174746,6.988153057770835,7.428133878295687
3.1725806406373978,2.642176987847044,6.14771583240729,5.854920657957703,6.279285050114903,6.35933904233615
3.199002410515868,2.704969838348193,6.206265038986866,5.9185140483810645,5.49257721462849,5.216250643905727
3.22605210889935,2.759895610494478,6.265450179470677,5.9706765548201215,4.641801444299215,4.0143144618768165
3.253651065004295,2.80631362493747,6.325156945018878,6.01081969943889,3.7432061617005097,2.77130569035511
3.2817142012536697,2.8437456865544752,6.385265142013267,6.038532756342441,2.8148804230020072,1.5066330204337743
3.3101516581192145,2.8718944907844954,6.445650469576692,6.053599086546779,1.8759848469017508,0.24052599171712744
3.3388706030270594,2.890654339253513,6.5061864604421595,6.05600434646395,0.9459099788046029,-1.006829630682186
3.3677771464195945,2.900113439041559,6.566746503906799,6.0459360501571275,0.04343054552732266,-2.2161385136877794
3.39677828081001,2.900547744496832,6.627205864408371,6.02377466502025,-0.8140770228990929,-3.3697584483454865
3.4257837582549784,2.8924069742678413,6.6874436110585735,5.990077080536795,-1.6112959521666725,-4.452325114484826
3.4547078279976566,2.8762940147461746,6.747344381863941,5.945553829391947,-2.3354674880506354,-5.4512026476611535
3.4834707681451182,2.852939339865668,6.806799920157861,5.8910418029153355,-2.976703863803542,-6.356743883620472
3.512000161543775,2.8231723012276326,6.865710338187014,5.827474364079131,-3.528113239624578,-7.162363563546576
3.540231884556051,2.7878911688313868,6.923985081827806,5.755850728443665,-3.9857512842953575,-7.864443907119152
3.568110796244365,2.7480336559884333,6.981543589112243,5.6772062893724735,-4.348427010857467,-8.46210326119309
3.595591132804249,2.704549385879859,7.038315652005967,5.592585256760542,-4.617398217585841,-8.956864538969517
3.6226366266630476,2.6583754037040004,7.0942415045735725,5.503016611370847,-4.795994534974052,-9.35226129653574
3.6492203807000876,2.61041545835426,7.1492716706872805,5.409493998405489,-4.889204451129992,-9.653416552561135
3.67532453528363,2.56152341384296,7.203366610671336,5.312959832879878,-4.903257976801801,-9.866624102753285
3.70093976942206,2.512490834074942,7.256496209000135,5.214293591852345,-4.845230102663987,-9.998955362409808
3.726064677762809,2.4640385330483023,7.308639144918658,5.114304038228247,-4.722683054151779,-10.057907747469516
3.750705063093292,2.4168117025067843,7.35978218530094,5.013724960753552,-4.543358468339333,-10.05110405955646
3.7748731801183597,2.371378117823391,7.409919434908476,4.913213920157988,-4.314924610377685,-9.986046765365915
3.7985869612965937,2.328228871719614,7.459051574110056,4.8133534525043284,-4.044778938636417,-9.869926689651367
3.8218692500137896,2.28778108233325,7.507185108635099,4.714654185607815,-3.739902811549286,-9.70948250843714
3.844747060837122,2.250382054217757,7.554331650491177,4.617559360523443,-3.40676283334893,-9.510905433052587
3.8672508813792996,2.216314425884268,7.600507244096411,4.522450306192917,-3.051252087597049,-9.279782436175699
3.889414025638142,2.1858019050082973,7.64573174715834,4.429652481831161,-2.678664087448247,-9.021071076812174
3.911272044688225,2.159015264133815,7.690028271976652,4.339441771063039,-2.293692454685628,-8.739099222378329
3.932862197329563,2.1360783395869585,7.733422689687282,4.252050778839256,-1.9004499206812875,-8.437583555814337
3.9542229807254325,2.1170738403801455,7.775943197475675,4.167674943281113,-1.5025010507126315,-8.11966154012091
3.975393719129234,2.102048829873019,7.8176199469084855,4.086478327879903,-1.1029039966475191,-7.787932374218212
3.9964142074279643,2.091019789906544,7.858484730187285,4.0085990041377215,-0.7042574876431003,-7.444503329019131
4.01732440532703,2.083977215030113,7.898570720228662,3.93415397084753,-0.3087501126125443,-7.09103864687078
4.038164177477332,2.0808897139039875,7.9379122599371374,3.8632435843788224,0.08179030354334065,-6.728808890235323
4.058973074616372,2.081707616939421,7.976544695780926,3.7959554954764694,0.465848791295865,-6.358739223302383
4.079790150785766,2.0863661048523796,8.01450425073569,3.7323681032434455,0.8421778338284358,-5.9814556019396665
4.10065381183429,2.094787883190664,8.051827931768125,3.672553547224049,1.2097550928309326,-5.597328239537453
4.121601690666196,2.1068854341189733,8.088553467240367,3.6165802648286745,1.5677445648285813,-5.206512019796149
4.142670545007386,2.1225628797672593,8.124719269888653,3.564515144630713,1.915461231565374,-4.808983755167183
4.163896173805059,2.141717492082913,8.16036442133496,3.516425307079041,2.2523390972522352,-4.4045763545567675
4.185313348725888,2.1642408830554354,8.19552867440575,3.4723795435334734,2.577902389502005,-3.9930100783142755
4.206955757556442,2.1900199069504556,8.230252469841085,3.4324494427503307,2.89173962786785,-3.5739211333479677
4.228855956625947,2.218937303229134,8.264576964268588,3.396710231416851,3.193480224197764,-3.1468879057021306
4.251045329658238,2.2508721054711116,8.298544066582757,3.36524135235983,3.4827732644253593,-2.7114551496725583
4.273554050712949,2.2856998381153653,8.332196480106354,3.338126800863104,3.7592681255267952,-2.267156457519335
4.296411049094103,2.323292519370633,8.365577748114985,3.315455236287911,4.022596599271599,-1.813535326606413
4.31964397428781,2.363518485363349,8.398732300477864,3.297319883021847,4.272356222448467,-1.3501651246508881
4.343279159141443,2.406242047587834,8.431705499308082,3.283818231775338,4.508094548886107,-0.8766682309313399
4.367341579617321,2.451322993076695,8.464543681625836,3.2750515494660246,4.729294140105885,-0.39273460312542874
4.391854809548088,2.498615934477754,8.497294197120496,3.2711242034347703,4.935358097808412,0.1018600134618521
4.416840968892865,2.547969515455838,8.530005439154843,3.272142803569389,5.125596012103713,0.6072360551264421
4.442320664047424,2.5992254755768753,8.562726867190538,3.2782151641206534,5.29921025432212,1.1233921510358378
4.468312918803193,2.6522175781200965,8.595509018831745,3.289449085631012,5.455282602534035,1.650187088778574
4.494835094584394,2.706770404145437,8.628403509688056,3.3059509565187977,5.592761251863482,2.1873217020259506
4.521902798625848,2.7626980166640718,8.661463019253244,3.327824173539057,5.7104483306628735,2.73432071187341
4.549529778792489,2.8198024999707005,8.694741260988634,3.3551673806577913,5.806988117943507,3.2905146265570537
4.577727803792196,2.8778723811501354,8.728292934795212,3.388072526923362,5.880856237301556,3.8550218879859974
4.606506527603697,2.936680943523151,8.762173660064445,3.426622745803222,5.930350187855206,4.426731548978791
4.6358733370389285,2.995984445401703,8.796439887522476,3.4708900612930096,5.953581662936103,5.004286873067153
4.665833181492945,3.055520262031064,8.831148788135406,3.520932930023681,5.9484712014329,5.58607036966036
4.696388384113256,3.115004974045393,8.866358117435643,3.5767936337202846,5.912745813013436,6.170190911109295
4.727538433853709,3.1741324321755275,8.902126053772847,3.6384955428313774,5.843940314259269,6.754473723866703
4.759279758175465,3.23257183531812,8.93851100920116,3.7060402800700443,5.739403204139312,7.336454201594034
4.791605476528646,3.289965867359513,8.97557141200186,3.7794048220859846,5.596307988844236,7.913376650493103
4.824505135202242,3.3459289472479554,9.01336546022272,3.858538588590916,5.411670930598736,8.482199241453825
4.857964424674721,3.4000456565539428,9.05195084610863,3.943360581005454,5.182376233290385,9.039606602826685
4.891964881240261,3.4518694188868464,9.091384451918685,4.033756647033721,4.9052096777131355,9.582031632198019
4.926483575429129,3.5009215156639777,9.131722018389022,4.129576963355701,4.576901666230365,10.10568822282879
4.961492790585769,3.546690532326281,9.173017788022579,4.230633845583989,4.194180513086624,10.60661667421225
4.996959695909032,3.5886323374571476,9.215324126478418,4.336700012326111,3.753836602006784,11.080743566410998
5.032846019283603,3.6261707034772153,9.25869112660168,4.447507447990221,3.2527977044744456,11.523957800440856
5.069107726318375,3.65869868052196,9.30316620108158,4.5627470259946294,2.688215286606644,11.932204314624748
5.105694713123595,3.6855808333880264,9.348793671341527,4.682069069140877,2.057561007554464,12.301596650340654
5.1425505214574745,3.706156443463571,9.395614362032935,4.805085035644284,1.3587318102807684,12.628549031662976
5.17961208589211,3.719743761566379,9.443665212389378,4.931370525960914,0.5901610182851357,12.909927919198937
5.216809523507774,3.7256453717492306,9.492978917648987,5.060469805152904,-0.24906831318194347,13.14322208795901
5.254065977225266,3.723154688617411,9.543583615700516,5.191902026032494,-1.1591128555944494,13.326729171631449
5.29129752411144,3.7115635600614665,9.595502635960841,5.325169317748808,-2.139267740130458,13.459755350504146
5.3284131597120545,3.690170882660162,9.64875432913833,5.45976687125385,-3.1878824233176046,13.542823517063248
5.365314868538656,3.658292058426986,9.703351997850868,5.595195106424482,-4.302302796734297,13.577883960200788
5.401897789122926,3.615269030459643,9.759303948915113,5.73097394602649,-5.478849598685409,13.568520546742409
5.438050479427522,3.560480534472789,9.816613688375378,5.866659151493914,-6.712843637691163,13.520144777128234
5.47365528477225,3.493352098095877,9.875280279890317,6.001860599265196,-7.998688108350529,13.440170214037286
5.508588805753209,3.413365217012372,9.935298885882968,6.136262301405569,-9.330017217003327,13.3381608985968
5.5427224579233325,3.3200650448423388,9.996661508897024,6.269643910391538,-10.6999183581251,13.225949715265376
5.5759231083717555,3.2130658612610876,10.059357948000939,6.401903407544191,-12.101232224868669,13.117726397826758
5.608053766984367,3.092053539012401,10.12337698207638,6.533080671522459,-13.526931669323538,13.030100004967146
5.638974302374491,2.9567842223191656,10.188707788791604,6.663381671572131,-14.970576158383201,12.982147071580629
5.668542144597683,2.8070784607353336,10.255341605507326,6.793203142287937,-16.4268347001975,12.995463873641583
5.696612929205036,2.6428101137333586,10.323273636930205,6.9231577810243525,-17.892066525503083,13.094248673459528
5.723041030342369,2.463889448478328,10.39250521474045,7.0541002677589475,-19.3649457559807,13.305446429742195
5.747679924827152,2.2702399909185207,10.46304621741804,7.18715473205637,-20.84711337016246,13.658992697807408
5.770382324736338,2.061768857216896,10.534917764738603,7.3237446590344435,-22.34383543313803,14.188192687779466
5.791000013308507,1.8383305028855157,10.608155211328947,7.465626585912238,-23.86463706531652,14.930260877083661
5.809383318337362,1.5996841322323505,10.68281147718807,7.614929194683075,-25.423859163168505,15.927016723259579
5.8253801596596855,1.3454455406006653,10.7589607691349,7.774199361915671,-27.041033729856107,17.225663638999315
5.838834615065692,1.0750352033021042,10.836702762754056,7.946455998305664,-28.74086256653255,18.87943182693142
5.849584967098713,0.7876265776367788,10.916167322737113,8.135250316574979,-30.55235077756843,20.94755915367052
5.857461232875081,0.48210306986109447,10.997519825902863,8.344725908111684,-32.50616708290836,23.493450839082914
5.862282263573691,0.15704139903201086,11.08096708498398,8.579660416502513,-34.628332857750536,26.578561871679764
5.863852677564012,-0.1892419295454945,11.166763689149006,8.845446035219311,-36.9264151105799,30.24693264751728
5.861960258268557,-0.5585060806512936,11.255218149501198,9.147915361694483,-39.36070149995691,34.49021432573026
5.856375197462044,-0.9521130956508628,11.346697303118143,9.492817504951786,-41.78626693637403,39.17380556792305
5.846854066505536,-1.369975765014603,11.44162547816766,9.884555560631016,-43.84229739588111,43.89094060298241
5.83315430885539,-1.808398738973414,11.54047103377397,10.32346496666084,-44.759716987772734,47.70251409689839
5.815070321465655,-2.2559959088511414,11.64370568344058,10.800490107629823,-43.09275420091332,48.76434412354358
5.792510362377144,-2.6869234508602746,11.751710584516879,11.28813354886526,-36.560491182602185,44.08615506112453
5.765641127868542,-3.0525283626862967,11.86459192000553,11.728995099476505,-22.642634545723745,30.293092805024422
5.735115844241679,-3.278954708143534,11.981881871000295,12.03192602752675,-0.8526384251150535,6.650926054245411
5.702326297160243,-3.287481092394685,12.102201131275564,12.098435288069203,24.358808173330747,-21.064154734185763
5.669451486236296,-3.0438930106613773,12.223185484156255,11.887793740727345,45.04806491572302,-42.5880720778129
5.639012556129682,-2.5934123615041473,12.342063421563529,11.461913019949215,56.45597065075575,-52.11427798415244
