th1 (rad),w1 (rad/s),th2 (rad),w2 (rad/s)
4.650042109407676,0.7453608884083502,1.4411118637583602,1.1091373607426396
4.657495718291759,0.8440312860097302,1.4522032373657865,1.1100332503695527
4.6659360311518565,0.9425543311419995,1.463303569869482,1.110591336958018
4.675361574463277,1.040935359081365,1.4744094832390622,1.1108128336468648
4.68577092805409,1.1391722899544072,1.4855176115755309,1.1106888133281916
4.697162650953635,1.2372535655478771,1.4966244997088127,1.110196708633029
4.709535186609114,1.3351561120721471,1.507726466795143,1.109296854563736
4.722886747729835,1.4328433352806007,1.5188194353407805,1.1079290853355739
4.737215181082641,1.5302631584676494,1.5298987261941361,1.1060094044454356
4.7525178126673175,1.6273461199149573,1.5409588202385904,1.1034267573770493
4.7687912738664675,1.7240035542942966,1.551993087812361,1.1000399495864601
4.7860313094094105,1.8201258922986159,1.5629934873082254,1.0956747683264048
4.804232568332397,1.9155811242395475,1.5739502349914896,1.0901213851919564
4.8233883795747925,2.0102134863167693,1.5848514488434091,1.083132136570584
4.84349051443796,2.1038424424092734,1.595682770209115,1.0744198008002446
4.864528938862053,2.1962620490707683,1.6064269682171175,1.063656512820855
4.886491559352761,2.287240806219919,1.617063533345326,1.0504734781049871
4.9093639674149605,2.37652210980951,1.627568268126376,1.0344616658634267
4.933129188513056,2.4638254342069734,1.6379128847850102,1.015173674592466
4.9577674428551255,2.548848379406351,1.648064621530935,0.9921269680347469
4.983255926649189,2.631269719395092,1.6579858912112824,0.9648086730706826
5.0095686238431405,2.710753580512522,1.667633977941989,0.9326821089887178
5.036676159648266,2.7869548596742426,1.6769607990318762,0.8951951758229293
5.064545708245008,2.8595259590431015,1.6859127507901055,0.8517906640130308
5.093140967835439,2.928124863533698,1.694430657430236,0.8019184553819132
5.122422216470777,2.9924245186834515,1.702449841984055,0.7450494648870304
5.152346461657611,3.052123378646482,1.7099003366329253,0.6806910251073823
5.182867695444076,3.106956889410261,1.716707246883999,0.608403246250069
5.213937264338179,3.156709555962567,1.7227912793464997,0.5278157038862117
5.245504359897805,3.2012271229570053,1.7280694363853617,0.4386436305925999
5.277516631127376,3.240428289264261,1.7324558726912878,0.3407026375691944
5.309920914020018,3.2743152938061804,1.7358628990669798,0.23392089350173653
5.34266406695808,3.3029826711336607,1.7382021080019971,0.11834766680604422
5.375693893669417,3.3266234972535873,1.7393855846700577,-0.005842783264005225
5.408960128641953,3.3455325416509294,1.7393271568374176,-0.13835278764438436
5.4424154540584615,3.3601059143834724,1.7379436289609738,-0.27876883486367243
5.476016513202296,3.370837040207765,1.7351559406123371,-0.4265752385402267
5.509724883604374,3.378309084848213,1.730890188226935,-0.5811735631694701
5.543507974452856,3.3831842703450454,1.7250784525952403,-0.7419070102542034
5.5773398171563064,3.386190808601236,1.7176593824926982,-0.9080885720112919
5.611201725242319,3.3881084163829374,1.7085784967725852,-1.0790314847198808
5.645082809406149,3.3897535202955464,1.6977881819253864,-1.2540804013109568
5.678980344609104,3.39196530000824,1.6852473779122767,-1.4326417718093927
5.7128999976091865,3.3955936533540325,1.6709209601941828,-1.6142121615215057
5.746855934142727,3.401490016394093,1.6547788385789677,-1.7984036159623018
5.7808708343066675,3.4105017668080717,1.6367948024193446,-1.9849656470996746
5.814975851974748,3.4234707182921493,1.616945145948348,-2.173803910856823
5.84921055915767,3.4412360145407686,1.5952071068397797,-2.364996120377124
5.883622919303077,3.4646415846628997,1.5715571456360085,-2.558806157444881
5.918269335149706,3.4945482479205707,1.5459690840615596,-2.7556976884835147
5.953214817628911,3.531850563091449,1.5184121071767245,-2.9563488621686904
5.9885333232598255,3.577498603433963,1.4888486185550376,-3.1616698753327683
6.024308309294165,3.6325249867940297,1.4572319198017099,-3.3728253569622164
6.060633559162105,3.6980776700177276,1.4235036662320877,-3.591263637700456
6.097614335862282,3.7754591663825328,1.387591029855083,-3.8187550061173323
6.135368927526107,3.8661728428026865,1.3494034797939098,-4.0574408777012305
6.174030655954134,3.97197655045073,1.3088290710168975,-4.309895109492392
6.213750421458641,4.094942515903966,1.2657301199219735,-4.579196791154086
6.254699846617681,4.237519071160065,1.2199381520104327,-4.869009238110589
6.297075037329282,4.402582118371152,1.1712480596293267,-5.183649425032079
6.341100858512994,4.593447371726965,1.1194115653790058,-5.528109033775229
6.387035332230264,4.813778421184584,1.0641304750412535,-5.907938782901094
6.43517311644211,5.067250697010916,1.0050510872122425,-6.328804080757491
6.485845623412219,5.3566814620617516,0.9417630464046676,-6.795311780457335
6.539412438032836,5.682060432231664,0.8738099286000942,-7.308323368450796
6.596233042355153,6.036508845749312,0.8007266949155862,-7.85939892424743
6.656598130812646,6.398991810497185,0.7221327056731119,-8.420721861333137
6.720588048917618,6.724185519514534,0.6379254870597806,-8.931033321440063
6.787829904112763,6.937038892127139,0.54861515384538,-9.288042941383571
6.857200293034034,6.9523548680870775,0.4557347244315442,-9.375604630033306
6.926723841714905,6.731464130585432,0.36197867813121115,-9.142351386176918
6.994038483020759,6.3253647814953045,0.270555164269442,-8.66104413167326
7.057292130835712,5.8360757133583325,0.1839447229527094,-8.074086001539927
7.115652887969295,5.345583944743164,0.10320386293731013,-7.494944563518171
7.169108727416727,4.892871373122105,0.02825441730212841,-6.977065634099821
7.218037441147948,4.4879046134765535,-0.04151623903886981,-6.533839674856698
7.262916487282713,4.127902097116049,-0.10685463578743679,-6.161293944519366
7.304195508253874,3.8061437771039754,-0.16846757523263045,-5.850252936095704
7.342256946024913,3.515549765994663,-0.2269701045935875,-5.591215920746788
7.37741244368486,3.249847000450538,-0.28288226380105536,-5.375907630313284
7.409910913689365,3.003802347771385,-0.3366413401041882,-5.197555014923478
7.439948937167079,2.7731423739448324,-0.388616890253423,-5.050743628091148
7.467680360906527,2.554394607633639,-0.4391243265343345,-4.931173163918055
7.493224306982864,2.3447313740822184,-0.48843605817351504,-4.835420349501282
7.516671620723685,2.141839488416056,-0.5367902616685278,-4.760738811712397
7.538090015607846,1.9438186924480698,-0.5843976497856518,-4.704898269481271
7.5575282025323265,1.749105370501784,-0.6314466324804645,-4.666057268336661
7.575019256237344,1.5564167840552356,-0.6781072051638312,-4.642662347549112
7.590583424077897,1.3647114101635966,-0.7245338286393223,-4.63336739190656
7.604230538179533,1.1731616985009126,-0.7708675025583879,-4.636968298644803
7.615962155164542,0.9811362445812166,-0.8172371855448359,-4.652349427974223
7.625773517610354,0.788188890660384,-0.8637606798245782,-4.678439453628814
7.633655406516958,0.5940526028762017,-0.9105450743608663,-4.714175175466765
7.63959593254572,0.39863616548642133,-0.9576868261155339,-4.758472620689106
7.643582294200584,0.2020218275712206,-1.005271552322425,-4.810205360809466
7.645602512476296,0.004462088377423651,-1.0533736059305197,-4.868190408804178
7.645647133360071,-0.1936261266633444,-1.1020555100185614,-4.931182318292379
7.643710872093437,-0.3916715059019919,-1.151367333201485,-4.997876155771157
7.639794157034417,-0.5889639413637722,-1.2013460947591967,-5.066919828363716
7.633904517620779,-0.7846765569816989,-1.2520152930428339,-5.136935807454316
7.626057752050962,-0.9778944315533409,-1.303384651117377,-5.2065516079150855
7.616278807735429,-1.1676494812091764,-1.3554501671965278,-5.274437524005054
7.604602312923337,-1.3529600905241563,-1.4081945424365783,-5.339349199789189
7.591072712018096,-1.5328732428039649,-1.4615880344344703,-5.4001717829916975
7.575743979590056,-1.7065062475649133,-1.5155897522643873,-5.455961856083456
7.558678917114407,-1.8730848416979922,-1.5701493708252219,-5.505983216723332
7.539948068697427,-2.0319745514003924,-1.6252092029924552,-5.549732984741775
7.519628323183423,-2.182702767101923,-1.680706532839873,-5.586955434891427
7.497801295512404,-2.3249699304125397,-1.7365760871887872,-5.617642269227167
7.474551596208278,-2.4586494029585455,-1.7927525098810588,-5.642019533544298
7.449965102178693,-2.5837767764470367,-1.849172705216502,-5.660522791683921
7.424127334414222,-2.7005303898547255,-1.905777933133341,-5.673763267073392
7.397122030515675,-2.8092054943901177,-1.962515565804075,-5.68248829025985
7.369029975571774,-2.910184783568665,-2.0193404487066733,-5.687539511018564
7.339928127736087,-3.0039079043115793,-2.076215843816859,-5.689812004548078
7.3098890486929715,-3.0908421717075574,-2.13311396386234,-5.69021675622419
7.278980626975896,-3.1714561448405783,-2.190016131424582,-5.689648209620635
7.24726606552749,-3.2461971042647306,-2.246912613520788,-5.688957757148295
7.214804094484842,-3.3154729000211574,-2.303802191092271,-5.688933352160286
7.18164936548463,-3.379638174143559,-2.3606915246138738,-5.690284887726916
7.147852983743195,-3.438984629831012,-2.417594373491143,-5.693634638132836
7.113463137444884,-3.4937348195012787,-2.4745307198724715,-5.699511879708421
7.078525789249872,-3.5440388367701585,-2.531525838669556,-5.708350764774084
7.04308540088217,-3.5899732960359794,-2.5886093463172966,-5.720490577014123
7.00718566792181,-3.631542040023907,-2.6458142520874377,-5.736177611593125
6.970870247521571,-3.668678106203537,-2.703176028203369,-5.755568068754574
6.934183466459536,-3.701246588763073,-2.7607317088909147,-5.778731503816466
6.897171000571905,-3.729048140766949,-2.8185190239290794,-5.805654525520864
6.859880519164236,-3.751822962992772,-2.876575569184288,-5.836244570948041
6.822362289534308,-3.769255217018207,-2.9349380148937683,-5.870333705351189
6.784669737364125,-3.7809778779193364,-2.99364135194728,-5.907682498531158
6.746859958584932,-3.7865781050602485,-3.0527181769325917,-5.947984116041988
6.708994177534329,-3.785603256740568,-3.1121980180930118,-5.990868833831574
6.671138144966924,-3.777567704413482,-3.1721067064313275,-6.035909238302145
6.633362467922789,-3.761960612643245,-3.232465798814349,-6.0826264084256385
6.5957428617963565,-3.7382548391629076,-3.293292062898605,-6.13049738937572
6.5583603134047275,-3.7059170722366326,-3.354597036792362,-6.1789642540212295
6.521301142682361,-3.6644192572636602,-3.4163866793325743,-6.227445005054725
6.484656950109724,-3.613251269657802,-3.4786611293831218,-6.2753464926087466
6.4485244374131465,-3.551934667341627,-3.5414145943092095,-6.322079407989553
6.4130050907397305,-3.4800372081145827,-3.604635388389105,-6.367075265149758
6.378204718658584,-3.3971876536646635,-3.6683061410406026,-6.409805104189243
6.344232842121937,-3.3030902171314858,-3.732404192082495,-6.449799457999946
6.311201939950623,-3.1975378636111693,-3.7969021866624946,-6.486668932902594
6.279226561314511,-3.0804235646589757,-3.8617688759915203,-6.520124590786075
6.248422325667921,-2.9517485608180007,-3.926970121899381,-6.5499972106864695
6.218904840059741,-2.811626718985066,-3.992470094006246,-6.576254477708293
6.190788572869891,-2.6602841945294964,-4.058232638783329,-6.599015216651425
6.164185730924595,-2.4980538201343587,-4.124222790949843,-6.618559966083432
6.139205192723252,-2.3253639287707566,-4.190408390610678,-6.635337471308445
6.115951553435544,-2.142721647514208,-4.256761765323763,-6.649967042104548
6.0945243369604025,-1.950691031749531,-4.323261435744808,-6.663237140659719
6.075017426642908,-1.7498667003764956,-4.389893807151405,-6.676100996523688
6.057518759639143,-1.5408438389041246,-4.456654817116642,-6.689670447968702
6.042110321250101,-1.3241855251997694,-4.523551521596329,-6.70520954992647
6.028868465998103,-1.1003882832202252,-4.590603617095594,-6.724129748980605
6.017864583165901,-0.8698465813580815,-4.6578449145854,-6.747988605153281
6.00916611735232,-0.6328166782935275,-4.725324800636933,-6.778494155696327
6.002837950569385,-0.3893798078966213,-4.793109742193897,-6.817517098319229
5.998944152490419,-0.13940422383950654,-4.861284913177089,-6.867113054766393
5.997550110252024,0.11749485568835047,-4.9299560437247525,-6.929557283277786
5.998725058808907,0.38199877834694784,-4.9992516165575305,-7.0073943245027905
6.002545046592377,0.6551340577702189,-5.069325559802558,-7.1035050840215
6.009096387170079,0.9383273950161919,-5.140360610642773,-7.221193473308177
6.0184796611202405,1.2334671947978375,-5.2125725453758545,-7.364293221754532
6.030814333068219,1.542968088797411,-5.2862154775934,-7.537291181796173
6.046244013956192,1.869826412138636,-5.361588389411361,-7.745452704448385
6.064942278077579,2.2176351003141352,-5.439042916455845,-7.994909398893937
6.08711862908072,2.590483417038155,-5.5189920104447845,-8.292612345858037
6.113023463251102,2.9925739385203323,-5.601918133903365,-8.645927937557804
6.142949202636305,3.427195464856125,-5.6883774132789435,-9.061387449268384
6.177221157284866,3.894316638556872,-5.778991287771627,-9.541581564360913
6.216164323670435,4.385473852578646,-5.874407103415237,-10.078356112140913
6.260019062196222,4.874243312157317,-5.975190664536646,-10.639884054972523
6.308761495317795,5.302714705615511,-6.081589505086371,-11.152031029394927
6.36178864237395,5.574936105106831,-6.19310981538032,-11.488908430245646
6.417538003425019,5.587066566895249,-6.307998899682777,-11.513419017879286
6.473408669093971,5.306511009630678,-6.42313308986157,-11.184503528285163
6.526473779190278,4.816141913261762,-6.534978125144422,-10.615657584097418
6.574635198322896,4.244174803055548,-6.641134700985396,-9.977749486984214
6.617076946353452,3.6785640425509256,-6.7409121958552385,-9.384009470247642
6.653862586778961,3.1548318168445117,-6.834752290557715,-8.87640058550236
6.685410904947406,2.6791179884071497,-6.923516296412738,-8.45837842323809
6.712202084831477,2.246460263715841,-7.008100080645119,-8.119768546570203
6.734666687468636,1.849212314883555,-7.089297766110821,-7.847799444996366
6.753158810617471,1.4800686952689812,-7.167775760560785,-7.630814531795457
6.7679594975701605,1.1329023819982165,-7.244083905878739,-7.459115414389481
6.779288521390143,0.8028389288242883,-7.318675060022634,-7.324858797698025
6.787316910678386,0.4861077566273636,-7.391923647999614,-7.221713497021805
6.792177988244659,0.17985779197531,-7.4641407829698325,-7.144510401166379
6.793976566164412,-0.11800570584519465,-7.5355858869814965,-7.088949252091356
6.79279650910596,-0.40895187644842407,-7.60647537950241,-7.051370198185666
6.788706990341476,-0.6939259200059518,-7.676989081484266,-7.028582131908157
6.781767731141416,-0.9734287342082615,-7.747274902803348,-7.017737233838739
6.772033443799334,-1.2475815790335443,-7.817452275141735,-7.016242471328018
6.759557628008999,-1.516181738239508,-7.887614699855015,-7.021700805430678
6.744395810626604,-1.7787538238868552,-7.957831707909322,-7.031876528530523
6.726608272387735,-2.0346000477096324,-8.028150473194627,-7.044680252253297
6.706262271910639,-2.2828515052990723,-8.09859727571716,-7.058169626748868
6.683433756857648,-2.522521294024582,-8.169178971984648,-7.070562028992504
6.658208543917402,-2.7525591422467643,-8.239884592274572,-7.080255376073792
6.630682952494935,-2.9719062286391535,-8.31068714603531,-7.085853077530299
6.6009638902085435,-3.1795481040310074,-8.381545676810612,-7.086189107943401
6.569168409168233,-3.374563183977517,-8.452407567890045,-7.0803493940388345
6.535422777328458,-3.5561642220873764,-8.523211061830434,-7.067686248708135
6.499861135107585,-3.7237305145650916,-8.593887924317515,-7.047823450914114
6.462623829961934,-3.8768292730773695,-8.664366158826656,-7.02065068866638
6.42385553723116,-4.015225522183446,-8.73457266571332,-6.986307310894365
6.383703282009325,-4.1388808752482396,-8.804435738822264,-6.945156499863538
6.342314473256843,-4.24794245777766,-8.873887303820899,-6.8977519147133215
6.299835048679066,-4.342723945517691,-8.942864822968032,-6.84479945142439
6.256407809223889,-4.423681085436557,-9.011312817482276,-6.787116967500723
6.2121709983695235,-4.491384152935315,-9.079183987157283,-6.7255946561417215
6.16725715684017,-4.546489607100147,-9.1464399337187,-6.661158307465605
6.121792260769169,-4.589712814656621,-9.213051516793355,-6.594737077347715
6.075895132622603,-4.621803214892214,-9.278998887566832,-6.527236714523988
6.02967710047368,-4.643522778992363,-9.344271254712073,-6.459518571322486
5.983241872683757,-4.655628145228988,-9.408866440425298,-6.392384208587153
5.936685591231467,-4.658856428024325,-9.47279028251117,-6.326565032888459
5.890097026951224,-4.653914421356866,-9.536055932840055,-6.262716176847873
5.843557882737656,-4.641470743297329,-9.598683094608534,-6.201413734086129
5.797143175304683,-4.6221503843082985,-9.660697231949396,-6.143154460977537
5.7509216714616,-4.596531107094307,-9.72212877655917,-6.088357127248267
5.704956360390657,-4.56514117918691,-9.783012347831653,-6.037364808247514
5.659304948598788,-4.528457982393079,-9.843385995914128,-5.9904475406908775
5.614020368774857,-4.48690712097885,-9.903290471321036,-5.947804894533293
5.569151297565068,-4.440861732601117,-9.96276852026637,-5.909568136225673
5.524742680239057,-4.390641786127089,-10.021864201628626,-5.87580176793489
5.480836262377786,-4.336513225452134,-10.080622219307974,-5.846504322251437
5.4374711301232646,-4.2786868875412996,-10.139087262530488,-5.821608374066268
5.394684261247852,-4.21731718711867,-10.19730334627115,-5.800979803934377
5.352511089376665,-4.152500621588148,-10.255313144310493,-5.784416414457245
5.310986083160784,-4.084274210081791,-10.313157308455066,-5.771646067255221
5.270143341059966,-4.012614041940838,-10.370873769127618,-5.762324576748582
5.230017200640558,-3.937434173576459,-10.428497014895104,-5.756033670941157
5.190642858904793,-3.8585861782711968,-10.486057351604515,-5.7522794096856416
5.152056997122081,-3.7758597187717164,-10.543580145701371,-5.750491535979878
5.114298399934364,-3.6889845724994657,-10.60108506106117,-5.750024320806463
5.077408554209369,-3.5976345856037186,-10.658585304269234,-5.750159537778161
5.041432208353332,-3.5014340530390466,-10.716086899647015,-5.750112256441831
5.006417867822941,-3.399967002124609,-10.773588022211433,-5.7490401536716895
4.972418197801695,-3.2927897791370424,-10.83107842374815,-5.746056988353968
4.939490300010325,-3.179447185051245,-10.88853899363169,-5.7402507413028365
4.907695828159813,-3.0594921643086845,-10.945941501044718,-5.730706668866518
4.877100906516726,-2.9325087156631926,-11.003248567733383,-5.716535143326132
4.847775819360094,-2.798137278540532,-11.060413919166644,-5.696903661689049
4.819794446574688,-2.656101384801427,-11.117382955783535,-5.67107182756568
4.793233432726674,-2.506233910709078,-11.174093674059192,-5.638427508962939
4.768171093619583,-2.348500894238143,-11.23047794914882,-5.598521836887265
4.744686084677202,-2.183020685823474,-11.286463167517693,-5.551100342709881
4.722855877818967,-2.010076255901387,-11.341974170944793,-5.496127441915185
4.702755115259953,-1.8301188399745012,-11.396935445363944,-5.433801735712856
4.684453926860209,-1.6437617605522452,-11.451273462721073,-5.364560242779206
4.6680163092546865,-1.4517641618160537,-11.504919065148865,-5.289070640991524
4.6534986676365255,-1.2550054052278405,-11.55780977155878,-5.20821176975202
4.640948613584247,-1.0544518434707126,-11.6098918892563,-5.123043840499058
4.63040409514954,-0.8511184548730518,-11.66112232766129,-5.034770834125847
4.62189291060081,-0.6460282556961391,-11.711470036002549,-4.944698266598997
4.615432628043848,-0.4401724536573217,-11.760917018668538,-4.854189782457909
4.611030903507275,-0.23447397966841185,-11.809458916493117,-4.76462588011427
4.6086861637105905,-0.02975641969064205,-11.85710517529426,-4.677367553648038
4.608388599513684,0.17328041043284775,-11.90387885083074,-4.593726879583706
4.610121403618012,0.37407781390072536,-11.949816119626577,-4.514945731365132
4.613862181757019,0.5722287791270699,-11.99496557694023,-4.442183004030562
