th1 (rad),w1 (rad/s),th2 (rad),w2 (rad/s),a1 (rad/s^2),a2 (rad/s^2)
2.8946860028543058,-0.5904062951287475,1.0170761692567585,0.22536422565611364,-3.80135059400282,-9.151418814864552
2.8887819399030183,-0.6284198010687757,1.0193298115133196,0.1338500375074681,-3.7966445267870257,-9.086898162053318
2.8824977418923305,-0.666386246336646,1.0206683118883944,0.04298105588693492,-3.805920016399731,-9.020766408018284
2.875833879428964,-0.7044454465006433,1.0210981224472637,-0.04722660819324792,-3.82893839070685,-8.952549285713541
2.8687894249639574,-0.7427348304077118,1.0206258563653312,-0.13675210105038332,-3.8654476316686845,-8.88175052718037
2.8613620766598804,-0.7813893067243987,1.0192583353548275,-0.22556960632218703,-3.9151807079737844,-8.807851081674455
2.8535481835926366,-0.8205411138041365,1.0170026392916056,-0.3136481171389316,-3.9778536005427725,-8.730307750993424
2.8453427724545954,-0.8603196498095642,1.0138661581202162,-0.40095119464886586,-4.053163054370946,-8.648551289401809
2.8367395759565,-0.9008512803532737,1.0098566461737275,-0.48743670754288393,-4.1407840869048425,-8.56198401914219
2.8277310631529673,-0.9422591212223221,1.0049822790982987,-0.5730565477343058,-4.240367281232375,-8.469977017242229
2.818308471940744,-0.9846627940346458,0.9992517136209557,-0.6577563179067281,-4.351535891951022,-8.37186693523054
2.8084618440003974,-1.028178152954156,0.9926741504418883,-0.7414749872590335,-4.473882792800694,-8.266952520492405
2.798180062470856,-1.072916980882163,0.985259400569298,-0.8241445124639575,-4.606967298138293,-8.154490916342334
2.7874508926620343,-1.118986653863546,0.9770179554446584,-0.9056894216273809,-4.750311895212273,-8.033693827452922
2.776261026123399,-1.1664897728156687,0.9679610612283847,-0.9860263599019101,-4.903398931078845,-7.903723648019217
2.764596128395242,-1.2155237621264572,0.9581007976293655,-1.0650635963821022,-5.065667306978746,-7.763689661877246
2.7524408907739777,-1.2661804351962447,0.9474501616655445,-1.1427004930008746,-5.236509244131133,-7.612644436608736
2.7397790864220153,-1.318545527637556,0.9360231567355358,-1.218826937366962,-5.415267198227919,-7.449580547260937
2.7265936311456396,-1.372698199619835,0.9238348873618663,-1.2933227428395715,-5.601231015408143,-7.27342777942117
2.7128666491494413,-1.4287105097739166,0.9109016599334705,-1.3660570206337832,-5.793635440074728,-7.0830509756381765
2.698579544051702,-1.4866468641746637,0.8972410897271327,-1.436887530390165,-5.991658104422896,-6.877248703082843
2.683713075409955,-1.5465634452188928,0.882872214423231,-1.5056600174209933,-6.1944181507218445,-6.654752933247343
2.6682474409577663,-1.6085076267261111,0.8678156142490211,-1.5722075467534666,-6.400975659855641,-6.414229935580172
2.652162364690505,-1.6725173833246676,0.8520935387814864,-1.6363498461092683,-6.610332082878835,-6.154282595232546
2.6354371908572585,-1.738620704153456,0.8357300403203938,-1.6978926720615937,-6.821431895719887,-5.873454369314576
2.6180509838157238,-1.806835023110655,0.8187511135997778,-1.7566272157547393,-7.033165719848438,-5.570235094748541
2.599982633584617,-1.8771666803091394,0.8011848414422305,-1.8123295667022248,-7.244375172710699,-5.243068852222665
2.5812109667815255,-1.9496104320362464,0.7830615457752083,-1.8647602552244513,-7.453859729849747,-4.890364072882986
2.561714862461163,-2.024149029334744,0.7644139432229637,-1.9136638959532812,-7.660385894504642,-4.510506044977708
2.5414733721678155,-2.1007528882797906,0.745277304263431,-1.9587689564030584,-7.862698978603479,-4.101871934162107
2.5204658432850175,-2.1793798780658253,0.7256896146994004,-1.9997876757446795,-8.059537799781186,-3.6628483708453468
2.4986720445043593,-2.2599752560636373,0.7056917379419536,-2.036416159453133,-8.24965259063949,-3.1918515779292873
2.476072291943723,-2.342471781970032,0.6853275763474223,-2.0683346752324256,-8.431826397209251,-2.687349909621981
2.4526475741240223,-2.4267900459421243,0.664644229595098,-2.0952081743286453,-8.604900211887337,-2.1478885438672948
2.428379673664601,-2.512839048060998,0.6436921478518115,-2.1166870597673184,-8.767802040706643,-1.5721159147679367
2.403251283183991,-2.6005170684680645,0.6225252772541383,-2.132408218914998,-8.919580044875767,-0.9588112851827555
2.3772461124993103,-2.689712868916822,0.6012011950649884,-2.1419963317668254,-9.059439822108853,-0.30691264229792475
2.350348983810142,-2.7803072671379105,0.5797812317473201,-2.1450654581898045,-9.186785805528046,0.3844561495135323
2.322545911138763,-2.872175125193191,0.558330577165422,-2.1412208966946693,-9.30126665962909,1.115960282081034
2.293824159886831,-2.9651877917894818,0.5369183681984753,-2.130061293873859,-9.402824448831604,1.888032669996735
2.2641722819689365,-3.059216036277798,0.5156177552597366,-2.1111809671738917,-9.491747252045368,2.700858319862653
2.2335801216061584,-3.1541335087982514,0.4945059455879977,-2.084172383975265,-9.568724807294931,3.5543667044558487
2.202038786518176,-3.2498207568712005,0.4736642217482451,-2.0486287169307067,-9.634906708389533,4.4482347750028906
2.169540578949464,-3.346169823955096,0.453177934578938,-2.0041463691806776,-9.69196265974818,5.381903559646072
2.136078880709913,-3.4430894505525775,0.43313647088713125,-1.9503273335842168,-9.742144348981881,6.354611579129224
2.1016479862043873,-3.5405108940423964,0.4136331975512891,-1.8867812177929246,-9.788348646933214,7.3654485457851395
2.066242877263963,-3.6383943805117287,0.3947653853733598,-1.8131267323350733,-9.834182121931287,8.41343298515731
2.0298589334588457,-3.7367362017310417,0.37663411805000907,-1.7289924024835002,-9.88402729070266,9.497617521627404
1.9924915714415352,-3.8355764746380685,0.3593441940251741,-1.634016227267226,-9.943111652667358,10.617225597547348
1.9541358066951546,-3.935007591164742,0.3430040317525018,-1.5278439712917526,-10.017581390842418,11.77182335424841
1.9147857307835072,-4.035183405073166,0.3277255920395843,-1.4101257377492686,-10.114582681178485,12.961530301665471
1.8744338967327756,-4.136329231884951,0.3136243346620916,-1.280510434732614,-10.24235481729192,14.187272242673785
1.833070604413926,-4.238752780057871,0.3008192303147655,-1.1386377123058762,-10.4103407681463,15.451079666221537
1.7906830766133472,-4.342856187739334,0.2894328531917067,-0.9841269156436608,-10.629322199769476,16.7564343589939
1.747254514735954,-4.4491494097370285,0.27959158403527007,-0.8165625720537218,-10.911587117515861,18.10866599298501
1.7027630206385838,-4.558265280912187,0.2714259583147329,-0.6354759121238718,-11.27113855475986,19.51539821461651
1.6571803678294619,-4.670976666459786,0.26507119919349414,-0.4403219299777067,-11.723951054068417,20.98703880429273
1.610470601164864,-4.78821617700047,0.2606679798937171,-0.23045154193477937,-12.288275956695289,22.5372978177255
1.5625884393948593,-4.911098936567423,0.2583634644743693,-0.005078563757524385,-12.984982686646703,24.183695432461878
1.513477450029185,-5.04094876343389,0.25831267883679404,0.2367583905670944,-13.83789346011703,25.947976207387676
1.4630679623948462,-5.17932769803506,0.260680262742465,0.49623815264097115,-14.874008013363772,27.856256828771198
1.4112746854144955,-5.328067778168697,0.2656426442688747,0.7748007209286831,-16.123393690605653,29.938558260628703
1.3579940076328085,-5.489301715074754,0.2733906514781615,1.0741863035349701,-17.6182781161607,32.22703042723063
1.303100990482061,-5.6654844962363615,0.2841325145135112,1.3964566078072764,-19.390419642792555,34.75151716559403
1.2464461455196973,-5.859388692664287,0.29809708059158396,1.7439717794632168,-21.464948545565772,37.5298560956106
1.1878522585930544,-6.074038178119944,0.3155367983862161,2.1192703404193227,-23.84723580225559,40.547997959477804
1.1271118768118549,-6.312510536142501,0.33672950179040934,2.5247503200141006,-26.496488176475506,43.721020535769625
1.0639867714504299,-6.577475417907256,0.36197700499055036,2.961960525371797,-29.275416546310332,46.82006481775563
0.9982120172713573,-6.870229583370359,0.39159661024426834,3.4301611735493536,-31.861025380101218,49.34441864365593
0.9295097214376538,-7.188839837171371,0.4258982219797619,3.923605359985913,-33.60619162841865,50.32512989671895
0.8576213230659401,-7.524901753455557,0.46513427557962106,4.426856658953103,-33.384533362894246,48.108305552562136
0.7823723055313845,-7.8587470870845,0.5094028421691521,4.907939714478724,-29.591887649971465,40.36719250607262
0.7037848346605395,-8.154665963584215,0.5584822393139394,5.31161163953945,-20.722610101523546,24.93967297851996
0.6222381750246974,-8.36189206459945,0.6115983557093339,5.561008369324649,-6.869493484870697,1.9861071618600283
0.5386192543787028,-8.430586999448158,0.6672084394025803,5.58086944094325,8.847846825832667,-23.953276935976152
0.45431338438422125,-8.342108531189831,0.7230171338120128,5.3413366715834885,21.51969409536026,-45.706740355311176
0.3708922990723229,-8.12691159023623,0.7764305005278477,4.884269268030376,28.175439773390124,-58.81366422232605
0.2896231831699606,-7.845157192502328,0.8252731932081514,4.2961326258071155,29.37554155564083,-63.874837387813905
0.21117161124493733,-7.55140177694592,0.8682345194662225,3.6573842519289763,27.35607844548389,-63.96922460649916
0.13565759347547812,-7.277840992491082,0.9048083619855123,3.0176920058639847,24.053272072284386,-61.827988746655535
0.0628791835505673,-7.037308271768238,0.9349852820441521,2.3994121183974295,20.57574193547786,-59.03919414734093
-0.00749389916711507,-6.831550852413459,0.9589794032281264,1.8090201769240202,17.42226031247526,-56.325960108281976
-0.07580940769124966,-6.657328249288707,0.9770696049973666,1.2457605758412003,14.769020208800574,-53.942110066536664
-0.14238269018413674,-6.509638047200701,0.9895272107557787,0.7063394751758336,12.648661449616249,-51.92460637573403
-0.20747907065614374,-6.383151432704539,0.996590605507537,0.18709341141849334,11.03887992836601,-50.22178535662336
-0.2713105849831891,-6.272762633420879,0.9984615396217219,-0.31512444214774027,9.901238270178785,-48.75218433925458
-0.33403821131739786,-6.173750250719091,0.9953102952002445,-0.802646285540286,9.196271856600193,-47.42997924675237
-0.39577571382458876,-6.081787532153089,0.9872838323448416,-1.2769460780078097,8.888108128710618,-46.175485865162734
-0.45659358914611964,-5.992906450865982,0.9745143715647635,-1.738700936659437,8.944730634042076,-44.91931818564491
-0.5165226536547795,-5.903459144525562,0.9571273621981692,-2.187894118515886,9.336631800308648,-43.604000428132935
-0.575557245100035,-5.810092826522475,0.9352484210130103,-2.6239341227972153,10.03506808915157,-42.18461858562511
-0.6336581733652598,-5.70974214563096,0.9090090797850382,-3.0457803086534665,11.010455892111478,-40.62910431116703
-0.6907555948215693,-5.599637586709846,0.8785512766985035,-3.4520713517651367,12.231148780351289,-38.9183112076724
-0.7467519706886678,-5.477326098906333,0.8440305631808521,-3.8412544638418606,13.6627004148985,-37.04586975492549
-0.8015252316777312,-5.340699094757348,0.8056180185424335,-4.211713161391115,15.267647592204668,-35.01775499717345
-0.8549322226253047,-5.188022618835301,0.7635008869285224,-4.5618907113628495,17.005804292547886,-32.851506666613396
-0.9068124488136576,-5.017964575909822,0.7178819798148939,-4.890405778028984,18.835024327277587,-30.575073122593434
-0.9569920945727559,-4.829614332637046,0.668977922034604,-5.1961565092549185,20.712361896327003,-28.225291833581913
-1.0052882378991264,-4.622490713673776,0.6170163569420548,-5.478409427590737,22.595535075326318,-25.846061087790034
-1.0515131450358641,-4.396535362920513,0.5622322626661475,-5.736870038468638,24.444577755446378,-23.48629513791591
-1.0954784986650692,-4.152089585366049,0.5048635622814611,-5.971732989847797,26.22355256770144,-21.197784999023508
-1.1369993945187298,-3.8898540596890347,0.4451462323829831,-6.183710839838032,27.902193085441677,-19.033107259929864
-1.17589793511562,-3.610832128834618,0.3833091239846028,-6.37404191243733,29.457350386663286,-17.043731262022085
-1.2120062564039662,-3.316258624967985,0.3195687048602295,-6.544479225057551,30.87413825578491,-15.278468787595044
-1.245168842653646,-3.0075172424101355,0.25412391260965395,-6.697263912933502,32.146702267036744,-13.782388800205064
-1.2752440150777473,-2.686050219739768,0.18715127348031893,-6.835087800935552,33.278577087826875,-12.596283113277256
-1.302104517275145,-2.3532644488614993,0.11880039547096341,-6.961050632068325,34.28263654133043,-11.756718817317013
-1.3256371617637601,-2.0104380834481947,0.049189889150280164,-7.0786178202414956,35.18067193866365,-11.296651351832326
-1.345741542598242,-1.6586313640615582,-0.021596289052134787,-7.191584333759819,36.0026422471436,-11.246496022882042
-1.3623278562388577,-1.2986049415901222,-0.09351213238973298,-7.304049293988639,36.78560626081987,-11.635453490006029
-1.375313905654759,-0.9307488789819235,-0.16655262532961937,-7.420403828888699,37.57224367624968,-12.492724350664684
-1.3846213944445782,-0.5550264422194267,-0.24075666361850637,-7.545331072395346,38.408649079848495,-13.847960324025985
-1.3901716588667725,-0.1709399514209417,-0.31620997434245984,-7.6838106756356055,39.34064689627295,-15.729747694356325
-1.391881058380982,0.2224665175417878,-0.3930480810988159,-7.841108152579169,40.40705127561188,-18.159845507837996
-1.3896563932055641,0.6265370302979065,-0.4714591626246076,-8.022706607657549,41.62677463327837,-21.13885582976065
-1.383391022902585,1.0428047766306903,-0.551686228701183,-8.234095165955155,42.9740122881958,-24.61530669670879
-1.3729629751362782,1.4725448995126482,-0.6340271803607346,-8.480248232922243,44.33152799291204,-28.424184070462736
-1.3582375261411517,1.9158601794417687,-0.718829662689957,-8.76449007362687,45.40739003147428,-32.17405712912175
-1.339078924346734,2.3699340797565114,-0.8064745634262257,-9.086230644918087,45.60266171683613,-35.06396039037031
-1.3153795835491688,2.8259606969248727,-0.8973368698754066,-9.43687024882179,43.85256264531463,-35.657977048334864
-1.2871199765799202,3.2644863233780193,-0.9917055723636246,-9.793450019305139,38.59037689912532,-31.819091075880053
-1.25447511334614,3.6503900923692725,-1.089640072556676,-10.11164093006394,28.232150586575262,-21.348715367042335
-1.2179712124224473,3.932711598235025,-1.1907564818573153,-10.325128083734363,12.607569172467427,-3.922989100495727
-1.178644096440097,4.0587872899596995,-1.294007762694659,-10.36435797473932,-5.4288036077907025,16.715970488551445
-1.1380562235405,4.004499253881792,-1.397651342442052,-10.197198269853805,-20.83366292267827,33.905351136960995
-1.098011231001682,3.7961626246550093,-1.4996233251405902,-9.858144758484196,-30.119202659905085,43.131107595346094
-1.060049604755132,3.4949705980559584,-1.598204772725432,-9.426833682530734,-33.4494328510187,44.77860574084502
-1.0250998987745723,3.1604762695457715,-1.6924731095507395,-8.979047625122284,-33.00102465428421,41.83040357984101
-0.9934951360791145,2.8304660230029293,-1.7822635858019624,-8.560743589323874,-30.81749733003912,36.98346339021436
-0.9651904758490852,2.522291049702538,-1.8678710216952013,-8.19090895542173,-28.1217217887982,31.786431962591777
-0.9399675653520598,2.241073831814556,-1.9497801112494186,-7.873044635795812,-25.488780362775618,26.91776725212483
-0.9175568270339143,1.9861860281867998,-2.028510557607377,-7.603866963274563,-23.13793492026437,22.59515949049523
-0.8976949667520463,1.754806678984156,-2.1045492272401227,-7.377915368369611,-21.123626822859883,18.833693267717887
-0.8801468999622047,1.5435704107555572,-2.1783283809238188,-7.189578435692432,-19.43297406587801,15.57334216422986
-0.8647111958546492,1.3492406700967772,-2.250224165280743,-7.033845014050134,-18.030205995104303,12.734644443533732
-0.8512187891536814,1.1689386101457342,-2.3205626154212444,-6.906498569614796,-16.875379871038152,10.240617514533819
-0.8395294030522241,1.0001848114353526,-2.3896276011173923,-6.804092394469458,-15.931490076213693,8.024021317873745
-0.8295275549378706,0.8408699106732157,-2.4576685250620867,-6.72385218129072,-15.1665733159831,6.028681629182626
-0.8211188558311384,0.6892041775133847,-2.524907046874994,-6.6635653649988935,-14.553764112753546,4.208653965748943
-0.8142268140560046,0.5436665363858493,-2.591542700524983,-6.621478825341404,-14.070581581146195,2.526806301239945
-0.8087901486921462,0.4029607205743873,-2.657757488778397,-6.5962107623290045,-13.697979572308096,0.9534453783739256
-0.8047605414864023,0.2659809248513063,-2.723719596401687,-6.5866763085452655,-13.419361470701029,-0.5347894894996226
-0.8021007322378892,0.131787310144296,-2.78958635948714,-6.592024203440261,-13.21961689496264,-1.9557019137970912
-0.8007828591364463,-0.00040885880533039765,-2.8555066015215425,-6.611581222578232,-13.084176729148684,-3.321978115213014
-0.8007869477244997,-0.13125062609681723,-2.9216224137473246,-6.644801003730363,-12.998059573694894,-4.641301903224016
-0.8020994539854678,-0.2612312218337662,-2.9880704237846283,-6.691214022762603,-12.944877433445022,-5.916157776799388
-0.8047117662038055,-0.3906799961682164,-3.054982564012254,-6.750375600530597,-12.905774208231318,-7.143335764586399
-0.8086185661654877,-0.5197377382505296,-3.12248632001756,-6.821808958176461,-12.85828664074102,-8.313160030635164
-0.8138159435479929,-0.6483206046579398,-3.1907044095993244,-6.904940558482813,-12.775146929774573,-9.408486917965543
-0.8202991495945723,-0.7760720739556856,-3.2597538151841525,-6.999025427662469,-12.623094866644403,-10.403565424392102
-0.8280598703341291,-0.9023030226221296,-3.3297440694607774,-7.1030610819063895,-12.361841851783915,-11.262933274478598
-0.8370829005603504,-1.0259214411399686,-3.400774680279841,-7.215690414651175,-11.943434617504149,-11.940642196509362
-0.84734211497175,-1.1453557873150102,-3.4729315844263526,-7.335096836616269,-11.31240084883076,-12.380266176548748
-0.8587956728449001,-1.2584797958033178,-3.5462825527925155,-7.458899498381756,-10.407203256823752,-12.516326292818517
-0.8713804708029332,-1.3625518283715554,-3.620871547776333,-7.584062761309942,-9.163633861347185,-12.277909084938628
-0.8850059890866488,-1.4541881669850272,-3.6967121753894325,-7.706841852159328,-7.520754483556271,-11.595253898691887
-0.8995478707564991,-1.5293957118205899,-3.7737805939110256,-7.822794391146247,-5.4297003769033445,-10.409778069956893
-0.914841827874705,-1.5836927155896232,-3.852008537822488,-7.926892171845816,-2.8649784786836006,-8.687230681161175
-0.9306787550306013,-1.6123425003764593,-3.9312774595409463,-8.013764478657428,0.16322384535306533,-6.432361987565213
-0.9468021800343659,-1.6107102619229288,-4.01141510432752,-8.078088098533081,3.5985353772045605,-3.7019050168946848
-0.9629092826535952,-1.5747249081508832,-4.092195985312851,-8.115107148702029,7.3334987206744024,-0.6114513199884263
-0.978656531735104,-1.5013899209441393,-4.173347056799871,-8.121221661901913,11.213882048538839,2.6680736404642373
-0.9936704309445454,-1.3892511004587509,-4.254559273418891,-8.09454092549727,15.053872308229261,5.926444894707232
-1.007562941949133,-1.2387123773764583,-4.3355046826738635,-8.035276476550198,18.660356123552873,8.94081459493855
-1.0199500657228975,-1.0521088161409295,-4.4158574474393655,-7.945868330600812,21.86089051581631,11.50698424799522
-1.0304711538843068,-0.8334999109827664,-4.4953161307453735,-7.83079848812086,24.528120732936525,13.467049690919898
-1.0388061529941344,-0.5882187036534012,-4.573624115626582,-7.696127991211661,26.594481912430734,14.726362982126284
-1.0446883400306683,-0.3222738845290939,-4.650585395538698,-7.5488643613903985,28.05453342829697,15.256693430283422
-1.0479110788759594,-0.04172855024612415,-4.726074039152603,-7.396297427087564,28.956382070072713,15.087081271578727
-1.0483283643784207,0.24783527045460296,-4.800037013423478,-7.245426614371777,29.386454163802547,14.287021904343742
-1.0458500116738747,0.5416998120926284,-4.872491279567196,-7.10255639532834,29.452544814524398,12.947376402659751
-1.0404330135529485,0.8362252602378724,-4.94351684352048,-6.973082631301742,29.26900285120716,11.163231561610122
