th1 (rad),w1 (rad/s),th2 (rad),w2 (rad/s),a1 (rad/s^2),a2 (rad/s^2)
3.1941684411795546,1.6174463806317032,0.563743090323025,1.3397172497950054,-2.662036425392668,-6.278625739191597
3.2103429049858714,1.5908260163777765,0.5771402628209751,1.2769309924030894,-2.459350219189581,-6.263598999907699
3.226251165149649,1.5662325141858808,0.589909572745006,1.2142950024040124,-2.258653847691942,-6.240684026588497
3.2419134902915077,1.5436459757089613,0.6020525227690461,1.1518881621381274,-2.059941100915964,-6.210126229479294
3.257349950048597,1.5230465646998017,0.6135714043904273,1.0897868998433344,-1.8631639952886956,-6.172124638318552
3.2725804156955953,1.5044149247469147,0.6244692733888607,1.0280656534601489,-1.668233322494556,-6.126832630664472
3.2876245649430644,1.4877325915219692,0.6347499299234622,0.9667973271535042,-1.4750192195966423,-6.0743587209569885
3.302501890858284,1.4729823993260027,0.6444179031949973,0.9060537399439343,-1.2833517797143323,-6.01476743699976
3.3172317148515438,1.4601488815288595,0.6534784405944366,0.8459060655739368,-1.0930217286670607,-5.948080318793494
3.3318332036668323,1.449218664242189,0.6619375012501759,0.7864252623860019,-0.9037812006944739,-5.874277085277898
3.346325390309254,1.4401808522352442,0.669801753874036,0.7276824915332228,-0.7153446556925765,-5.7932970276634865
3.3607271988316065,1.4330274056783183,0.6770785787893682,0.6697495212565879,-0.5273899914166327,-5.705040703763259
3.3750574728883898,1.427753505764152,0.6837760740019341,0.6126991142189553,-0.33955991682880227,-5.609372026145946
3.3893350079460314,1.4243579065958638,0.6899030651441236,0.5566053939574959,-0.15146366720867083,-5.506120858050244
3.40357858701199,1.4228432699237772,0.6954691190836986,0.5015441853769934,0.037320842271444,-5.39508625475388
3.417807019711228,1.4232164783464916,0.7004845609374685,0.44759332282945463,0.22724431025121558,-5.276040514267053
3.432039184494693,1.4254889214490036,0.704960494165763,0.3948329176867841,0.41878265721649144,-5.148734229386347
3.446294073709183,1.4296767480211685,0.7089088233426308,0.3433455753929206,0.612432795617327,-5.0129025625698445
3.460590841189395,1.4358010759773419,0.71234227909656,0.29321654976722217,0.8087073907607328,-4.868272994633022
3.4749488519491685,1.4438881498849492,0.7152744445942322,0.24453381982089195,1.0081284235422514,-4.714574826237882
3.489387733448018,1.4539694341203717,0.7177197827924411,0.19738807155851312,1.211219351562396,-4.55155073519558
3.503927427789222,1.4660816276359956,0.7196936635080262,0.15187256420655731,1.4184956560005946,-4.378970709537329
3.518588244065582,1.4802665841960014,0.7212123891500918,0.10808285711118402,1.6304535606747814,-4.196648681971354
3.533390909907542,1.4965711198027492,0.7222932177212036,0.0661163702914705,1.8475567205954984,-4.004462180491443
3.5483566211055697,1.515046687008704,0.7229543814241183,0.026071748486556058,2.0702207043462297,-3.802375276160811
3.563507087975657,1.5357488940521664,0.7232150989089838,-0.011952004275052053,2.298795142755612,-3.590465045016712
3.5788645769161787,1.5587368454797226,0.7230955788662333,-0.047856654725219175,2.533543490996999,-3.3689516583449346
3.594451945370976,1.5840722803896925,0.7226170123189811,-0.08154617130866852,2.7746204579759457,-3.138232065612654
3.610292668174873,1.611818484969452,0.7218015506058945,-0.11292849196479507,3.0220473006792243,-2.8989170289087385
3.626410853024568,1.6420389579762442,0.7206722656862465,-0.14191766225388244,3.2756853657711176,-2.651871000214172
3.64283124260433,1.6747958116339554,0.7192530890637077,-0.16843637225602417,3.535208487416512,-2.3982539998136523
3.65957920072067,1.7101478965081205,0.7175687253411475,-0.1924189122541607,3.8000751165873172,-2.139564257485966
3.676680679685751,1.7481486476739936,0.7156445362186059,-0.21381455482902034,4.069501355184165,-1.8776799271360065
3.694162166162491,1.7888436612258352,0.7135063906703157,-0.2325913541003804,4.342436383631783,-1.6148976995351458
3.7120506027747493,1.832268025062153,0.711180477129312,-0.24874033109573185,4.617542080704467,-1.3539656480888815
3.730373283025371,1.8784434458691976,0.7086930738183547,-0.2622799875766207,4.893178908330729,-1.0981071935025304
3.7491577174840627,1.9273752349525048,0.7060702739425885,-0.273261059511646,5.167400333411468,-0.8510327221625787
3.7684314698335877,1.9790492382866196,0.703337663347472,-0.2817713867332718,5.437958139203572,-0.6169352075447205
3.7882219622164537,2.0334288196786554,0.7005199494801393,-0.287940738808719,5.702320895212866,-0.4004662364175217
3.80855625041324,2.090452028630784,0.6976405420920521,-0.29194540117289425,5.957707566227937,-0.20668920091952284
3.829460770699548,2.1500291042930635,0.6947210880803231,-0.2940122931820895,6.201137719880865,-0.04100713809126691
3.8509610617424785,2.212040481491872,0.6917809651485022,-0.29442236456300214,6.429499030149043,0.09093619248920311
3.873081466557397,2.2763354717933626,0.6888367415028721,-0.2935130026381101,6.639631791246346,0.1833819161450239
3.8958448212753307,2.342731789705826,0.685901611476491,-0.29167918347665983,6.828429003912451,0.23060645444750516
3.919272139172389,2.4110160797449507,0.6829848196417244,-0.28937311893218476,6.992949357160198,0.22709284595131185
3.9433822999698385,2.4809455733165526,0.6800910884524025,-0.28710219047267166,7.130539211407983,0.1677170135810573
3.968191755703004,2.5522509654306327,0.6772200665476757,-0.28542502033686107,7.238958615485005,0.047941078143122616
3.9937142653573106,2.624640551585483,0.6743658163443071,-0.28494560955542986,7.31650557968111,-0.1359957945681321
4.019960670873165,2.697805607382294,0.6715163602487528,-0.2863055675011112,7.3621323795586635,-0.38689963125988047
4.046938726946988,2.7714269311778805,0.6686533045737417,-0.29017456381371,7.37554764596782,-0.7064680487908493
4.0746529962587665,2.8451824076375587,0.6657515589356047,-0.29723924430161847,7.3572984278227835,-1.0951716111654155
4.103104820335142,2.9187553919157865,0.6627791664925885,-0.3081909604132726,7.308827274294623,-1.5521799143255732
4.1322923742543,2.9918436646587327,0.6596972568884558,-0.32371275955652834,7.23250061461655,-2.0753404246112153
4.162210810900888,3.0641686708048983,0.6564601292928905,-0.3444661638026405,7.1316062359215815,-2.6612157382736563
4.1928524976089365,3.1354847331641142,0.6530154676548642,-0.3710783211853771,7.010319382524125,-3.305182091574404
4.224207344940577,3.2055879269893555,0.6493046844430104,-0.40413014210112114,6.873638835439373,-4.001588799897378
4.256263224210471,3.2743243153437493,0.6452633830219991,-0.4441460301000949,6.7272961961963595,-4.743975029880993
4.289006467363909,3.3415972773057128,0.6408219227209982,-0.4915857803989048,6.577643415187688,-5.525337124071126
4.322422440136966,3.4073737114575895,0.6359060649170092,-0.546839151639616,6.431525290380047,-6.338436840590123
4.356496177251542,3.47168896436139,0.6304376734006131,-0.6102235200455173,6.296145128088666,-7.1761385992695645
4.391213066895157,3.5346504156422767,0.6243354382001579,-0.6819849060382129,6.1789329084533975,-8.031762406155153
4.4265595710515795,3.5964397447268106,0.6175155891397758,-0.7623025300997645,6.087426044062722,-8.899438806255423
4.462523968498847,3.657314005167438,0.6098925638387781,-0.8512969181623187,6.029173096527036,-9.774453179785207
4.499097108550521,3.7176057361327084,0.601379594657155,-0.9490414499601707,6.011670610427082,-10.65356904595746
4.536273165911848,3.7777224422369793,0.5918891801575532,-1.0555771404197454,6.042342601241091,-11.535323745845458
4.574050390334218,3.83814586824939,0.5813334087533557,-1.1709303778781999,6.128571349636469,-12.42029479238339
4.612431849016712,3.8994315817457545,0.5696241049745737,-1.2951333258020337,6.277787257236676,-13.311341052642664
4.651426164834169,3.9622094543181214,0.5566727717165534,-1.4282467363284603,6.49762493396631,-14.21382947245088
4.69104825937735,4.027185703657785,0.5423903043532687,-1.5703850310529692,6.796152788999024,-15.135865003410515
4.731320116413928,4.095147231547775,0.5266864540427391,-1.7217436810870743,7.182184576259944,-16.08854859010269
4.772271588729406,4.166969077310374,0.5094690172318683,-1.8826291669881012,7.66568397107594,-17.08629552309953
4.813941279502509,4.2436259170211335,0.4906427255619873,-2.0534921222190965,8.25827763445736,-18.147254326953018
4.85637753867272,4.326208693365707,0.4701078043397963,-2.2349646654886266,8.97389852936139,-19.293874868684835
4.899639625606377,4.415947678659322,0.44775815768491006,-2.427903414175475,9.829589363559679,-20.553683576395834
4.94379910239297,4.514243572294919,0.4234791235431553,-2.6334402499394334,10.84650511372268,-21.96033273300839
4.9889415381159194,4.622708623432145,0.397144721043761,-2.853043577269517,12.051161111272021,-23.554996617015583
5.0351686243502405,4.743220234544865,0.3686142852710658,-3.0885935434396727,13.476972612744337,-25.388181004903227
5.082600826695689,4.877989960672308,0.3377283498366691,-3.342475353488705,15.166107225266671,-27.52197217727627
5.131380726302412,5.029651032924975,0.30430359630178205,-3.6176950752614676,17.171585275908853,-30.03262429910948
5.1816772366316615,5.201366885684064,0.2681266455491674,-3.9180213182525625,19.55932677402975,-33.01304589720059
5.233690905488502,5.396960153424361,0.22894643236664175,-4.248151777224568,22.409250837286336,-36.57390799956195
5.287660507022745,5.621052661797225,0.18646491459439607,-4.613890857220188,25.81310564568211,-40.84008712571066
5.343871033640718,5.879183718254046,0.1403260060221942,-5.0222917284772945,29.863345589574376,-45.93443530281024
5.402662870823258,6.17781717414979,0.09010308873742125,-5.481636081505397,34.61964025261186,-51.93001859601323
5.464441042564756,6.524013576675909,0.03528672792236728,-6.000936267465529,40.02257613279184,-58.72808073782122
5.529681178331515,6.924239338003828,-0.024722634752288017,-6.588217074843741,45.69046065551316,-65.77177375299686
5.598923571711553,7.381143944558959,-0.09060480550072543,-7.24593481237371,50.48773576592719,-71.439212194055
5.672735011157142,7.88602130221823,-0.16306415362446253,-7.96032693431426,51.77948725539966,-71.99619620596141
5.751595224179325,8.403816174772228,-0.24266742296760513,-8.680288896373874,44.79756673355521,-60.708106038206466
5.835633385927047,8.85179184210778,-0.32947031193134385,-9.287369956755938,24.323815303115694,-30.21443142518615
5.924151304348125,9.095029995138937,-0.4223440114989032,-9.5895142710078,-8.130588691160472,17.364795084398878
6.015101604299514,9.013724108227333,-0.5182391542089813,-9.415866320163811,-38.58208511036686,62.34874128477075
6.105238845381788,8.627903257123664,-0.6123978174106194,-8.792378907316104,-53.18014077871693,85.20615907378031
6.191517877953024,8.096101849336495,-0.7003216064837804,-7.940317316578301,-52.89220418560536,87.18680073631818
6.27247889644639,7.567179807480442,-0.7797247796495634,-7.068449309215119,-45.90312052771364,79.69778168655372
6.348150694521194,7.108148602203306,-0.8504092727417146,-6.271471492349582,-37.676668327152434,70.38526302748207
6.419232180543227,6.731381918931781,-0.9131239876652104,-5.567618862074761,-30.24164261651756,62.11054226396915
6.486545999732544,6.428965492766606,-0.968800176285958,-4.94651343943507,-24.024150303704626,55.493318466520535
6.550835654660211,6.18872398972956,-1.0182653106803088,-4.391580254769865,-18.931021595550806,50.41879704220971
6.612722894557506,5.999413773774052,-1.0621811132280075,-3.8873922843477677,-14.757142561120048,46.60546585894612
6.672717032295247,5.851842348162851,-1.101055036071485,-3.4213376257583064,-11.309410535949324,43.77862976555954
6.731235455776876,5.738748242803358,-1.1352684123290682,-2.983551328102711,-8.4347427562173,41.710175278335775
6.7886229382049095,5.654400815241185,-1.1651039256100952,-2.5664495753193535,-6.019554199221325,40.218433682743125
6.845166946357321,5.5942052732489715,-1.1907684213632888,-2.164265238491922,-3.982518983108715,39.15868342225492
6.901108999089811,5.554380083417884,-1.212411073748208,-1.7726784042693728,-2.2670379324597896,38.41343964518805
6.956652799923989,5.531709704093286,-1.2301378577909017,-1.3885440078174924,-0.834919906974237,37.884824666583604
7.0119698969649225,5.523360505023544,-1.2440232978690766,-1.0096957611516564,0.3386697154220494,37.48924983045463
7.067203502015158,5.526747202177765,-1.2541202554805932,-0.6348032628471101,1.269280578293053,37.15409876411044
7.122470974036935,5.539440007960695,-1.2604682881090643,-0.2632622752060057,1.966553663420524,36.816008723511295
7.177865374116543,5.5591055445949005,-1.2631009108611244,0.10489781202910725,2.4370920152671283,36.42035592410553
7.233456429562492,5.583476464747572,-1.2620519327408333,0.46910137127016255,2.6869091936708878,35.92156369267495
7.289291194209968,5.610345556684281,-1.2573609190281316,0.828317008196912,2.7234503899576623,35.28385478465054
7.345394649776811,5.637580060583857,-1.2490777489461624,1.1811555560434175,2.5571243778925505,34.48207575157353
7.401770450382649,5.663151304362782,-1.2372661933857283,1.5259763135591529,2.2022669135254795,33.50225237517621
7.458401963426277,5.685173973498037,-1.2220064302501368,1.860998837310915,1.6774791324236717,32.341605452976644
7.515253703161257,5.701948764822274,-1.2033964418770275,2.1844148918406816,1.0053408257246452,31.00786685265537
7.572273190809479,5.7120021730795205,-1.1815522929586206,2.494493560367235,0.21157261850779707,29.517872428169927
7.629393212540275,5.714117899264599,-1.1566073573549482,2.7896722846489346,-0.6762076981904412,27.89554501802289
7.686534391532921,5.707355822282694,-1.128710634508459,3.0686277348291635,-1.6299408933120059,26.169488202388482
7.743607949755748,5.691056413349574,-1.0980243571601673,3.3303226168530484,-2.622586988487182,24.37046783395717
7.800518513889243,5.664830543464702,-1.064721130991637,3.57402729519262,-3.6294074233338973,22.529056068101305
7.857166819323891,5.628536469231363,-1.0289808580397106,3.799317855873633,-4.62893701865268,20.673659990044882
7.913452184016204,5.582247099044836,-0.9909876794809743,4.006054455774082,-5.603579226555623,18.829073549535824
7.969274655006653,5.52621130677928,-0.9509271349232336,4.1943451912694405,-6.539821155872879,17.01560056300182
8.024536768074446,5.460813095220551,-0.9089836830105391,4.364501196899458,-7.428114133194597,15.248717587955678
8.079144899026652,5.386531953888605,-0.8653386710415445,4.516988372779015,-8.262495627014166,13.539190166976214
8.133010218565538,5.303906997618464,-0.8201687873137543,4.652380274448777,-9.040039481076992,11.893527383937258
8.186049288541723,5.213506602807694,-0.7736449845692666,4.77131554828815,-9.760217649551192,10.314654457814287
8.2381843545698,5.1159044263121825,-0.7259318290863851,4.874462092866294,-10.42424359522302,8.802694382067642
8.289343398832921,5.011661990359952,-0.6771872081577222,4.96248903668697,-11.03445048105847,7.355769958953946
8.33946001873652,4.9013174855493675,-0.6275623177908525,5.036046736276509,-11.593740197266769,5.970760770740851
8.388473193592015,4.7853800835767,-0.5772018504280874,5.095754343983917,-12.105124453674028,4.643971473984461
8.436326994427782,4.6643288390399595,-0.5262443069882482,5.142194058723762,-12.571367570318603,3.3716860884941875
8.482970282818181,4.5386151633367735,-0.4748223664010106,5.175910919608704,-12.994732190840244,2.1505970150519444
8.528356434451549,4.408667841428371,-0.42306325720492355,5.197416889759223,-13.376823371328792,0.9781076698376796
8.572443112865832,4.274899607715083,-0.37108908830733134,5.2071979664576,-13.718522636463723,-0.14748534640483474
8.615192108942983,4.137714381350446,-0.31901710864275534,5.205723112993551,-14.020000978597976,-1.2269198378800812
8.656569252756487,3.9975143715644665,-0.2669598775128198,5.19345391461475,-14.280797918630354,-2.2599913563626024
8.696544396472131,3.854706392378163,-0.21502533836667231,5.170854001051124,-14.499952383265745,-3.2456559661505144
8.735091460395912,3.7097068685455055,-0.16331679835616109,5.1383974413896185,-14.676170212283663,-4.182194485655546
8.772188529081367,3.562945166422669,-0.11193282394226489,5.096575496533063,-14.808012663267048,-5.067419301004791
8.807817980745593,3.4148650397899987,-0.06096706897693426,5.045901303523015,-14.89409046856843,-5.8989046223827
8.841966631143492,3.2659241351043145,-0.010508055941704106,4.986912257299188,-14.933248951014974,-6.674221686195557
8.874625872494535,3.116591645594165,0.03936106663128778,4.920170040437233,-14.924731481590712,-7.391161981233023
8.905791788950477,2.967344330778258,0.0885627670356601,4.846258420624903,-14.86831111497337,-8.04793408381042
8.93546523225826,2.8186612196285243,0.13702535124190912,4.765779079786799,-14.764383398272345,-8.643322989097634
8.963651844454544,2.671017385645801,0.1846831420397771,4.679345849895823,-14.614016844712276,-9.176804667560571
8.990362018311002,2.524877217198678,0.2314766005387353,4.587577803220217,-14.418961068982938,-9.648612616566902
9.015610790482988,2.380687606508849,0.2773523785709375,4.491091677054548,-14.181615762390276,-10.059757048065169
9.039417666548077,2.238871448884946,0.32226329534148296,4.390494106573897,-13.904966261741672,-10.41200071418959
9.061806381036927,2.0998217862675292,0.3661682364072219,4.286374099432001,-13.592493245462755,-10.707797964988735
9.082804598899603,1.9638968538129018,0.4090319774015419,4.179296119782113,-13.248064995813452,-10.950205310495047
9.102443567437732,1.8314162038547672,0.450824938599363,4.069794066677162,-12.875820731025666,-11.142772499019932
9.12075772947628,1.7026579965445106,0.49152287926613464,3.958366341686963,-12.480052861436812,-11.289423009509079
9.137784309441725,1.5778574679301425,0.5311065426830043,3.845472111591872,-12.065094845098784,-11.394332052598225
9.153562884121026,1.4572065194791546,0.569561263798923,3.73152879106589,-11.63521982125573,-11.461808891057435
9.168134949315817,1.3408543212665973,0.6068765517095819,3.6169107021553155,-11.194553587121614,-11.496188742286144
9.181543492528483,1.2289087853953813,0.6430456587311351,3.501948814732454,-10.747003925457937,-11.501737909584211
9.193832580382438,1.121438746140802,0.6780651468784596,3.386931435636612,-10.296206913135691,-11.482574261791274
9.205046967843845,1.018476677009445,0.7119344612348257,3.272105693018699,-9.84548972066563,-11.442603851272523
9.21523173461394,0.9200217798027888,0.7446555181650127,3.1576796545059738,-9.397848581003636,-11.38547338913591
9.224431952411969,0.8260432939927524,0.7762323147100725,3.0438249206146146,-8.95594005794755,-11.314537503764225
9.232692385351896,0.7364838934132769,0.8066705639162186,2.9306795455769725,-8.522083449956593,-11.232839182560195
9.24005722428603,0.651263058913711,0.8359773593719884,2.8183511537513706,-8.098272079453178,-11.143101504782619
9.246569854875167,0.5702803381191792,0.8641608709095021,2.7069201387035444,-7.686191290304295,-11.047728672000755
9.25227265825636,0.49341842521613627,0.8912300722965376,2.5964428519835367,-7.287241158207785,-10.948814385316274
9.25720684250852,0.4205460136340584,0.917194500816373,2.486954708130374,-6.902562166774596,-10.848155760746593
9.26141230264486,0.35152039196631246,0.9420640478976767,2.378473150522908,-6.533062380794933,-10.747271177447494
9.264927506564524,0.28618976815836317,0.9658487794029058,2.271000438748433,-6.1794449306756105,-10.647420686542803
9.267789404246107,0.22439531885160707,0.9885587837903902,2.164526231883005,-5.842234889625091,-10.549627847649711
9.270033357434624,0.16597296995535615,1.0102040461092203,2.059029953406508,-5.52180486611844,-10.4547020892223
9.271693087134178,0.11075492129417175,1.0307943456432853,1.9544829325142852,-5.218398842375992,-10.363260897093072
9.27280063634712,0.05857093287041183,1.050339174968428,1.8508503235433544,-4.932153963093235,-10.275751317370332
9.273386345675823,0.00924939323947948,1.0688476782038616,1.7480928103696511,-4.663120118419925,-10.192470413026689
9.273478839608217,-0.03738180794471977,1.0863286063075581,1.6461681062393843,-4.411277273983316,-10.113584438474572
9.27310502152877,-0.08149458068455293,1.102790287369952,1.5450322618546386,-4.176550582352974,-10.039146595161013
