th1 (rad),w1 (rad/s),th2 (rad),w2 (rad/s)
6.154418968841467,1.240069587678952,5.758134274977768,-1.260088332323693
6.166819664718257,1.2124346479811368,5.745533391654531,-1.1795361542368523
6.178944011198068,1.1831185082920337,5.733738030112162,-1.0965841608675193
6.190775196280988,1.1524019240905363,5.7227721885034875,-1.0116565863836529
6.202299215521894,1.1205230097974324,5.712655622639651,-0.925124228137977
6.213504445619868,1.0876791306598879,5.703404380358271,-0.8373067542581181
6.224381236926466,1.054029811651116,5.69503131281569,-0.748476359449473
6.234921535042977,1.0197002276192593,5.687546549221195,-0.6588621769064049
6.245118537319169,0.9847849417364017,5.680957927452131,-0.5686549948185232
6.254966386736533,0.9493516536065465,5.675271377503946,-0.478011954869505
6.2644599032725985,0.913444797762227,5.670491257955251,-0.38706101855177694
6.273594351250221,0.8770888958843187,5.666620647769733,-0.2959050725782655
6.282365240209065,0.8402916128404925,5.663661597043951,-0.20462560845120373
6.290768156337469,0.8030464998383553,5.661615340959439,-0.11328595649655573
6.298798621335853,0.7653354303594115,5.660482481394474,-0.021934085141617668
6.306451975639447,0.7271307487245415,5.660263140543058,0.06939500447178455
6.313723283126692,0.6883971594426823,5.660957090587775,0.16067724713713216
6.320607254721119,0.6490933897842757,5.662563863059146,0.2518977982365917
6.327098188618962,0.6091736597527715,5.665082841041512,0.34304958475319747
6.333189925216489,0.5685889938903419,5.668513336889044,0.4341320726054613
6.338875815155393,0.5272884089448302,5.672854657615098,0.5251502007903279
6.344148699244841,0.485220010918039,5.678106159623002,0.6161134334797859
6.349000899354022,0.44233203482298206,5.6842672939578,0.7070348814549667
6.3534242197022515,0.3985738608984005,5.691337642772349,0.7979304436729229
6.357409958311235,0.35389704228394087,5.699316947209078,0.8888179180407518
6.360948928734075,0.3082563814166363,5.708205126389485,0.9797160273826135
6.364031492548241,0.26161109579500186,5.718002286663311,1.070643301941322
6.366647603506191,0.21392611835548275,5.728708719682724,1.1616167534215978
6.368786864689746,0.16517358354450354,5.74032488721694,1.2526502674904403
6.3704386005251905,0.1153345571846199,5.752851389891845,1.343752631849602
6.371591946097037,0.06440107621286387,5.766288916210341,1.4349251057274515
6.372235956859165,0.012378572859756728,5.7806381672676155,1.5261584244630448
6.372359742587762,-0.040711233993293204,5.795899751512246,1.6174291208415554
6.371952630247829,-0.09482689109845799,5.812074042720662,1.7086950348322392
6.371004361336845,-0.14990311512017218,5.829160993068984,1.799889878370559
6.3695053301856435,-0.20584596219757692,5.84715989185269,1.8909167264356368
6.3674468705636675,-0.2625271934434544,5.866069059117046,1.9816403267247136
6.364821598629233,-0.3197778038461083,5.885885462384293,2.071878167334698
6.361623820590772,-0.37738074762314044,5.90660424405764,2.1613903278756963
6.357850013114541,-0.43506299894583583,5.928218147336397,2.2498682803671723
6.353499383125082,-0.4924872459030069,5.950716830140069,2.336923020058261
6.348574510666052,-0.549243739228985,5.974086060340651,2.422073209588004
6.343082073273762,-0.6048431112925664,5.998306792436531,2.5047344213366114
6.337033642160836,-0.6587113366157531,6.023354136649897,2.584211052011927
6.3304465287946785,-0.7101883885210284,6.049196247170016,2.6596930149528943
6.323344644909469,-0.758532483920358,6.075793177319545,2.730259789894011
6.315759320070265,-0.8029319766710428,6.103095775218485,2.7948946590196964
6.307730000303555,-0.8425267892513115,6.131044721808681,2.852511748533098
6.299304732411041,-0.8764405752632393,6.159569839294012,2.901997567823276
6.290540326658409,-0.903823445291271,6.188589814972245,2.9422669037335427
6.281502092205496,-0.9239030863750068,6.21801248400958,2.972330209475601
6.2722630613417465,-0.9360397457988854,6.247735786104336,2.991366413634263
6.262902663883757,-0.9397784223279633,6.277649450240679,2.9987921703192626
6.253504879660477,-0.9348904953907288,6.307637371943871,2.994317049603695
6.24415597470657,-0.9213976128125594,6.337580542439908,2.9779749700129665
6.234941998578444,-0.8995731705882822,6.367360292140038,2.9501256007953978
6.225946266872561,-0.8699206628190679,6.396861548147992,2.911424833143664
6.21724706024437,-0.83313244524998,6.425975796479429,2.8627692102044477
6.20891573579187,-0.7900357545818323,6.454603488581474,2.8052236544954456
6.201015378246052,-0.7415342591136771,6.482655725126428,2.739943718543963
6.1936000356549155,-0.6885528263815098,6.510055162311867,2.6681027115442046
6.1867145073911,-0.6319911192578793,6.53673618942731,2.590831176146963
6.180394596198521,-0.5726889550566157,6.562644501188779,2.5091725203450053
6.174667706647956,-0.5114038947146688,6.587736226392229,2.424055258811744
6.169553667700809,-0.448799759193935,6.611976778980346,2.3362799430261245
6.16506567010887,-0.3854438240878598,6.6353395784106075,2.24651761904189
6.161211231867991,-0.32181019335199745,6.657804754601027,2.155316359526586
6.1579931299344715,-0.25828706375262134,6.679357918196293,2.063112743760077
6.1554102592969455,-0.1951860317059615,6.6999890456338935,1.9702457869263783
6.153458398979886,-0.1327520917929806,6.7196915035031575,1.8769715142552164
6.152130878061956,-0.07117342955182071,6.73846121864571,1.7834769998682376
6.151419143766438,-0.010590475169820389,6.756295988644392,1.689893186153723
6.15131323901474,0.048896048745140815,6.773194920505929,1.5963061587113456
6.151802199502191,0.10721817190998448,6.789157982093043,1.5027667916367025
6.152874381221291,0.1643347879732012,6.80418565000941,1.409298824596895
6.1545177291010225,0.22022674432661757,6.8182786382553795,1.3159055131424173
6.156719996544289,0.2748927917765202,6.831437693386803,1.2225750291456299
6.159468924462054,0.32834626711399106,6.84366344367826,1.1292847959670371
6.162752387133194,0.3806123853401743,6.85495629163793,1.0360049348171756
6.166558510986596,0.4317260284496076,6.865316340986102,0.9427009827315503
6.170875771271092,0.48172993047856266,6.874743350813418,0.849336023609064
6.1756930705758775,0.5306731716998397,6.883236711049508,0.755872354848232
6.180999802292876,0.5786099070981706,6.89079543459799,0.6622727948765795
6.186785901363857,0.6255982649308299,6.897418162546756,0.5685017220911353
6.193041884013165,0.6716993599883202,6.903103179767667,0.47452592369530705
6.199758877613048,0.7169763730598254,6.907848439004621,0.38031532363592835
6.206928641343646,0.7614936531307546,6.91165159224098,0.2858436521827896
6.214543577874954,0.8053158020997944,6.914510028762808,0.19108911546502502
6.222596735895952,0.8485067034235939,6.916420919917458,0.0960351212849719
6.231081802930189,0.8911284562075944,6.917381271130308,0.0006711175732649066
6.239993087492264,0.9332401749998319,6.917387982306041,-0.09500639827251911
6.2493254892422625,0.9748966130752733,6.916437918323315,-0.19099263743997474
6.259074455373015,1.016146563543687,6.9145279919489155,-0.2872729786351136
6.269235921008452,1.057030988503163,6.911655262162564,-0.38382105574864184
6.279806230893484,1.0975808222002317,6.907817051605078,-0.4805963962998259
6.290782039115486,1.1378143905271425,6.90301108764208,-0.5775415277872396
6.302160183020757,1.1777343873741677,6.897235672364207,-0.6745784666702083
6.313937526894499,1.2173243501201196,6.890489887697505,-0.7716045072157867
6.3261107703957,1.2565445844220546,6.8827738426253475,-0.8684872383480644
6.338676216239921,1.2953275059801046,6.874088970241867,-0.9650587407722
6.351629491299722,1.3335723988064145,6.864438382834145,-1.0611089604852637
6.364965215287786,1.371139641658877,6.853827293229292,-1.1563783265184597
6.378676611704375,1.407844533668375,6.842263509964107,-1.2505497899820954
6.392755057041058,1.4434509639981077,6.8297580120642865,-1.343240618156704
6.40718956668104,1.477665324397005,6.816325605882719,-1.4339944894611683
6.42196621992501,1.5101312590576346,6.801985660988107,-1.5222747044223486
6.437067532515586,1.5404260753901458,6.786762913943884,-1.6074596433251485
6.4524717932694875,1.5680598787578264,6.770688317510632,-1.6888419305187596
6.468152392057066,1.5924786979434595,6.753799898205444,-1.7656330446208792
6.4840771790365,1.6130729628089173,6.736143567759235,-1.836975241354716
6.500207908664589,1.6291925828257163,6.717773815345688,-1.9019624949570115
6.516499834492847,1.6401694474068418,6.698754190396118,-1.9596715662097812
6.5329015289669154,1.645347345452653,6.67915747473402,-2.009203158914099
6.549355002421442,1.6441180825452448,6.659065443144879,-2.0497314341500723
6.565796183246895,1.635961099472137,6.638568128803378,-2.0805581093756986
6.582155794241616,1.6204824740329449,6.617762547709621,-2.1011654088926512
6.598360618981945,1.5974482578193439,6.596750893620694,-2.1112608642108817
6.614335101560139,1.5668070975547703,6.575638284978585,-2.1108069931714857
6.6300031725356865,1.5286982567736263,6.554530215046871,-2.100030544186377
6.645290155103423,1.483443363700708,6.533529909605007,-2.079409095271953
6.6601245887404295,1.4315229473291966,6.5127358186522875,-2.049636617363291
6.674439818213721,1.3735413391387967,6.492239452478654,-2.0115731028918526
6.6881752316051095,1.3101851315960997,6.472123721449735,-1.9661855764304497
6.70127708292107,1.242180750315326,6.4524618656854305,-1.9144882693527363
6.713698890424223,1.170255902950997,6.4333169829919035,-1.8574885886409092
6.7254014494537335,1.0951081344970637,6.414742097105495,-1.7961433360481713
6.736352530798704,1.0173819775976873,6.396780663745013,-1.7313271847369314
6.746526350574681,0.9376546757361472,6.379467391897644,-1.6638133075099024
6.755902897332042,0.8564294146987408,6.362829258822545,-1.5942646024987157
6.76446719147903,0.7741344636302866,6.346886612797558,-1.5232332299126097
6.772208536115333,0.6911265103932863,6.331654280498432,-1.4511660259010386
6.779119801219266,0.6076966337451558,6.317142620239421,-1.378413593963667
6.785196767556717,0.5240776500017822,6.3033584842997845,-1.3052412977100254
6.790437544056735,0.44045190205367907,6.290306071322684,-1.231840847854646
6.7948420630772715,0.3569588618254878,6.277987662844137,-1.158341604820439
6.798411651695527,0.27370216474078424,6.266404246795933,-1.0848210666334017
6.801148673342935,0.19075587995508284,6.255556036129598,-1.0113142714909769
6.8030562321424854,0.10816994881872868,6.245442893414689,-0.9378220241141979
6.804137931630673,0.025974807121636218,6.236064673173547,-0.8643179704150482
6.804397679701889,-0.055814744138920305,6.2274214934693966,-0.7907546127936143
6.8038395322605,-0.13719632906678897,6.2195139473414605,-0.7170683932162645
6.802467568969832,-0.21817734746003206,6.212343263409298,-0.643183984778672
6.800285795495232,-0.29877278364628324,6.205911423561511,-0.5690179333526235
6.797298067658769,-0.3790033751002725,6.2002212442279845,-0.4944817852001873
6.7935080339077665,-0.45889404790329136,6.195276426375982,-0.41948482816536103
6.788919093428733,-0.5384725316926138,6.1910815780943285,-0.3439365658279918
6.783534368111807,-0.6177680712466601,6.187642212436049,-0.26774903743400014
6.77735668739934,-0.6968101545758748,6.184964722061709,-0.1908390924370197
6.770388585853581,-0.7756271779733448,6.1830563311373385,-0.1131307275909458
6.762632314073848,-0.854244966780026,6.181925023861429,-0.03455759689609787
6.754089864406048,-0.9326850666824507,6.181579447892468,0.04493418976893386
6.744763013739223,-1.0109627144401527,6.182028789790158,0.12538285519322329
6.734653386594822,-1.089084389577008,6.18328261834209,0.20680719614224108
6.723762542699052,-1.1670448407381715,6.185350690303512,0.2892021321781907
6.71209209429167,-1.2448234737410773,6.188242711625294,0.3725334076945944
6.699643859554259,-1.322379985436978,6.1919680457022395,0.45673128933815843
6.6864200596998895,-1.3996491323417248,6.196535358595621,0.5416831086701868
6.672423568376472,-1.476534541477859,6.201952189682323,0.6272245271709012
6.657658222961694,-1.5529015112984823,6.208224434954031,0.7131294592757386
6.6421292078487095,-1.6285688240390437,6.215355729546789,0.7990986947401002
6.625843519608319,-1.7032997111835535,6.22334671649419,0.8847474337310776
6.6088105224964835,-1.7767922963558267,6.232194190831501,0.9695922082996209
6.591042599532925,-1.848670098863341,6.241890112914497,1.0530380318503596
6.572555898544292,-1.9184735228970147,6.252420493233001,1.1343671027934026
6.5533711633153215,-1.985653671023815,6.263764164260935,1.212730973635242
6.533514626605084,-2.0495702631329147,6.275891473997287,1.2871487209013992
6.513018923973754,-2.109495822042156,6.288762961206301,1.3565141845071222
6.491923965753332,-2.1646284531191085,6.302328103051373,1.4196155726275348
6.470277681222141,-2.214115292190596,6.3165242587776484,1.4751703588374718
6.448136528300235,-2.2570878060533435,6.331275962366023,1.521877124319535
6.425565650239702,-2.2927084636848933,6.346494733609219,1.5584836225762069
6.402638565602853,-2.320225924060499,6.362079569834981,1.5838669678154413
6.379436306362248,-2.339033210050815,6.377918239513135,1.5971180410594668
6.35604597426174,-2.348721108584524,6.393889419923729,1.5976190354158757
6.332558763175895,-2.34911817590809,6.409865610277888,1.5851018296776018
6.309067581416814,-2.3403099386675246,6.425716628574664,1.559676589224952
6.285664482030139,-2.3226332233261653,6.441313394466913,1.5218247293875962
6.2624381497968775,-2.296646222819955,6.456531641760789,1.4723570167886137
6.2394716875686775,-2.263079509205006,6.471255211928676,1.4123441320270456
6.216840892476627,-2.2227763067849677,6.485378653248946,1.3430314617829733
6.194613129408777,-2.1766311616533534,6.498808967866776,1.2657511028916177
6.1728468177922435,-2.125534795362157,6.511466478895692,1.181842196624634
6.151591469838622,-2.0703302308974494,6.523284900861939,1.0925869179414238
6.130888167529648,-2.0117822686791422,6.534210770041353,0.9991651907501578
6.110770344842856,-1.9505598877633563,6.544202421948855,0.902627647299796
6.091264745965223,-1.8872295460958437,6.553228698421853,0.803884060309804
6.072392450504264,-1.8222566588924887,6.561267539024951,0.703703465010465
6.054169883915339,-1.756012524792902,6.568304573675055,0.6027221477930604
6.03660975866741,-1.688784361598052,6.574331795152986,0.5014562107963789
6.01972191505143,-1.6207866652575238,6.57934635726095,0.4003161865952785
6.003514048398855,-1.5521726564996796,6.5833495191269025,0.29962194643447193
5.9879923218338575,-1.4830450457081512,6.586345738591247,0.19961680006572768
5.973161871376776,-1.4134657006526201,6.588341906591904,0.10048018463218521
5.95902721437025,-1.3434640481126556,6.589346708438226,0.0023386894515488865
5.945592573889123,-1.273044198406255,6.589370095332741,-0.09472461101430382
5.932862131905061,-1.2021908739240097,6.5884228492225985,-0.1906624110568635
5.920840223165821,-1.1308742694266414,6.58651622511203,-0.285456841202147
5.909531480471554,-1.0590539893389816,6.583661656700008,-0.3791143492596306
5.898940940578164,-0.9866822074369452,6.579870513207412,-0.4716615931330366
5.889074118503795,-0.9137061853141427,6.575153897276082,-0.5631421552612961
5.879937056650654,-0.8400702731211703,6.56952247572347,-0.6536139061923055
5.871536353919442,-0.7657175025629679,6.562986336661546,-0.7431468637088428
5.8638791788938125,-0.690590869938195,6.5555548680244575,-0.8318214113421049
5.85697327019443,-0.6146343971783312,6.547236653911036,-0.9197267544402343
5.850826926222647,-0.5377940519601534,6.538039386366634,-1.0069595023341984
5.845448985703045,-0.4600186043218825,6.527969791343292,-1.0936222710716854
5.840848799659826,-0.3812604969887659,6.517033568632575,-1.1798222023552607
5.837036194689938,-0.3014768099515007,6.505235346609023,-1.2656692904595765
5.834021426590423,-0.22063040688607294,6.492578653704427,-1.351274399747164
5.831815122521562,-0.13869136189632836,6.479065909706955,-1.4367468406909252
5.830428208902599,-0.05563877987931931,6.464698441300047,-1.5221913518611168
5.829871821103805,0.028536857546200653,6.449476527781435,-1.6077043092070642
5.830157189679267,0.11383066664724928,6.433399484689365,-1.6933689527601088
5.8312954963457395,0.20021947878762075,6.416465795161764,-1.7792493862300471
5.833297691133616,0.28765689875059464,6.398673301299463,-1.8653830702731518
5.836174260121122,0.3760670842450229,6.380019470596732,-1.9517715018078914
5.8399349309635715,0.46533702126017507,6.360501755578653,-2.038368760511327
5.844588301176174,0.5553070902320284,6.34011806797354,-2.125067627075974
5.850141372078494,0.6457597831891588,6.3188673917027804,-2.2116830626492154
5.856598969910386,0.7364065695186426,6.296750561076288,-2.2979330233416757
5.863963035605572,0.826873153765956,6.273771230842871,-2.3834169183827068
5.872231767143232,0.916683765198872,6.249937061659044,-2.4675925651441437
5.881398604795221,1.0052457055360104,6.225261136007603,-2.5497533058716626
5.891451061850581,1.0918361764344144,6.199763602948886,-2.6290080573006267
5.902369423614925,1.1755943744166082,6.17347352237588,-2.704268416319321
5.914125367359091,1.2555228349511949,6.146430838212686,-2.7742483473239807
5.926680595708603,1.3305027274610102,6.118688354739446,-2.8374830130417372
5.939985622983213,1.3993277635361874,6.090313524609029,-2.892373305880694
5.953978900618575,1.4607599766067898,6.061389791550222,-2.9372607465461136
5.968586500384642,1.5136073602088171,6.0320171840847605,-2.970532932654409
5.98372257398673,1.5568182081398434,6.002311854758217,-2.9907526199009236
5.999290756068129,1.5895809072568186,5.972404328559207,-2.996795069731513
6.015186565140698,1.6114128839394997,5.942436377861893,-2.9879712553260735
6.031300693980093,1.6222209154206115,5.912556665308632,-2.964112375862708
6.047522903134299,1.6223188592818998,5.8829155415500045,-2.9255963565499084
6.0637460917271175,1.6123976888206422,5.853659577984505,-2.8733091529940795
6.079870068615324,1.5934537207608201,5.824926486454564,-2.8085488265667435
6.095804605822932,1.5666899961565643,5.796840998188896,-2.732892857828756
6.111471505784497,1.5334097544156189,5.769512069610609,-2.6480546365331414
6.126805603328653,1.4949191613771338,5.7430315232452775,-2.5557526024187767
6.1417547949424245,1.4524507015447492,5.71747399722109,-2.4576075889259164
6.156279301957872,1.4071117582916,5.692897921331831,-2.3550744616011294
6.170350419540788,1.3598572235496083,5.669347176715819,-2.249406364787499
6.183948991776284,1.311481576869177,5.646853113067944,-2.1416452638187016
6.197063807544976,1.2626246810037305,5.625436660429757,-2.0326308808012703
6.209690054355013,1.2137858811804916,5.605110351621744,-1.9230206284500868
6.221827913166818,1.1653421002762165,5.585880145337243,-1.813314688009129
6.23348133416958,1.1175669120662577,5.567746998457152,-1.7038821576272127
6.244657003290243,1.0706487210954296,5.55070817688088,-1.5949857694214626
6.255363490501197,1.0247070531486666,5.534758319186666,-1.4868038665879342
6.265610561032684,0.9798065584219144,5.519890280520786,-1.379449141516384
6.275408626616903,0.935968698828294,5.506095789105623,-1.272984131226902
6.284768313605186,0.8931812937558912,5.493365947793354,-1.1674337346366825
6.293700126542745,0.8514061911382227,5.481691610446987,-1.0627951348350357
6.302214188454127,0.8105853559922853,5.471063659098636,-0.9590455379079411
6.31032004201405,0.770645656564287,5.461473203719557,-0.8561481187976026
6.318026498579693,0.731502598182067,5.452911722531581,-0.7540565203518931
6.325341524561513,0.693063218428501,5.445371157328061,-0.6527181996772637
6.332272156745798,0.655228320759713,5.438843975331289,-0.5520768646953234
6.338824439953395,0.6178941904025911,5.433323206684336,-0.4520741975756158
6.345003381857421,0.5809539075708169,5.42880246470858,-0.35265102206026716
6.350812920933129,0.5442983489689581,5.425275954487978,-0.25374803878630636
6.356255904422818,0.5078169489054681,5.422738474100115,-0.15530622602729754
6.361334073911873,0.4713982755747378,5.421185411839842,-0.05726698201245055
6.366048056667621,0.4349304656055292,5.420612742019717,0.04042793172305516
6.370397361323676,0.3983015502491136,5.421017021336947,0.13783659945155735
