th1 (rad),w1 (rad/s),th2 (rad),w2 (rad/s),a1 (rad/s^2),a2 (rad/s^2)
5.61055989076488,0.41050997722821014,3.624012866827088,-2.569659161443261,4.393006698905628,6.474856850174052
5.614664990537162,0.4544400442172664,3.5983162752126554,-2.5049105929415205,4.646167173796175,6.510546936151282
5.619209390979335,0.5009017159552281,3.5732671692832403,-2.439805123580008,4.893612687752833,6.562025654545516
5.624218408138887,0.5498378428327565,3.54886911804744,-2.3741848670345527,5.135695621985681,6.629206201356509
5.629716786567214,0.6011947990526133,3.5251272693770948,-2.3078928050209875,5.372690450016746,6.711957836703213
5.63572873455774,0.6549217035527808,3.502048341326885,-2.2407732266539555,5.6047815056163355,6.810080402666908
5.642277951593268,0.7109695186089442,3.479640609060345,-2.1726724226272864,5.832049019193309,6.9232768232353035
5.649387646779358,0.7692900088008773,3.4579138848340722,-2.103439654394933,6.054453500513593,7.051123424871297
5.657080546867367,0.8298345438060132,3.436879488290123,-2.03292842014622,6.271818611946511,7.193038025307882
5.665378892305427,0.8925527299254783,3.4165502040886606,-1.9609980398931413,6.483812766224348,7.348245883670144
5.674304419604682,0.9573908575877218,3.3969402236897293,-1.88751558105644,6.689929798570578,7.515743792897488
5.683878328180559,1.0242901555734276,3.378065067879165,-1.8123581431274651,6.889469206508268,7.694262830387474
5.694121229736293,1.0931848476385102,3.35994148644789,-1.7354155148235904,7.081516621348924,7.882230567112531
5.7050530782126785,1.1640000138519995,3.3425873312996544,-1.656593209152465,7.2649253701687,8.077733867613802
5.716693078351199,1.2366492675536864,3.3260213992081296,-1.575815870476327,7.438300199100086,8.278483786085847
5.729059571026736,1.3110322695446872,3.3102632405033665,-1.4930310326154685,7.599984446266214,8.481784462567667
5.742169893722182,1.3870321140073494,3.295332930177212,-1.408213187989792,7.748052158199038,8.68450832408166
5.756040214862256,1.4645126355893399,3.281250798297314,-1.3213681047489754,7.880306813440267,8.88308026380273
5.770685341218149,1.5433157037237426,3.268037117249824,-1.232537302110948,7.994288421592317,9.073473761365996
5.786118498255386,1.6232585879396657,3.2557117442287145,-1.141802564497288,8.08729077111623,9.251222063791486
5.802351084134783,1.704131495650828,3.2442937185837417,-1.049290343859373,8.156390468585629,9.411447507371797
5.819392399091291,1.7856954003366843,3.233800815145148,-0.9551758687856551,8.19848911242291,9.548911764081126
5.837249353094658,1.8676802914609134,3.224249056457291,-0.8596867511448438,8.21036945052072,9.658089188097911
5.855926156009267,1.9497839859661206,3.215652188945843,-0.7631058592638648,8.188765674530437,9.733264485308407
5.875423995868928,2.0316716427114248,3.2080211303532042,-0.6657732144107806,8.130447118009773,9.768654629991122
5.895740712296043,2.1129761138915226,3.2013633982090965,-0.5680866681108694,8.032313594128171,9.758553350934022
5.916870473434958,2.1932992498328043,3.195682531527988,-0.47050113460152915,7.891499506042608,9.69749469809283
5.938803465933287,2.2722142448932305,3.190977520181973,-0.37352618762060086,7.705482793568324,9.580430326646974
5.961525608382219,2.3492690728289136,3.187242258305767,-0.27772188435413114,7.472193868154757,9.402913386977898
5.985018299110508,2.423991011510461,3.184465039462226,-0.18369275048435216,7.190119064446489,9.161280498848395
6.009258209225613,2.495892202154926,3.1826281119573823,-0.0920799454958682,6.858392915672385,8.852822421881369
6.034217131247162,2.56447613131165,3.181707312502424,-0.003551721277054512,6.476873819169807,8.475933877381687
6.059861892560279,2.629244869503348,3.1816717952896534,0.08120761749676236,6.046198418184196,8.030233619159151
6.0861543412553125,2.68970685368519,3.182483871464621,0.16150995368835389,5.567811239192621,7.51664728468134
6.113051409792164,2.745384966077116,3.184098971001504,0.2366764265351673,5.043967675161339,6.937447666159138
6.140505259452936,2.7958246428287294,3.186465735266856,0.30605090319675865,4.477710125289963,6.296249611091951
6.168463505881223,2.840601744081629,3.1895262442988237,0.3690133993076782,3.8728187936125797,5.597959514734597
6.196869523322039,2.879329932017755,3.1932163782919005,0.42499299445502414,3.2337401192802977,4.848682003334812
6.225662822642217,2.911667333210558,3.197466308236451,0.4734798144883723,2.5654969041924303,4.055588655780718
6.254779495974323,2.937322302252482,3.2022011063813345,0.5140357010461795,1.8735848248366198,3.226755273299112
6.284152718996848,2.9560581505008483,3.2073414633917965,0.5463032537791706,1.1638601458962166,2.3709751828317898
6.313713300501856,2.9676967519598105,3.2128044959295883,0.5700130056074885,0.442423148001408,1.497556358001135
6.343390268021454,2.9721209834398246,3.218504625985663,0.5849885691874999,-0.2844988461450913,0.6161098648610519
6.373111477855852,2.9692759949783736,3.224354511677538,0.5911496678361103,-1.0106657673856916,-0.26366354439641615
6.402804237805636,2.9591693373045165,3.230266008355899,0.5885130323921461,-1.729934165600419,-1.132182763363304
6.432395931178681,2.941869995648512,3.2361511386798205,0.5771912047585132,-2.4363601126210397,-1.9801865889485846
6.461814631135167,2.917506394522302,3.2419230507274057,0.5573893388690273,-3.1242946285550297,-2.7989207202763686
6.49098969508039,2.8862634482367517,3.247496944116096,0.5294001316662637,-3.7884708932007056,-3.5803079418447816
6.519852329562757,2.848378739304745,3.2527909454327584,0.4935970522478158,-4.42408254726061,-4.317098362174184
6.548336116955804,2.8041379138321387,3.2577269159552364,0.450426068626074,-5.026852253182833,-5.002996858785965
6.576377496094126,2.7538693913003103,3.2622311766414973,0.40039610003821435,-5.593089458605385,-5.632765103660669
6.603916190007129,2.6979384967142566,3.2662351376418797,0.34406844900160766,-6.119736086343556,-6.202295820778027
6.6308955749742715,2.636741135850821,3.269675822131896,0.2820454907938274,-6.604398759052085,-6.708657361418205
6.65726298633278,2.5706971482603,3.272496277039834,0.21495891717964535,-7.045366228572178,-7.1501073448939145
6.682969957815383,2.500243485974578,3.2746458662116305,0.1434578437307062,-7.4416109605903005,-7.526075025922202
6.70797239267513,2.4258273763686753,3.2760804446489376,0.06819709347148417,-7.7927743256785815,-7.837113183915203
6.7322306664388165,2.3478996331118895,3.2767624155836526,-0.01017403836766785,-8.099135529478762,-8.0848216019748
6.755709662769935,2.266908277817102,3.276660675199976,-0.09102225438741586,-8.361565206511168,-8.271745494478964
6.778378745548106,2.1832926257519905,3.275750452656102,-0.1737397093322055,-8.581465412358002,-8.401253414655958
6.800211671805626,2.0974779716284107,3.2740130555627798,-0.2577522434787651,-8.760698481495238,-8.477400096324304
6.8211864515219105,2.0098709868134583,3.2714355331279923,-0.34252624444200813,-8.901507787289045,-8.504780253750736
6.841285161390045,1.920855908940568,3.2680102706835723,-0.4275740469795155,-9.006433784693995,-8.488379520994947
6.860493720479451,1.830791571093628,3.2637345302137772,-0.512457842189465,-9.07822880459994,-8.433428449349096
6.878801636190388,1.7400092830476286,3.2586099517918825,-0.596792126682956,-9.119773904748714,-8.345264840610499
6.896201729020864,1.6488115440001414,3.252642030525053,-0.680244775089061,-9.13400069875573,-8.22920875717758
6.912689844460865,1.5574715370125842,3.2458395827741624,-0.7625368626608368,-9.123820537027598,-8.090453424631335
6.928264559830991,1.4662333316423082,3.238214214147554,-0.8434413969071501,-9.092062767919318,-7.933974043854681
6.942926893147414,1.375312703963115,3.2297798001784828,-0.922781137345697,-9.041423132224311,-7.764455365391199
6.9566800201870445,1.2848984726408719,3.220551988805026,-1.000425690999609,-8.974422699417977,-7.586237836429478
6.969529004913453,1.1951542456466921,3.2105477318950295,-1.0762880693639039,-8.8933771868486,-7.4032812715467005
6.98148054736992,1.1062204737782062,3.1997848512013904,-1.1503208820793709,-8.800376043785617,-7.21914435454027
6.992542752107703,1.0182167133403501,3.1882816423805966,-1.2225123256247736,-8.697270345022627,-7.036977856408007
7.002724919241106,0.9312440098901239,3.176056519124349,-1.2928821041888536,-8.58566832350098,-6.859529238805097
7.012037359340007,0.8453873266551141,3.16312769808246,-1.3614773965769047,-8.466937267283788,-6.68915627359101
7.020491232606558,0.7607179539822762,3.149512924116691,-1.4283689593128148,-8.342210495337385,-6.527847409972698
7.028098412146381,0.6772958490289023,3.1352292345235626,-1.4936474334125418,-8.21239818781115,-6.3772468217141665
7.03487137063667,0.5951718671507907,3.1202927601894372,-1.5574199016296835,-8.078200958333634,-6.238682330620985
7.040823089308177,0.5143898575674544,3.1047185611731405,-1.6198067249358934,-7.940125198526674,-6.113194696818389
7.045966987883852,0.4349886055821876,3.0885204939237814,-1.6809386719040773,-7.798499381807316,-6.001567065551127
7.050316873939674,0.35700361176411444,3.0717111072047407,-1.7409543425595886,-7.653490671558791,-5.904353645521697
7.053886910057315,0.2804687050485265,3.054301563779145,-1.7999978790148055,-7.5051213285086105,-5.821906952710452
7.0566915971078,0.20541749176344037,3.0363015849889967,-1.85821694854191,-7.353284547550326,-5.75440317918319
7.058745772025435,0.1318846462879371,3.017719415503578,-1.9157609803337419,-7.197759471925102,-5.701865435881705
7.0600646184883145,0.05990705156868609,2.9985618057002403,-1.972779634692559,-7.0382252314025475,-5.664184772240626
7.060663689004001,-0.010475200745339391,2.9788340093533145,-2.0294214824149654,-6.874273931150663,-5.641138996204756
7.060558936996548,-0.07921794005684603,2.9585397945291647,-2.085832872377013,-6.705422580637434,-5.632409409586412
7.0597667575959795,-0.14627216586322037,2.9376814658053947,-2.1421569664728772,-6.531123998997218,-5.63759564000745
7.058304035937347,-0.21158340585319255,2.916259896140666,-2.1985329228729515,-6.35077676688935,-5.656228796288874
7.056188201878815,-0.27509117352208606,2.8942745669119363,-2.25509521083584,-6.163734317037701,-5.687783203202373
7.053437290143594,-0.33672851669246306,2.871723614803578,-2.311973042867864,-5.969313268273641,-5.731686987654379
7.05007000497667,-0.39642164937519947,2.8486038843748993,-2.369289912744408,-5.766801112671799,-5.787331794769882
7.046105788482918,-0.45408966050191746,2.824910985247455,-2.4271632306921065,-5.5554633636424136,-5.854081911552384
7.041564891877899,-0.5096442941383416,2.800639352940534,-2.48570404980763,-5.3345502657093204,-5.93128306985784
7.036468448936516,-0.5629897967954347,2.7757823124424577,-2.545016880506209,-5.10330315496966,-6.018271190891934
7.030838550968562,-0.6140228283451313,2.7503321436373955,-2.6051995924151283,-4.860960543472188,-6.114381321472614
7.0246983226851105,-0.6626324337798533,2.724280147713244,-2.6663434056298545,-4.606763981341944,-6.218956998713108
7.018071998347312,-0.7087000735932727,2.6976167136569456,-2.7285329756169854,-4.339963727648785,-6.331360265146878
7.01098499761138,-0.7520997108697606,2.6703313839007756,-2.791846578268454,-4.059824234896758,-6.450982541036381
7.0034640005026825,-0.7926979532187282,2.642412918118091,-2.856356403678818,-3.765629422686888,-6.5772565449931575
6.995537020970495,-0.830354247445597,2.613849354081303,-2.9221289691287495,-3.4566876836670004,-6.709669438377094
6.987233478496039,-0.8649211242822671,2.5846280643900155,-2.9892256635125203,-3.1323365294767016,-6.847777353579167
6.978584267253217,-0.8962444895770341,2.55473580775489,-3.057703437048312,-2.7919467462744105,-6.991221451676172
6.969621822357446,-0.9241639570397782,2.524158773384407,-3.1276156515650735,-2.4349258890037353,-7.139745641696433
6.960380182787048,-0.9485132159298155,2.4928826168687563,-3.199013107982038,-2.0607209014290087,-7.293216082676244
6.95089505062775,-0.9691204249441057,2.460892485788936,-3.2719452688088,-1.6688196060110585,-7.451642581867806
6.941203846378309,-0.9858086210042163,2.428173033100848,-3.3464616946274783,-1.2587507650847283,-7.615201999140758
6.931345760168266,-0.9983961286550636,2.394708416154573,-3.422613714618886,-0.8300823741094961,-7.784263770209866
6.9213617988817155,-1.0066969523961584,2.360482279008384,-3.5004563523209846,-0.3824178110588439,-7.959417671234511
6.911294829357754,-1.010521130506747,2.3254777154851745,-3.5800505290333295,0.08461056398077409,-8.141503965730658
6.901189618052687,-1.0096750248669393,2.2896772101948413,-3.661465568690636,0.5713507845534423,-8.33164610207936
6.8910928678040175,-1.003961517021405,2.253062554507935,-3.7447820297114296,1.0781440586734041,-8.531286165259967
6.881053252633803,-0.9931800764346709,2.2156147342108206,-3.830094891364029,1.6053413660953542,-8.742223326271057
6.871121451869457,-0.9771266627737173,2.1773137852971804,-3.9175171246267397,2.153324231692607,-8.966655569118915
6.86135018524172,-0.9555934204567912,2.138138614050913,-4.007183680317929,2.7225299335991275,-9.2072249930282
6.851794251037152,-0.9283681211207999,2.0980667772477335,-4.09925593024821,3.3134812293213547,-9.467066959456513
6.842510569825944,-0.8952333088275863,2.0570742179452512,-4.193926599842776,3.9268203935490837,-9.749863232895745
6.833558236737668,-0.8559651048920955,2.0151349519468233,-4.291425232171733,4.563346894663731,-10.059898973060232
6.824998585688747,-0.8103316359454582,1.972220699625106,-4.392024221902335,5.224057291335998,-10.402122844393693
6.816895269329293,-0.7580910630320983,1.9283004574060827,-4.496045450346272,5.910184742139136,-10.782208404046028
6.8093143586989715,-0.6989892156107069,1.88334000290262,-4.603867534386732,6.623233624547082,-11.206612962934239
6.802324466542864,-0.6327568793652361,1.8373013275587526,-4.715933664016075,7.365001725480807,-11.682626715786753
6.7959968977492125,-0.559106862110428,1.7901419909185918,-4.832759931173943,8.13757759783068,-12.21839917247921
6.790405829128108,-0.47773108613212123,1.7418143916068525,-4.954943922898734,8.943292850028444,-12.82292027127413
6.785628518266787,-0.3882981576318368,1.6922649523778652,-5.083173125611475,9.784596532735538,-13.505917534916208
6.781745536690469,-0.2904521923044814,1.6414332211217504,-5.218232300960637,10.663798500835991,-14.277604233064562
6.778841014767424,-0.18381420729612147,1.589250898112144,-5.3610083432912825,11.582596071596999,-15.148170340875586
6.777002872694462,-0.06798824658015147,1.5356408146792313,-5.512490046700038,12.541246416357719,-16.126838171340548
6.77632299022866,0.05742421758342571,1.4805159142122308,-5.673758428413444,13.537165589053226,-17.220193088823297
6.776897232404495,0.192795873473958,1.4237783299280964,-5.845960359301676,14.562610244866427,-18.429326555964995
6.7788251911392345,0.33842197592262224,1.3653187263350797,-6.030253624861326,15.600915930119992,-19.745071990947956
6.782209410898461,0.4944311352238222,1.3050161900864663,-6.227704344770806,16.620524384745348,-21.140265806680485
6.787153722250699,0.6606363790712757,1.2427391466387583,-6.439107002837611,17.56577886374779,-22.55758275030869
6.793760086041412,0.8362941677087536,1.1783480766103822,-6.6646828303406975,18.34339203524521,-23.89132496945369
6.802123027718499,1.0197280880612056,1.1117012483069753,-6.903596080035235,18.80413584418043,-24.962313024478057
6.812320308599111,1.20776944650301,1.042665287506623,-7.153219210280016,18.721905327462924,-25.488424106796078
6.824398003064141,1.3949884997776392,0.9711330954038228,-7.408103451347976,17.779072078266246,-25.062396393851177
6.838347888061918,1.5727792205603017,0.897052060890343,-7.658727415286489,15.580116505621945,-23.16632622511886
6.854075680267521,1.7285803856165212,0.820464786737478,-7.8903906775376775,11.731499706594983,-19.274374216108047
6.871361484123686,1.845895382682471,0.7415608799621013,-8.083134419698759,6.022976931547003,-13.092159753856357
6.889820437950511,1.9061251519979412,0.6607295357651137,-8.214056017237322,-1.3206594847157984,-4.8919099347793935
6.9088816894704905,1.8929185571507832,0.5785889755927405,-8.262975116585116,-9.488509118509635,4.28765049680561
6.927810875041998,1.798033465965687,0.49595922442688933,-8.22009861161706,-17.268625514124725,12.893422355777693
6.945791209701655,1.6253472108244398,0.41375823831071873,-8.091164388059282,-23.563601454470895,19.5482771174569
6.9620446818099,1.3897111962797308,0.33284659443012593,-7.895681616884713,-27.850647730003708,23.653006627083865
6.975941793772697,1.1112047189796939,0.2538897782612788,-7.659151550613874,-30.232509762070258,25.430687814035064
6.987053840962494,0.8088796213589913,0.17729826275514005,-7.404844672473524,-31.16085702051355,25.54006875316205
6.995142637176084,0.4972710511538558,0.10324981603040481,-7.149443984941903,-31.13879983909967,24.67723450563698
7.000115347687623,0.1858830527628591,0.031755376180985784,-6.902671639885533,-30.56595773092028,23.3781965220788
7.001974178215251,-0.11977652454634374,-0.03727134021786954,-6.668889674664745,-29.707938113670423,21.988866535330768
7.000776412969787,-0.416855905683048,-0.10396023696451699,-6.449001009311437,-28.72152985170349,20.706045852604355
6.996607853912957,-0.704071204200083,-0.16845024705763134,-6.241940550785394,-27.690292092516277,19.62857626575154
6.989567141870957,-0.9809741251252457,-0.23086965256548528,-6.045654788127878,-26.653424157070916,18.797006046890267
6.979757400619705,-1.2475083666959548,-0.29132620044676405,-5.857684727658976,-25.625233251092414,18.21937414839061
6.967282316952745,-1.5037606992068788,-0.3499030477233538,-5.6754909861750695,-24.60715698082842,17.886497162170585
6.952244709960676,-1.749832269015163,-0.4066579575851045,-5.496626014553364,-23.59484342529537,17.780521796076236
6.934746387270525,-1.9857807032681167,-0.4616242177306381,-5.318820796592601,-22.582199079185663,17.87950234093368
6.914888580237843,-2.2116026940599736,-0.5148124256965642,-5.140025773183265,-21.56364374070864,18.159755457191338
6.8927725532972435,-2.42723913146706,-0.5662126834283968,-4.958428218611351,-20.53531789213333,18.597031689866423
6.868500161982573,-2.6325923103883935,-0.6157969656145104,-4.772457901712687,-19.495673837433838,19.167097026907108
6.842174238878689,-2.827549048762732,-0.6635215446316373,-4.580786931443615,-18.445695072010754,19.846053454716014
6.813898748391062,-3.0120059994828394,-0.7093294139460734,-4.382326396896455,-17.388881937201052,20.61057428470395
6.783778688396233,-3.18589481885485,-0.7531526779150379,-4.176220654049415,-16.331083100529384,21.43814164776285
6.7519197402076845,-3.349205649860144,-0.794914884455532,-3.961839237571787,-15.280221549302606,22.307322248022945
6.718427683709083,-3.50200786535317,-0.8345332768312499,-3.7387660150915574,-14.245948438710098,23.198087444075597
6.683407605055551,-3.644467349740271,-0.8719209369821654,-3.5067851406508015,-13.239251085540037,24.09216624519617
6.646962931558148,-3.7768598605956716,-0.9069887883886735,-3.2658634781988396,-12.272038353517413,24.973410093648916
6.609194332952192,-3.8995802441308456,-0.9396474231706619,-3.0161293772623505,-11.356725064200075,25.82814369871021
6.570198530510883,-4.013147494772847,-0.9698087169432854,-2.7578479402752483,-10.505835344021662,26.6454750997075
6.530067055563154,-4.118205848213063,-0.9973871963460379,-2.491393189278173,-9.731642062243322,27.417539413108447
6.488884997081024,-4.215522268835496,-1.0223011282388197,-2.2172177951470884,-9.045855173024822,28.13965329093854
6.446729774392669,-4.305980820565744,-1.0444733061902907,-1.935821262237703,-8.45936547169393,28.81035976304914
6.403669966187011,-4.390574475282683,-1.0638315188126677,-1.6477176646072116,-7.9820416314268465,29.431344309924096
6.359764221434184,-4.470394891596952,-1.0803086954587398,-1.3534042215079707,-7.622566808475104,30.007200673446363
6.315060272518215,-4.546620559681703,-1.0938427376738196,-1.0533322147735071,-7.3882855079948975,30.545016283642422
6.269594066921398,-4.620503414761652,-1.1043760598215546,-0.7478820519370829,-7.285009841931563,31.05372839303194
6.223389032773781,-4.693353513180967,-1.1118548803409254,-0.43734476800676353,-7.316703488264395,31.54316758801551
