th1 (rad),w1 (rad/s),th2 (rad),w2 (rad/s)
5.34619417245933,1.2438828096824062,4.244077315720222,-0.14735557817370215
5.358633000556154,1.3062464234856916,4.242603759938485,-0.07427327273464729
5.371695464791012,1.3678442708110872,4.241861027211139,0.0013814974129709584
5.3853739074991225,1.4285858785222094,4.241874842185269,0.07972685947275325
5.399659766284344,1.4883753160498947,4.2426721107799965,0.16087384892824774
5.414543519444843,1.5471103268052282,4.244280849269279,0.24492563077237256
5.430014622712895,1.6046814323591552,4.246730105577003,0.3319766753649629
5.446061437036487,1.660971019124101,4.250049872330652,0.4221118913014278
5.462671147227728,1.7158524190443636,4.254270991243666,0.5154057202374245
5.479829671418171,1.7691889976931734,4.25942504844604,0.6119212016444608
5.497521561395103,1.8208332651601642,4.265544260462485,0.7117090189716098
5.5157298940467046,1.8706260271539887,4.272661350652201,0.8148065426457802
5.534436154318245,1.918395595783884,4.280809416078658,0.9212368897249775
5.553620110276084,1.9639570814439364,4.290021784975908,1.0310080247708244
5.573259681090523,2.0071117890049326,4.300331865223616,1.144111931547271
5.593330798980572,2.047646742997377,4.311772984539089,1.2605238903715474
5.613807266410546,2.085334367497463,4.324378223442804,1.380201901199069
5.63466061008552,2.1199323468341165,4.338180242454794,1.5030862976415542
5.655859933553861,2.1511836928279005,4.35321110543121,1.62909960189065
5.67737177048214,2.1788170428448326,4.3695021014501165,1.758146674712741
5.699159940910588,2.2025472102862427,4.3870835681972435,1.890115218036751
5.721185413013451,2.222076005030507,4.405984720377611,2.02487668990494
5.7434061730637564,2.2370933356037273,4.426233487276661,2.1622876924263434
5.765777106419794,2.2472785973318152,4.447856364200924,2.3021918926097693
5.788249892393112,2.2523023413233654,4.470878283127022,2.44442253334081
5.8107729158063455,2.251828207843724,4.49532250846043,2.588805587146034
5.833291197884782,2.2455150945723426,4.5212105643318905,2.735163598677985
5.855746348830506,2.233019515639592,4.5485622003186705,2.8833202530752025
5.878076543986902,2.2139980916469972,4.577395402849422,3.03310569662785
5.900216524903372,2.1881100947344225,4.607726459815701,3.1843626237384206
5.922097625850716,2.155019957077666,4.639570086053085,3.336953130303391
5.943647825421492,2.1143996372038494,4.672939617356119,3.4907663186446807
5.964791821793531,2.0659307278163643,4.707847280542565,3.645726623134025
5.985451129071695,2.0093061835558426,4.744304546773906,3.8018028084442057
6.005544190907253,1.9442315501313499,4.782322574858348,3.959017572931999
6.024986506408567,1.870425591429332,4.821912750587668,4.117457665642945
6.04369076232286,1.7876202440609243,4.863087327244097,4.277284392135341
6.061566964763469,1.695559887437614,4.90586017116545,4.438744333225346
6.078522563637845,1.5940000141457302,4.9502476144977035,4.602180017121248
6.094462563779302,1.482705539189129,4.996269414668916,4.768040144529286
6.109289619171194,1.361449227667814,5.043949816114209,4.9368887275097455
6.122904111447872,1.2300110964529845,5.093318703389306,5.109412100089187
6.135204222412402,1.0881802323009406,5.144412824390198,5.286422085774394
6.146086024735411,0.9357613861168624,5.197277045247942,5.468852495795187
6.15544363859658,0.772590135439125,5.251965570205894,5.657744319910971
6.163169539950971,0.5985626305397643,5.308543013405004,5.8542120632834225
6.169155166256369,0.41368934022178483,5.367085134037838,6.059379114887975
6.1732920596585865,0.21818726414566453,5.427678925186718,6.274263093427678
6.175473932300044,0.012632168193812632,5.490421556120994,6.499582155609948
6.175600253981981,-0.20179873380073826,5.555417377677093,6.73544042360997
6.173582266643974,-0.4229549995060127,5.622771781913193,6.980837975218899
6.169352716648914,-0.6471737788562124,5.692580161665382,7.232948671317333
6.162880978860352,-0.8685634803416143,5.764909648378556,7.48614387724622
6.154195344056936,-1.0781954249059815,5.839771087151018,7.730864108430705
6.143413389807876,-1.2635003474552313,5.917079728235325,7.95272419888015
6.130778386333324,-1.4084984762613435,5.996606970224126,8.13268896450884
6.116693401570711,-1.495739737232575,6.077933859869214,8.249501783699504
6.101736004198385,-1.510431716658583,6.160428877706209,8.285023361357819
6.086631687031799,-1.4456640618850318,6.2432791113197865,8.231028918101355
6.072175046412949,-1.3057391491601136,6.3255894005008,8.093466563177513
6.059117654921348,-1.1049240607015878,6.406524066132576,7.890636236614715
6.048068414314332,-0.8622769759040856,6.485430428498723,7.64627204856833
6.0394456445552915,-0.5960594527789873,6.561893148984406,7.3822786358938375
6.033485050027502,-0.32052068951578827,6.635715935343344,7.114762593485932
6.030279843132344,-0.04529185981358086,6.706863561278204,6.853534885428852
6.029826924534208,0.22378583944820324,6.775398910132492,6.603428376623357
6.03206478292869,0.4834863944001688,6.841433193898726,6.365974010402627
6.036899646872691,0.7322019584493307,6.905092934002752,6.140768520890246
6.044221666457185,0.9692474515683214,6.966500619211654,5.926403242100989
6.053914140972868,1.1944244387012564,7.025764651632664,5.72103394873611
6.06585838535988,1.4077665031976274,7.082974991120025,5.522707848024513
6.079936050391857,1.6093998979910547,7.13820206960027,5.329541137117863
6.096030049371768,1.7994735196726168,7.1914974809714485,5.139809565499012
6.114024784568494,1.9781290374892209,7.242895576626439,4.951990180991802
6.1338060749433865,2.145493454930564,7.292415478436357,4.76477642191634
6.155261009492692,2.3016835572283627,7.34006324265552,4.577078954675872
6.178277845064976,2.4468160192427404,7.385834032202279,4.388018965899315
6.202746005257403,2.5810195058445182,7.429714221861272,4.196917405792784
6.228556200315848,2.704446608488698,7.4716833959192,4.003281922548024
6.255600666400735,2.81728436650595,7.511716215144681,3.8067923092369784
6.283773510065794,2.9197626784023063,7.54978413823705,3.607284841515674
6.312971136849817,3.012160265527642,7.585856986652207,3.4047357050216815
6.343092739505093,3.094808090956539,7.619904343702424,3.199243672042756
6.374040820414659,3.1680903056111926,7.6518967804228515,2.991012215325978
6.405721723470771,3.2324429153969745,7.6818069025761115,2.7803313000692347
6.438046152624741,3.2883504495114795,7.709610215576804,2.5675591483417577
6.470929657119856,3.3363409671473736,7.7352858070602215,2.353104309696182
6.50429306679133,3.3769797707693745,7.758816850157183,2.137408391092221
6.538062864499024,3.4108622012749885,7.780190934068106,1.9209297969086139
6.572171486511774,3.4386058758781446,7.799400232037192,1.7041288076552565
6.606557545270555,3.4608426960389336,7.816441520113744,1.4874542882479325
6.641165972230945,3.478210903091495,7.8313160629962235,1.2713322691471263
6.6759480812618595,3.4913473964275563,7.844029385687695,1.0561565929409342
6.710861555226135,3.5008804560468008,7.854590951617104,0.8422817720725361
6.745870359786603,3.5074229303618676,7.8630137693378295,0.63001816733283
6.780944589090222,3.511565862908968,7.869313951011158,0.41962957810385354
6.816060247719311,3.513872438577342,7.873510246792196,0.21133334032304396
6.8511989721050846,3.5148720304850207,7.875623580195427,0.005303062340529685
6.8863476924099345,3.5150540209945933,7.875676610818832,-0.19832580289104398
6.92149823261988,3.514860952290026,7.873693352789922,-0.39944724489645345
6.9566468421427805,3.5146804316074136,7.869698880340957,-0.5979723927381453
6.991793646458855,3.5148350743832917,7.863719156413576,-0.7938129925882883
7.026941997202687,3.515569622411143,7.855781026487693,-0.9868598342987707
7.062097693426799,3.517034243773616,7.845912428144706,-1.1769551035347963
7.097268035864535,3.5192629509244426,7.8341428771093575,-1.3638575195040084
7.132460665373779,3.5221461472565427,7.820504301914317,-1.5471991982448419
7.167682126846344,3.5253966777521146,7.805032309931869,-1.7264336652125258
7.202936093623865,3.5285096487536474,7.787767973279744,-1.900775654321004
7.2382211901114015,3.530718023390744,7.768760216736534,-2.0691357296439703
7.273528370345309,3.530948972410271,7.748068859440094,-2.2300568751698777
7.308837860069412,3.527790429940356,7.7257682906883955,-2.3816663758224212
7.344115764368815,3.5194830326301116,7.701951626930171,-2.5216642085118957
7.379310594695116,3.503958208539557,7.676734984845052,-2.647376792104492
7.414350176780511,3.4789453287617356,7.650261216924007,-2.7559076701152883
7.449139630068128,3.44216428605866,7.622702140222854,-2.844407169848836
7.483561272928715,3.3915994492220385,7.594258068524366,-2.910454124802543
7.517477267420936,3.3258167027799357,7.56515352727634,-2.952494593425466
7.550735434448735,3.244248610865208,7.535628581342086,-2.9702313633690305
7.583177920557388,3.147356383587189,7.5059262677083955,-2.9648359498740664
7.61465148439326,3.0366020731801395,7.476277908209655,-2.9388908296796843
7.645017505125061,2.9142280984036564,7.446888999912858,-2.8960602309561634
7.674159786109097,2.782911581608961,7.417928397603296,-2.840587097052724
7.701988901925187,2.6453976181747842,7.389522526632769,-2.7767647570001404
7.728442878106935,2.504202302531397,7.361754879062768,-2.708511927721198
7.753484901132249,2.3614306817286934,7.334669759785556,-2.6391142393687677
7.7770992079495365,2.2187079288885325,7.308278617391869,-2.5711287517271773
7.799286287238422,2.0771941917662122,7.282567329874597,-2.5064085326807306
7.820058229156084,1.937647000044661,7.25750324454779,-2.446195279039363
7.839434699156531,1.8005016504575262,7.233041291757396,-2.3912374795023728
7.857439715661106,1.6659506479617106,7.2091289169623725,-2.341906948149093
7.874099222140723,1.53401269050884,7.185709847480881,-2.2983000572876886
7.889439349045811,1.404588051055772,7.162726846908004,-2.260319131825283
7.903485229556369,1.2775007390978743,7.140123655589751,-2.227734536862662
7.916260236947348,1.152529376855509,7.1178463102211245,-2.2002302297261416
7.927785530715903,1.029429132714862,7.095844007923863,-2.1774361445072485
7.9380798220430515,0.9079469019239963,7.07406964647879,-2.1589505685991455
7.947159291062292,0.7878315585455954,7.052480140792799,-2.1443551532380503
7.955037606647748,0.6688407016445729,7.0310365892604185,-2.1332246298165356
7.961726013664194,0.5507449604291582,7.009704342962253,-2.125132792993495
7.967233463268485,0.4333306321561359,6.988453015032318,-2.1196558963735033
7.971566769590046,0.316401202812002,6.967256456068584,-2.116374287015285
7.974730781618166,0.19977813405322709,6.946092713198431,-2.114872867568765
7.976728562958698,0.08330117859081733,6.924943984522743,-2.114740802428423
7.977561574744606,-0.033171600952710656,6.903796576498459,-2.11557076115391
7.977229858735079,-0.1497639968005975,6.882640868886919,-2.116957905527231
7.975732218767073,-0.26658193556985577,6.861471289831647,-2.1184987658762897
7.973066399411374,-0.3837138350629533,6.840286302172884,-2.1197901101134207
7.969229261060745,-0.5012310229920259,6.81908840107175,-2.120427879744561
7.964216950830824,-0.61918821819985,6.797884122274304,-2.1200062468555134
7.958025068648825,-0.7376240863291955,6.776684059805749,-2.118116831853366
7.950648827785534,-0.8565618900785594,6.7555028914872155,-2.1143481114192753
7.942083208884748,-0.9760102600351168,6.734359410373023,-2.108285038175802
7.932323106284397,-1.0959641161652198,6.713276559991265,-2.0995088868594967
7.921363465122744,-1.2164057727314033,6.69228147112267,-2.0875973354813038
7.90919940739543,-1.3373062609132704,6.671405497767857,-2.072124783429508
7.895826344786298,-1.458626903866086,6.650684249933562,-2.0526629012580893
7.881240075747637,-1.5803211784292477,6.630157620920981,-2.02878139867083
7.865436863963344,-1.7023368962465661,6.609869806934273,-2.000048987732312
7.848413495000878,-1.8246187347310752,6.58986931705695,-1.9660345074896477
7.830167307653568,-1.9471111451682948,6.570208971982053,-1.9263081639593351
7.810696196201885,-2.069761661407539,6.55094589034246,-1.880442825924436
7.7899985795878095,-2.1925246281887127,6.532141462083215,-1.8280153024330668
7.768073333305923,-2.3153653633838682,6.513861309058885,-1.768607512679138
7.744919679672084,-2.4382647635221613,6.496175233932093,-1.7018074436562625
7.720537032036862,-2.561224357137028,6.47915715949553,-1.6272097764158682
7.694924788465492,-2.684271805886489,6.462885061731372,-1.544416049049942
7.668082070406627,-2.807466849041349,6.447440901240872,-1.4530342152077746
7.640007401916214,-2.930907682449476,6.4329105590887945,-1.352677453230835
7.610698325091719,-3.0547377574569836,6.419383784556486,-1.2429620860189214
7.580150947517149,-3.179152976363612,6.406954163696297,-1.1235044902613405
7.548359417753513,-3.304409244778512,6.395719118793684,-0.9939169129743188
7.515315325305728,-3.43083031054988,6.385779949663941,-0.8538021848930593
7.481007022200229,-3.558815761423293,6.37724192781501,-0.7027474426715794
7.445418864585997,-3.688848948418622,6.370214453388295,-0.5403171751149248
7.408530375101811,-3.821504414410333,6.364811281637145,-0.366046241993932
7.370315330957707,-3.9574540802122127,6.3611508192172055,-0.17943405797212825
7.330740790155585,-4.09747087953252,6.359356478637484,0.020057979470486792
7.28976608136026,-4.24242758659451,6.359557058432189,0.23300229692040544
7.247341805494315,-4.393287001340204,6.3618870814013935,0.45998832627540576
7.203408935480914,-4.5510770659018105,6.366486964664148,0.701583434585428
7.157898164821895,-4.716840318188388,6.373502799010002,0.95825600647545
7.110729761640012,-4.891540589564779,6.383085359074757,1.2302358783583403
7.061814355744364,-5.075900244039102,6.39538771785834,1.5172738532431207
7.011055353303973,-5.270128420762363,6.410560456390772,1.8182442581717746
6.958354069096349,-5.473487260454095,6.428742898972489,2.13051632510156
6.903619196491808,-5.6836391651863485,6.450048062223504,2.4490163744917766
6.846782804839944,-5.89575111439714,6.4745382259684225,2.7649525623012674
6.787825293695973,-6.101458048650322,6.5021877515914355,3.064357148657375
6.72681071320947,-6.288082497541175,6.5328313230780095,3.327025352635107
6.663929888234058,-6.4389714857019635,6.5661015766043604,3.5270917425274524
6.599540173377038,-6.536106633465588,6.6013724940296346,3.636900347896144
6.534179107042382,-6.5653990713976595,6.637741497508596,3.634751121761925
6.468525116328405,-6.522715196680635,6.674089008726216,3.5137126055468695
6.403297964361599,-6.416489169045635,6.709226134781685,3.2855385150502983
6.339133072671142,-6.264397738073281,6.742081519932188,2.9760095255328807
6.276489095290409,-6.086492412882636,6.771841615187516,2.615059650430109
6.215624171161583,-5.899518711692712,6.797992211691818,2.228462622471579
6.156628984044656,-5.714709668601755,6.820276837916533,1.8344402119473586
6.099481887358638,-5.538234215256826,6.838621240036007,1.4441100354745589
6.04409954520607,-5.372635674054094,6.8530623403907525,1.0634250865333605
5.9903731884655285,-5.218220448184702,6.863696591256086,0.6951057895644301
5.938190983983682,-5.074061153912114,6.8706476491517305,0.34005868239839815
5.887450372444561,-4.938627032481115,6.874048235975715,-0.0017213879121054654
5.838064102119749,-4.810149038752664,6.8740310220965934,-0.33062518137905583
5.789962611732222,-4.6868195996729805,6.870724770282803,-0.6471427854214659
5.743094415735492,-4.566896690138861,6.864253342428588,-0.951720230968889
5.697425448834104,-4.448755224594123,6.8547361401188995,-1.2446980261845104
5.6529378965881625,-4.330910640374363,6.842289159857055,-1.52629541717523
5.609628790184419,-4.212028436917614,6.827026205685303,-1.7966194982618495
5.567508505815243,-4.090926962293513,6.809060010702684,-2.055687254324014
5.526599236192308,-3.9665770782721914,6.788503138159443,-2.3034537088603377
5.486933465409587,-3.8381003134590523,6.76546860107084,-2.539842199369485
5.448552462274996,-3.7047660317038305,6.7400701790771445,-2.7647743879668227
5.411504801957958,-3.565987597842798,6.712422435197476,-2.9781985096062438
5.375844925979529,-3.421317286300064,6.682640450101414,-3.18011488621728
5.341631753116529,-3.2704396196842986,6.650839301239241,-3.370598072355045
5.3089273569196855,-3.113162868151116,6.61713332051569,-3.5498152437425863
5.277795728238174,-2.949408539735958,6.5816351680782645,-3.718040643889587
5.248301642840814,-2.779198817462472,6.5444547616393685,-3.8756660879197433
5.2205096546661895,-2.6026420307559324,6.505698100760171,-4.023207693294475
5.19448323435863,-2.4199163726483834,6.465466023827226,-4.1613091620036915
5.170284070632146,-2.231252181256418,6.423852932207189,-4.29074207106574
5.147971548819582,-2.0369131892262624,6.380945511496532,-4.412403728529103
5.127602416927319,-1.8371772081983813,6.3368214742112405,-4.527313209892964
5.1092306448453355,-1.6323167623754553,6.291548342112311,-4.636606192631721
5.092907477221581,-1.4225802285175215,6.245182280185993,-4.741529138759272
5.078681674936406,-1.2081741008690425,6.1977669887984,-4.843433214901909
5.066599933927716,-0.9892471131098937,6.149332656649381,-4.94376805136128
5.056707462796616,-0.7658771683732767,6.099894976135769,-5.0440749690698174
5.049048691112883,-0.53806243339128,6.049454226445071,-5.14597855181713
5.04366806677897,-0.3057186666135618,5.9979944409269,-5.25117425665034
5.040610880112834,-0.0686860576779734,5.945482698360396,-5.361407893024256
5.039924019536055,0.17324917132516637,5.891868619430154,-5.4784398873296425
5.041656511249307,0.4203100376826479,5.837084220556857,-5.603982751325593
5.045859611626133,0.6726478683524915,5.781044393043601,-5.739593428552979
5.052586090309658,0.9302054343312254,5.723648458758071,-5.88649264013141
5.06188814465297,1.1924961190158176,5.664783532356758,-6.045271305481514
5.073813105843128,1.4582636334228654,5.604330819301943,-6.215432820527
5.088395742177357,1.7249880746602588,5.542176491096673,-6.394720160427449
5.1056456229239595,1.988233136225023,5.478229289492399,-6.578214596477633
5.12552795428621,2.2409214725995583,5.412447143527622,-6.757317645223443
5.147937169012206,2.47282301794145,5.3448739670753875,-6.918999688900077
5.1726653991916205,2.6708321608069063,5.275683970186387,-7.046103150350331
5.19937372079969,2.8207814802951074,5.205222938682883,-7.119734132666942
5.227581535602641,2.911087277775188,5.134025597356214,-7.124166226566846
5.256692408380393,2.9370968544637637,5.062783935090545,-7.05272809178507
5.28606337692503,2.9035383560813717,4.992256654172694,-6.911130323168534
5.315098760485844,2.8230678744983875,4.923145350941009,-6.7155064616459965
5.3433294392308275,2.711798377198591,4.855990286324548,-6.4863997217680955
5.370447423002814,2.5847711509835283,4.7911262891068676,-6.242733110357109
5.396295134512649,2.4534762465528854,4.728698958003297,-5.99858886503752
5.420829896978178,2.3254721762095554,4.668713069352922,-5.762811740088941
5.444084618740274,2.205121810904191,4.611084951952033,-5.540074546554642
5.4661358368493165,2.0945828205571555,4.555684206486486,-5.3322412648041695
5.487081665054888,1.9946435389550008,4.502361793838444,-5.139490524227616
5.507028100444439,1.905309459645851,4.450966888596168,-4.9610872579277405
5.526081195040897,1.8261758560809023,4.401356016016891,-4.795861012758023
5.5443429536017055,1.7566500627600803,4.353397405889311,-4.642482192084688
5.561909454229307,1.6960777363102577,4.306972583968464,-4.499611793090827
5.5788702315924095,1.6438110258340717,4.261976466037556,-4.365976355774675
5.5953083418507505,1.5992428212604903,4.218316702479809,-4.240400505987895
5.611300770063355,1.561821749346666,4.17591269741993,-4.121816395897646
5.626918987556822,1.5310565680527775,4.134694533460953,-4.009261196213667
5.64222955323735,1.5065149588939162,4.094601921498817,-3.901868933576266
5.657294702826289,1.4878195540708568,4.0555832321630545,-3.798860140728678
5.6721728983669975,1.4746427715447217,4.0175946307557675,-3.6995311736472876
5.686919326082445,1.466701299586473,3.9805993190192948,-3.6032441435207394
5.70158633907831,1.4637506519096428,3.944566877584087,-3.509417912632087
5.716223845597407,1.4655799749178258,3.9094726984577663,-3.4175203371236886
