th1 (rad),w1 (rad/s),th2 (rad),w2 (rad/s)
5.6991700942363055,-2.7940315786988297,3.146266927771206,0.4046335064369132
5.671229778449317,-2.6842783618739685,3.150313262835575,0.5397178418140611
5.644386994830577,-2.5754143303672636,3.1557104412537154,0.6710370119404422
5.618632851526904,-2.4678727682053094,3.16242081137312,0.7981368146914235
5.593954123844851,-2.3620165840030243,3.170402179520034,0.9206796160614118
5.570333958004821,-2.258141460501406,3.1796089756806483,1.0384361472440526
5.547752543399807,-2.156480528765039,3.189993337153089,1.1512753705618701
5.5261877381121565,-2.057210118556435,3.2015060908587074,1.2591531738657498
5.505615636926592,-1.9604561648708063,3.214097622597365,1.362100568784829
5.486011075277884,-1.8663009023385633,3.227718628285213,1.4602119552126995
5.467348066254498,-1.7747895440322001,3.24232074783734,1.55363388937887
5.449600170814176,-1.685936710352465,3.2578570867311285,1.6425546692743789
5.432740803710652,-1.5997324403586783,3.2742826334238724,1.7271949386533199
5.416743479307065,-1.5161476776075526,3.2915545828104054,1.807799415040981
5.401582002530989,-1.435139172760161,3.3096325769608153,1.884629770585121
5.387230610803387,-1.3566537850334062,3.3284788746666663,1.9579586371530182
5.373664072953053,-1.2806321943160732,3.3480584610381965,2.0280646671229827
5.360857751009893,-1.2070120564892137,3.3683391077094265,2.0952285562533666
5.348787630445001,-1.135730647615597,3.38929139327196,2.1597299219016493
5.337430323968845,-1.0667270497334087,3.4108886924909765,2.2218449258317285
5.3267630534715105,-0.9999439334767263,3.4331071417492938,2.2818445333039943
5.316763614136743,-0.935328991948644,3.4559255870823335,2.3399933069168513
5.307410324217257,-0.8728360772725667,3.479325520151502,2.396548643029979
5.298681963444531,-0.8124260868970378,3.5032910065818017,2.451760369238167
5.29055770257556,-0.754067641673106,3.5278086102741835,2.5058706323355837
5.283017026158829,-0.6977375924220492,3.5528673165975393,2.5591140168698803
5.276039650234608,-0.6434213864766717,3.578458456766238,2.6117178443239015
5.269605436369842,-0.5911133207041245,3.604575635209477,2.6639026119442484
5.263694303162801,-0.5408167029039289,3.6312146613289196,2.7158825381466025
5.258286136133761,-0.4925439392548454,3.6583734867103854,2.7678661882335422
5.253360696741213,-0.4463165616404864,3.686052148592721,2.8200571598731923
5.2488975311248085,-0.4021652051591846,3.714252720191453,2.872654812437351
5.244875879073216,-0.3601295428299886,3.7429792683158265,2.9258550279145266
5.241274583644916,-0.3202581813263998,3.772237818594972,2.9798509937054414
5.238072001831652,-0.2826085183551231,3.802036328532026,3.034833999148733
5.2352459166481005,-0.24724655886551308,3.8323846685235137,3.090994238032597
5.232773451059446,-0.21424668339746206,3.8632946109038397,3.1485216084719156
5.2306309842254715,-0.1836913572606146,3.8947798269885587,3.20760649912223
5.2287940706528655,-0.15567076351196063,3.926855891979781,3.268440546387366
5.227237363017746,-0.13028233537445882,3.9595402974436547,3.3312173405143346
5.225934539664002,-0.10763015417515533,3.992852470848798,3.396133048491896
5.22485823812225,-0.08782416622981896,4.0268138013337165,3.463386907416188
5.223979996459952,-0.070979155241265,4.061447670407878,3.5331815220039924
5.223270204907539,-0.05721338423151423,4.096779485627918,3.6057228722533106
5.222698071065224,-0.04664679085789226,4.132836714350451,3.681219899239771
5.222231603156645,-0.039398579669169015,4.169648913342849,3.759883485229859
5.221837617359954,-0.03558400127688917,4.207247748195147,3.84192457421822
5.2214817773471855,-0.03531003768314103,4.24566699393733,3.9275510850692186
5.221128676970354,-0.03866962065714437,4.284942504788022,4.016963145015807
5.2207419807637825,-0.04573389146402908,4.325112136238181,4.1103460090960064
5.220284641849142,-0.056541861716905575,4.36621559632914,4.207859824638538
5.219719223231973,-0.07108665617736218,4.408294194575525,4.309625146186713
5.2190083566702,-0.08929731622255163,4.451390446037392,4.415702811705101
5.218115383507974,-0.1110149405570554,4.495547474154443,4.526066482106163
5.217005234102404,-0.1359617904505246,4.540808138975505,4.640565888315186
5.215645616197898,-0.16370199481921135,4.587213797858657,4.758878756884519
5.214008596249706,-0.19359284280781217,4.634802585427502,4.880449741096316
5.212072667821628,-0.22472665311112433,4.683607082838465,5.004415875077577
5.209825401290517,-0.2558653046296184,4.733651241589241,5.129520693538897
5.207266748244221,-0.28537324596670777,4.7849464485246305,5.254023965614816
5.204413015784554,-0.31116061737814105,4.837486688180778,5.375621612191693
5.201301409610773,-0.3306558722263602,4.891242904302695,5.491400674558644
5.197994850888509,-0.34083535410596016,4.9461569110482815,5.597865073145227
5.19458649734745,-0.33834151390814754,5.002135561779734,5.69107381999064
5.191203082208368,-0.31971488795487696,5.059046299979641,5.766925020422182
5.188005933328819,-0.28174030729541044,5.116715550183862,5.821586611637402
5.185188530255865,-0.22186409444512226,5.174931416300236,5.852017048250786
5.182969889311414,-0.13858994219673737,5.233451586782744,5.856454572897295
5.181583989889447,-0.031735869971565106,5.2920161325117165,5.834721422103798
5.181266631189731,0.09753909449473619,5.350363346732754,5.788226175961418
5.182242022134678,0.24695291892633742,5.4082456084923685,5.719651175679749
5.184711551323941,0.4134893029243469,5.465442120249166,5.632428675740322
5.188846444353184,0.5938340621863641,5.521766407006569,5.530171350092842
5.194784784975048,0.7847474359550968,5.577068120507498,5.416203210760023
5.202632259334599,0.9833123461784549,5.631230152615098,5.293265026722504
5.212465382796383,1.187053818193313,5.684162802882323,5.163394380474552
5.224335920978316,1.3939589359264595,5.735796746687068,5.027936612094579
5.23827551033758,1.602436506262964,5.786076112808014,4.88763218044119
5.25429987540021,1.8112499292237731,5.8349524346124255,4.74273548759181
5.272412374692448,2.019445706887781,5.882379789488343,4.593136084529721
5.292606831761326,2.2262897606142564,5.9283111503336405,4.43846723130491
5.3148697293674685,2.4312164835994245,5.972695822646689,4.278196329211905
5.339181894203462,2.6337911927904107,6.015477785938808,4.1116970851060195
5.365519806131366,2.833684528177412,6.056594756789869,3.9383056899977666
5.39385665141314,3.0306565220037607,6.095977813689847,3.7573640301516438
5.424163216633177,3.2245478986789236,6.133551453991363,3.5682528758551513
5.456408695619967,3.415276280327096,6.1692339827499145,3.3704176417497425
5.490561458423238,3.6028351473420006,6.202938159167412,3.163388972451611
5.526589809896658,3.787293525026511,6.234572048891929,2.946800226040396
5.564462745146923,3.968794374548605,6.264040051152333,2.720403983294135
5.604150688892409,4.147549515736035,6.291244090985274,2.4840900527138956
5.645626184049769,4.323828557545629,6.3160849915124135,2.2379081169757695
5.6888644696252255,4.497938709703919,6.3384640726821715,1.9820992253053373
5.733843856722265,4.670191446366076,6.358285064935225,1.7171418199814465
5.780545771185926,4.840850768994662,6.375456483135039,1.4438198838196266
5.828954278875872,5.0100563512694105,6.389894681973235,1.1633229430490584
5.879054842388566,5.177713477565488,6.401527911403726,0.8773895151540017
5.930831977164221,5.343341285195505,6.410301806555266,0.5885058256054416
5.984265390016176,5.505873285623574,6.41618686481132,0.30016744414442914
6.039324122872412,5.663412993566308,6.419188539252764,0.01719782731338354
6.095958252808075,5.812968164455078,6.419360517525898,-0.253913117164586
6.154087934452626,5.9502255021351145,6.416821386354252,-0.5047435473852235
6.213590189473977,6.069483966289655,6.4117739508804,-0.7249216431205505
6.274285029136873,6.163919907925226,6.404524734449195,-0.9026072735394531
6.335924228216125,6.226356432302816,6.395498661713801,-1.0257204968314402
6.3981877925391535,6.250569991230281,6.3852414567454865,-1.0839565512511626
6.4606934924514565,6.232855808590535,6.374401891232975,-1.071170059519438
6.523022050537362,6.173237371345526,6.363690190637781,-0.9872188876482635
6.584754424250817,6.075672426698359,6.353818001761298,-0.8383077379130022
6.645511148517801,5.947069713841946,6.345434924382168,-0.63554367130571
6.70498184565622,5.795590578787213,6.339079487669111,-0.3923857904553695
6.762937751444092,5.629011589579819,6.335155629764557,-0.12213058277364336
6.81922786733989,5.453685845655792,6.333934323936821,0.1637550509330593
6.873764725796448,5.274189558227685,6.335571874446151,0.45629521624517694
6.926506621378725,5.093446669228126,6.340134826608603,0.7489423011625654
6.977441088071006,4.913071544155245,6.347624249620228,1.0371631672151254
7.026571803512558,4.733747189621825,6.357995881292379,1.3179445171416846
7.073909275408776,4.555550414185069,6.3711753264637965,1.5893543768340146
7.1194647795506265,4.378198561764409,6.387068870232136,1.850203992968557
7.163246765168271,4.201223053670091,6.4055709101618215,2.099807768586545
7.2052589957049715,4.024085085009313,6.426568987847687,2.337822016313393
7.245499846555065,3.846249246887154,6.449947208010821,2.5641411147024256
7.283962339023937,3.66722790281178,6.475588619157845,2.7788329652422536
7.320634618052055,3.486605732800287,6.503376948810268,2.9821001221730272
7.355500675380058,3.3040510051334953,6.533197950031998,3.174256948436635
7.388541185431393,3.1193180465902,6.564940519516365,3.3557162180651443
7.419734365897295,2.9322439607967525,6.598497681697016,3.5269807878082085
7.449056805505262,2.742741725664182,6.633767489575098,3.6886374772280086
7.476484222761904,2.5507912347459514,6.670653864347378,3.8413513035886964
7.501992135109363,2.3564295212316027,6.709067377383265,3.985858852539353
7.5255564303216795,2.159741241607166,6.748925965908659,4.122959921767512
7.547153842737751,1.9608504531343507,6.790155565126334,4.253506710923929
7.566762347269095,1.7599147719926391,6.832690632235573,4.378389779178953
7.584361494989022,1.5571231393775777,6.876474530027362,4.498519765672682
7.599932726382797,1.3526986514180241,6.9214597276840895,4.6148034723167735
7.613459712896978,1.1469082242372812,6.967607762407257,4.728112349851854
7.6249287951393505,0.9400812488695622,7.014888885905776,4.839240736940033
7.634329607628046,0.7326397767628627,7.0632812932751765,4.948850469870344
7.641656005395674,0.525143004215332,7.11276979797388,5.057397927570812
7.646907435437828,0.31834855773350246,7.1633437772495885,5.165039662149986
7.650090921015162,0.11329170444901826,7.214994173871088,5.271514339516208
7.651223838059653,-0.08861987734570825,7.267709317266251,5.376003167704582
7.650337639286196,-0.28550508310600997,7.321469348943296,5.476980225929763
7.647482588455135,-0.4749230955799762,7.3762391512025935,5.572079938353408
7.642733357499336,-0.6538389447195623,7.431959950586128,5.658031230586333
7.63619496805214,-0.8186943428865625,7.488540262891991,5.730730944431437
7.628008024623274,-0.9656422047781971,7.545847572336306,5.78553724115122
7.618351602575492,-1.0909785765023754,7.603702944747818,5.817831763986449
7.607441816810469,-1.1917368140294082,7.661881262387682,5.823806881647116
7.595524448670175,-1.2663080971099634,7.720119331204153,5.80129757444257
7.582861367699075,-1.314876213574665,7.778132306948579,5.750373162960838
7.569712605563328,-1.3394781499244155,7.835636038578187,5.67343468665821
7.5563178240640845,-1.3436455888507486,7.892370385444769,5.574756963633097
7.542881368175577,-1.3317643269085506,7.9481179550811,5.459659009971852
7.529563724906491,-1.3083858985211818,8.002714545180819,5.333615762169848
7.516479865921279,-1.2776889382265537,8.056050702802517,5.201572328831694
7.503702976539014,-1.2431733497618176,8.108066426090835,5.067567157038817
7.491271243041395,-1.2075660986059351,8.158742097661223,4.934631634858711
7.479195582055336,-1.1728679375342337,8.20808841400981,4.8048696281861005
7.467466902679994,-1.140469029797358,8.25613711029167,4.6796209074207855
7.456062212382021,-1.1112823670378942,8.302933319365877,4.5596417838985674
7.444949388711642,-1.085866969571146,8.348529737204863,4.445267556296171
7.434090719015931,-1.0645296180611041,8.392982412767825,4.336543565474566
7.42344542283532,-1.0474034410536406,8.436347848422571,4.233324001791729
7.412971388424784,-1.0345060558399866,8.478681088440489,4.1353429902183025
7.4026263278663835,-1.025781325628872,8.520034518342671,4.04226393114109
7.392368514610094,-1.021128711592142,8.560457157654081,3.953712700042025
7.382157227494173,-1.0204235619088737,8.599994284654501,3.869299291201393
7.371952991875085,-1.0235309352507045,8.638687277566515,3.788631396949924
7.361717682522578,-1.0303148879429684,8.676573591536014,3.7113224686589517
7.351414533643148,-1.0406446175500912,8.713686816222603,3.6369960651738507
7.341008087467647,-1.0543984495478091,8.750056776874342,3.56528774528018
7.330464102972169,-1.0714663567351042,8.785709654327144,3.495845367136308
7.319749439404817,-1.0917514882208568,8.820668107998507,3.428328381746276
7.308831924522608,-1.1151710340974115,8.85495139181597,3.362406517510265
7.297680214181634,-1.1416566457022126,8.888575456991072,3.2977581239778284
7.286263647724612,-1.1711545564416244,8.92155303823085,3.234068357026595
7.274552102160196,-1.2036254948636473,8.953893721801117,3.171027331936476
7.262515847211559,-1.2390444431080445,8.985603995120481,3.1083283363020864
7.250125402780479,-1.2774002651242007,9.016687278483502,3.045666175343384
7.237351400129237,-1.3186952066515225,9.047143940236936,2.982735713863281
7.224164448062721,-1.3629442504424867,9.076971297375568,2.919230679178962
7.210535005558296,-1.4101742938382333,9.106163604167358,2.854842796078573
7.196433262619914,-1.460423100379992,9.134712032128144,2.7892613370877353
7.181829031616115,-1.5137379618799909,9.162604645499021,2.7221731882701263
7.166691651997315,-1.5701739918834627,9.189826377381722,2.653263551740771
7.15098991207848,-1.629791955714653,9.21635901289913,2.582217430234587
7.134691992521334,-1.692655526742182,9.242181187201476,2.5087220652917344
7.117765437253912,-1.758827844093359,9.267268407854393,2.432470527126202
7.100177158812978,-1.828367235443906,9.291593113125655,2.3531666783491576
7.081893486458539,-1.901321962198478,9.315124779909146,2.270531751493681
7.0628802668365545,-1.9777238468384193,9.337830097424083,2.184312786235111
7.04310302836817,-2.0575806580138583,9.359673225286434,2.094293159004545
7.022527221788032,-2.1408671637186156,9.38061615687648,2.000305396146598
7.001118550150846,-2.2275148230124113,9.400619210837945,1.9022463810604706
6.978843401920722,-2.317400178791135,9.41964167464855,1.8000949343035753
6.955669400132811,-2.4103321435889593,9.437642623991586,1.6939315527346959
6.931566078696921,-2.5060385400908847,9.454581939518933,1.5839598322924655
6.906505693296012,-2.6041524655742934,9.470421537841858,1.4705287691107882
6.880464168640269,-2.704199284657611,9.485126825532966,1.354154747390155
6.853422175793693,-2.80558529689087,9.498668373006867,1.235541608259822
6.825366322824784,-2.907589342448154,9.511023789089466,1.1155967999867933
6.796290429400302,-3.0093587571964813,9.522179757089333,0.9954413041804631
6.766196841828337,-3.1099111181408174,9.532134170131137,0.8764108971274431
6.735097730646928,-3.2081430845941528,9.54089827910241,0.7600464238208642
6.703016299800987,-3.3028473071753237,9.54849874334062,0.6480712011133604
6.669987826729233,-3.3927378419732532,9.554979455351754,0.5423544525920688
6.636060448309501,-3.4764838054823786,9.560402999877674,0.4448607789977872
6.601295610254677,-3.55275021217194,9.564851607667652,0.357586984212534
6.565768108132958,-3.6202441563906795,9.568427477509777,0.2824889487880169
6.529565666569051,-3.6777638487585884,9.571252366997657,0.22140247987981043
6.492788028081465,-3.7242475915101254,9.573466391796455,0.17596298644370412
6.455545552166364,-3.7588196328757473,9.575226021660892,0.14752929959515632
6.417957355837607,-3.780829979748434,9.576701314656844,0.13711692449545196
6.380149056040122,-3.7898856257605242,9.5780724839018,0.14534549552125592
6.342250199782517,-3.7858711978862476,9.579525938857012,0.17240429277565703
6.304391487803654,-3.7689576693076576,9.581249981784769,0.21803847248581373
6.2667019111105775,-3.7395984816306806,9.583430366509626,0.2815572696274938
6.229305926294271,-3.698513144220209,9.5862459392059,0.3618639347174554
6.192320794852068,-3.6466591254724317,9.589864578553074,0.4575056460163177
6.155854203597344,-3.58519360547528,9.594439635013238,0.5667401830745894
6.120002267542591,-3.5154273788703363,9.600107036843983,0.6876148762108046
6.084847993753888,-3.438773803452348,9.606983185606092,0.8180524053285624
6.050460255719364,-3.3566960853760848,9.615163709659377,0.9559375584075464
6.0168932948656035,-3.2706562849402183,9.624723085243453,1.0991991811850834
5.984186732016202,-3.18206916869489,9.635715077055304,1.2458822757710462
5.952366040329252,-3.0922634405465934,9.648173899813013,1.394206449424821
5.921443405923786,-3.0024520416610434,9.662115964307262,1.5426084889520415
5.891418885507176,-2.9137122503529054,9.677542049196783,1.689768497420836
5.862281763003647,-2.826975387461887,9.694439734170992,1.8346205355378868
5.834012009129029,-2.7430251670765244,9.71278593952637,1.9763498728058213
5.806581757458264,-2.66250320682847,9.732549438254429,2.1143796745498147
5.779956725389979,-2.5859199502897225,9.753693234999927,2.248350224203488
5.754097525887081,-2.5136692313451614,9.776176737241961,2.378093674080825
5.7289608335736295,-2.4460448700863586,9.79995767398277,2.503606942718942
5.704500384872766,-2.3832579628661064,9.824993743409959,2.625024853148148
5.680667805244105,-2.325453850703604,9.85124399194144,2.742595039920759
5.657413266737069,-2.2727280691455705,9.878669942340647,2.8566556212921292
5.634685986045613,-2.2251408653510314,9.907236498553567,2.9676161834996604
5.612434577392103,-2.182730097342264,9.936912660388565,3.0759422764419875
5.590607276418681,-2.1455225015317367,9.967672083152985,3.18214337414454
5.569152051403364,-2.113543431557917,9.99949351689443,3.286764096873068
5.548016617087785,-2.086825242151484,10.03236115786316,3.390378406380411
5.52714836466627,-2.065414525345693,10.066264941926965,3.4935864517895965
5.506494219412813,-2.049378410956529,10.101200806444862,3.5970137421978134
5.486000435303248,-2.0388101245852854,10.13717094386684,3.701312336106606
5.465612334057395,-2.0338339567242527,10.174184067227905,3.807163751305791
5.445273994490153,-2.034609733788069,10.212255704740963,3.9152832955100996
5.424927897152272,-2.041336788231489,10.251408537696065,4.02642547841453
5.404514529269957,-2.0542572845624045,10.29167279248021,4.141390063262402
5.3839719564243325,-2.0736585435062547,10.333086693112834,4.2610281105459284
5.36323537098927,-2.099873672448211,10.375696974218293,4.386246995434212
5.342236634264788,-2.133279283633765,10.419559444172636,4.518012744383127
5.32090384142845,-2.174288247336242,10.464739571616468,4.65734697749968
5.299160958955087,-2.223334107644228,10.511313041391464,4.805314016358164
5.276927617878645,-2.280841719318232,10.559366181555045,4.9629909534017385
5.254119200685462,-2.347175477746971,10.608996091089063,5.131409159479696
5.230647445907993,-2.4225517687142664,10.66031018268386,5.311449192886892
5.20642192822085,-2.5068956233976842,10.713424674612728,5.503661844682005
5.181352971986874,-2.599613374775721,10.768461293059548,5.707976488179879
5.155356838239117,-2.6992459219217864,10.825541057941347,5.923247343012267
5.1283643790198985,-2.8029691012996065,10.88477353137147,6.146589638883224
5.100334688006902,-2.9059380871008837,10.946239427760302,6.372497582990181
5.071275307135894,-3.0005681727225832,11.009964403590203,6.591864821682069
5.041269625408668,-3.076048630658564,11.075883051807024,6.7913068745414655
5.010509139102082,-3.1186865463326585,11.14379612055244,6.953597043831566
4.979322273638755,-3.1138489693098412,11.213332090990756,7.060264049871286
4.948183783945656,-3.049778428943804,11.283934731489468,7.096722786090873
4.917685999656218,-2.9220366410523515,11.354901959350377,7.0582242046041035
