th1 (rad),w1 (rad/s),th2 (rad),w2 (rad/s)
0.6616725241343625,-0.2820289509538806,4.822300477284855,0.4916945096259701
0.6588522346248237,-0.32322531190463627,4.827217422381114,0.5681858994009995
0.6556199815057773,-0.3647375164373507,4.832899281375124,0.6449484212352942
0.6519726063414037,-0.4066204633787416,4.839348765587477,0.7220244418949344
0.6479064017076164,-0.44893205936299746,4.8465690100064265,0.7994588078155659
0.6434170811139864,-0.4917335926673132,4.8545635980845825,0.8772993844691607
0.6384997451873133,-0.5350901136768854,4.863336591929274,0.9555976720647374
0.6331488440505445,-0.5790708278248391,4.872892568649921,1.0344095057315703
0.6273581357722962,-0.6237495084744351,4.883236663707237,1.1137958485669888
0.6211206406875518,-0.6692049389904265,4.894374622192907,1.1938236864424168
0.6144285912976475,-0.7155213951879217,4.906312859057331,1.2745670343335456
0.6072733773457683,-0.7627891814615662,4.919058529400666,1.3561080652654618
0.5996454855311526,-0.8111052362054081,4.932619610053321,1.438538374842224
0.5915344331690985,-0.860573824666186,4.947004993801743,1.5219603968728175
0.5829286949224366,-0.9113073401756355,4.962224597770471,1.6064889889306426
0.5738156215206802,-0.9634272378420197,4.978289487659778,1.6922532109195874
0.56418134914226,-1.0170651283248846,4.9952120197689736,1.779398325002505
0.5540106978590111,-1.0723640633619482,5.013006003018998,1.8680880517200253
0.5432870572253916,-1.1294800493642643,5.0316868835361985,1.9585071249324608
0.531992256731749,-1.1885838307443768,5.051271954785523,2.050864197487604
0.5201064184243053,-1.2498629907671857,5.0717805967604,2.145395160349967
0.5076077885166335,-1.3135244246265834,5.093234548363899,2.242366950338987
0.49447254427036763,-1.379797247032459,5.1156582178672885,2.342081935465903
0.480674571800043,-1.4489362044711966,5.139079037221948,2.444882981665358
0.46618520975533106,-1.5212256696513313,5.163527867038601,2.5511593194383337
0.45097295305881774,-1.5969843008309412,5.189039460232984,2.661353341458079
0.43500311005050835,-1.6765704487028184,5.2156529936475655,2.775968468582885
0.41823740556348016,-1.7603883828051732,5.243412678333394,2.8955782147538978
0.40063352173542843,-1.848895378331377,5.272368460480933,3.020836548037398
0.38214456795211466,-1.9426096357583833,5.302576825961307,3.152489562824765
0.3627184715945308,-2.0421188703689426,5.334101721589554,3.2913883069949623
0.3422972828908414,-2.148089155298577,5.367015604659503,3.4385022779547314
0.3208163913378556,-2.2612731415990943,5.401400627439051,3.5949324915708556
0.29820365992186465,-2.3825159591452314,5.437349952354759,3.7619219277110614
0.27437850033041233,-2.5127556608232573,5.474969171631869,3.9408592027847846
0.24925094372217976,-2.6530125644173697,5.514377763659717,4.1332678952775925
0.22272081807800606,-2.8043575330058386,5.555710442612494,4.340768023806502
0.19467724274794768,-2.967841938353689,5.599118122850559,4.56498609837464
0.1649988233644108,-3.144360051293266,5.6447679838343054,4.8073735053902595
0.13355522285147814,-3.334395852786271,5.692841718888208,5.068866823357462
0.10021126432361543,-3.537579838026014,5.743530387121782,5.349286566410493
0.06483546594335529,-3.751952554028096,5.797023252785888,5.646329878875815
0.027315940403074328,-3.972825520874914,5.853486551574646,5.954002512364372
-0.012412314805674812,-4.191220463089181,5.9130265766982895,6.260458255354166
-0.05432451943656662,-4.392209376345317,5.975631159251831,6.545686037362581
-0.09824661320001979,-4.554250455171878,6.041088019625457,6.7805581150840215
-0.14378911775173858,-4.651611363423114,6.108893600776297,6.930141420726225
-0.19030523138596972,-4.661745684581616,6.17819501498356,6.963864238977939
-0.2369226882317859,-4.575753435058723,6.247833657373339,6.869936858732002
-0.28268022258237313,-4.404449245853265,6.316533025960659,6.663646004450662
-0.3267247150409058,-4.173655238912906,6.3831694860051655,6.380722642976701
-0.3684612674300348,-3.912453188627645,6.446976712434933,6.06106482919017
-0.4075857993163113,-3.6438886317909716,6.507587360726834,5.735991203300326
-0.444024685634221,-3.3822521297675854,6.564947272759837,5.424641927341663
-0.47784720693189686,-3.134646606896828,6.619193692033254,5.1362622280154495
-0.5091936730008652,-2.9035947597628495,6.670556314313409,4.873856845766342
-0.5382296205984937,-2.6891316267803242,6.719294882771072,4.637087264668779
-0.5651209368662969,-2.490120384234488,6.76566575541776,4.424075038233842
-0.5900221407086418,-2.304980444910829,6.8099065058000985,4.2323878422037255
-0.6130719451577501,-2.1320561665464424,6.8522303842221355,4.059530398039177
-0.6343925068232146,-1.969787150228775,6.892825688202527,3.9031646962710314
-0.6540903783255023,-1.8167756137644873,6.931857335165238,3.7611914971389533
-0.6722581344631472,-1.6718031096889021,6.969469250136627,3.6317647568572307
-0.6889761655600363,-1.5338239381773762,7.0057868977052,3.513276119944288
-0.7043144049418101,-1.4019490968360189,7.0409196589046426,3.4043280539191008
-0.7183338959101703,-1.2754275222953657,7.074962939443833,3.303704543276173
-0.731088171133124,-1.1536277391241476,7.107999984876595,3.210343347911239
-0.7426244485243655,-1.0360212004092455,7.140103418355707,3.1233113909110477
-0.7529846605284579,-0.922167708860578,7.171336532264818,3.0417836680520867
-0.7622063376170637,-0.8117028906837406,7.201754368945339,2.9650255403704153
-0.7703233665239011,-0.7043275194899751,7.231404624349044,2.892378059019424
-0.7773666417188009,-0.5997984316451561,7.260328404939238,2.823245913108522
-0.7833646260352525,-0.49792077480997443,7.288560864070323,2.7570876025306013
-0.7883438337833523,-0.398541356073892,7.31613174009563,2.693407477149793
-0.7923292473440912,-0.30154288915829885,7.343065814867128,2.631749330927001
-0.7953446762356742,-0.20683897404701096,7.369383308176397,2.5716912854163074
-0.7974130659761443,-0.11436967369365775,7.39510022103056,2.512841737915688
-0.7985567627130808,-0.024097579856741477,7.420228638409717,2.4548361844484923
-0.7987977385116483,0.06399571666238046,7.444777000254202,2.397334756978238
-0.7981577813450245,0.14991281688477154,7.468750347823985,2.340020338605896
-0.7966586531761768,0.23364341556165702,7.4921505512100435,2.282597140878019
-0.7943222190205602,0.3151669517387449,7.514976522618824,2.2247896446031072
-0.7911705495031728,0.3944550360966115,7.537224419064855,2.1663418204564877
-0.7872259991422067,0.4714736761270092,7.5588878372694195,2.1070165587145695
-0.7825112623809366,0.5461853152029398,7.579958002856565,2.0465952491020505
-0.7770494092289072,0.6185506982938096,7.600423955347586,1.9848774622202656
-0.7708639022459691,0.6885305751167875,7.6202727299697885,1.9216806934895705
-0.7639785964948013,0.7560872505658355,7.6394895369046845,1.8568401390266642
-0.7564177239891429,0.8211859920021022,7.658057938294951,1.7902084803661467
-0.7482058640691218,0.8837963031283242,7.675960023098613,1.7216556613634748
-0.7393679010378386,0.9438930744422339,7.693176579712247,1.651068645911739
-0.7299289702934162,1.0014576204468002,7.709687266171365,1.5783511492074147
-0.7199143940889482,1.0564786137138873,7.725470777663439,1.5034233381818798
-0.7093496079518093,1.1089529254324246,7.740505011045258,1.4262214983927046
-0.6982600786974851,1.1588863811601169,7.754767226029185,1.3466976652118048
-0.6866712148858839,1.2062944391348998,7.768234202681303,1.2648192166828827
-0.6746082704945349,1.251202796739796,7.780882394848132,1.1805684241278458
-0.662096242527137,1.293647928652785,7.792688079089411,1.0939419546861406
-0.6491597632406091,1.3336775579922717,7.803627498636272,1.0049503177307944
-0.6358229876606863,1.3713510595584868,7.813677001813581,0.9136172447972988
-0.6221094770651014,1.406739792257664,7.822813174261554,0.8199789905642143
-0.6080420791425248,1.439927356167627,7.831012964167196,0.7240835407978122
-0.5936428055808486,1.471009768637127,7.838253799575174,0.6259897122414491
-0.5789327078944773,1.5000955534580978,7.844513696697589,0.525766129364418
-0.5639317523598962,1.5273057376230967,7.849771357991233,0.42349006378705323
-0.5486586949836653,1.552773751544695,7.854006258629103,0.31924612409133124
-0.5331309574682183,1.5766452308791397,7.857198719870016,0.21312478654524347
-0.5173645051594269,1.5990777212145204,7.859329967735468,0.10522076086372908
-0.5013737279472816,1.6202402907478948,7.860382175344106,-0.004368810733612533
-0.4851713250398027,1.6403130605293024,7.86033848723677,-0.11554631852941229
-0.4687681944345097,1.6594866666961932,7.859183024051475,-0.22821580747510944
-0.45217332776754776,1.677961674137429,7.8569008659767245,-0.34228524583922487
-0.43539371102617347,1.695947965983061,7.853478013518332,-0.45766892676259036
-0.41843423136634283,1.7136641379992419,7.848901324250706,-0.5742899874837646
-0.4012975899863504,1.7313369311946387,7.8431584243758685,-0.6920830308795088
-0.383984220674404,1.749200739583595,7.836237594067073,-0.8109968356297828
-0.36649221327856807,1.767497233033515,7.828127625710776,-0.9309971449200357
-0.3488172409482329,1.7864751374512322,7.818817654261576,-1.0520695292015256
-0.3309524895737206,1.8063902163070766,7.80829695896956,-1.1742223261198792
-0.31288858741064984,1.8275054987881363,7.796554735708361,-1.2974896701870071
-0.2946135324227685,1.8500918008875291,7.783579839006491,-1.421934635930263
-0.27611261441389323,1.8744285866589219,7.769360492647189,-1.5476525308511238
-0.257368328547304,1.9008052178448254,7.753883967338678,-1.6747743882255255
-0.23836027636885576,1.9295226411714075,7.737136223456423,-1.8034707241183645
-0.21906504995714168,1.96089556363796,7.719101516215239,-1.9339556372946016
-0.19945609432076208,1.9952551666058327,7.699761959842292,-2.0664913439397097
-0.17950354265470375,2.0329524082981365,7.679097046402895,-2.2013932495239206
-0.1591740185717224,2.074361959345372,7.657083113907656,-2.3390356648269663
-0.13843039897826867,2.1198868034801106,7.633692757259386,-2.479858267060966
-0.11723153094346757,2.169963508860811,7.608894174588776,-2.6243733815728962
-0.09553189585485947,2.2250681236471426,7.582650440773047,-2.7731741000267767
-0.07328121461838805,2.2857225534976497,7.554918699772779,-2.926943132094677
-0.050423989083411544,2.3525011068119452,7.525649268451832,-3.0864620667108755
-0.02689897801529209,2.4260365922684177,7.494784647784723,-3.2526203232228372
-0.002638612092607913,2.5070248326366484,7.462258444552495,-3.426422379468281
0.022431636233758573,2.5962255687204263,7.427994220757812,-3.608990666317076
0.048393891920962835,2.6944562186931615,7.391904314094641,-3.8015594724054833
0.07533845410789444,2.8025724258011584,7.353888719370587,-4.005451745566938
0.10336417836590603,2.921425133364999,7.313834201914918,-4.222024917489476
0.13257842969955602,3.0517771289186837,7.271613952740023,-4.452562492095788
0.16309620098874286,3.1941513959013856,7.227088327819065,-4.698073416979781
0.19503771494775674,3.348568219513275,7.180107593649268,-4.958939759300573
0.2285233971428895,3.5141088596985437,7.130518196056262,-5.234326245951609
0.26366448573987494,3.688228928610191,7.078174933596746,-5.521243978073487
0.3005467750259769,3.8657615248354897,7.022962493816012,-5.813182548619876
0.3392043902743318,4.037664409505573,6.964830668329813,-6.098381160288286
0.3795810343693875,4.189890100113915,6.90384685672693,-6.358257824497256
0.42147993537052664,4.303366072189831,6.840264278481958,-6.567359681134722
0.46451359609242493,4.356654233120937,6.7745906816706105,-6.6970068212954486
0.5080801384236343,4.332253519793215,6.707620613457656,-6.723961304230867
0.5514026736215665,4.224468811384869,6.640381000415347,-6.641229930665913
0.5936473617354152,4.043245872252937,6.573968701108688,-6.463238343230769
0.6340798204579445,3.810038599329394,6.5093363176763805,-6.219983844064858
0.6721802064512384,3.5488548892090597,6.447136479235732,-5.944618237856842
0.7076687553433291,3.2791415887301025,6.387690296857164,-5.66370185786077
0.7404601712306301,3.013448685016547,6.3310532782785565,-5.394119456181503
0.7705946580807956,2.758403352386407,6.277112083716742,-5.1445430373927685
0.7981786916046597,2.516667786928516,6.225666653342814,-4.91819873843747
0.8233453694739449,2.2886306195950588,6.176484665958439,-4.715222234995588
0.8462316756698954,2.0735352733366437,6.129332443608483,-4.5342130971530175
0.8669670284032619,1.8701396908134955,6.083990312636953,-4.373132879034431
0.8856684253113969,1.6770702565772448,6.040258983846608,-4.229779243347754
0.9024391278771693,1.4929974655690825,5.997961191413131,-4.102015309836282
0.9173691025328601,1.3167142531963483,5.956941038314768,-3.987866848378
0.9305362450648236,1.1471636961706262,5.917062369830988,-3.8855518157943436
0.9420078820265299,0.9834417054083231,5.878206851673045,-3.7934773348479642
0.9518422990806131,0.8247882954630801,5.840272078324565,-3.710222560900753
0.9600901820352439,0.6705744115365063,5.803169852715557,-3.6345168164361743
0.9667959261506089,0.5202877571396112,5.766824684551196,-3.5652175581780994
0.9719988037220051,0.37351920461437327,5.731172508969415,-3.501290233878335
0.9757339957681488,0.22995041242485453,5.696159606630632,-3.4417908094918306
0.9780334998923973,0.0893427954947506,5.661741698535713,-3.3858511196248204
0.9789269278473448,-0.04847222921017241,5.627883187339465,-3.332666903156066
0.9784422055552431,-0.18360189167820956,5.594556518307904,-3.281488266377631
0.976606186638461,-0.31609980692309514,5.561741635644128,-3.2316122807425773
0.97344518856923,-0.44597298824232856,5.529425512836703,-3.1823774259721853
0.9689854586868067,-0.5731882983746452,5.49760173857698,-3.133159608739777
0.9632535757030602,-0.6976784722554414,5.4662701424895825,-3.083369511099415
0.9562767909805059,-0.8193478152757758,5.4354364473785886,-3.0324510461777274
0.9480833128277482,-0.9380776528228915,5.4051119369168115,-2.979880719528014
0.9387025362995193,-1.0537315816265025,5.3753131297215315,-2.9251677126866045
0.9281652204832542,-1.1661605516232862,5.3460614525946655,-2.8678545213151034
0.9165036149670214,-1.275207788905919,5.317382907381514,-2.8075179945349102
0.9037515370779622,-1.3807135558599997,5.2893077274361655,-2.74377063531224
0.8899444015193622,-1.482519733681687,5.261870021083043,-2.676262034525394
0.8751192041825453,-1.5804742048563565,5.235107400737789,-2.604680323923293
0.8593144621339818,-1.6744350085015596,5.2090605974985555,-2.528753545636188
0.8425701120489661,-1.7642742392865054,5.183773062042194,-2.448250848121159
0.8249273696561011,-1.8498816604305681,5.159290553560982,-2.362983430196343
0.8064285530517955,-1.9311680025380038,5.135660719259019,-2.2728051658770307
0.7871168730264154,-2.0080679222652034,5.112932667600249,-2.177612852847227
0.7670361938037634,-2.0805425976468452,5.091156539071776,-2.0773460364577176
0.7462307678272949,-2.1485819400623924,5.0703830787071995,-1.971986369162608
0.724744948426671,-2.212206406192392,5.0506632150155735,-1.8615564724878262
0.7026228843647471,-2.2714683969416467,5.0320476502906955,-1.7461182753228839
0.6799082003953306,-2.326453234380215,5.014586467537467,-1.625770809009952
0.6566436680515285,-2.3772797125584217,4.998328759447367,-1.5006474468804838
0.6328708709259443,-2.424100223912122,4.983322284978562,-1.370912584015348
0.6086298686868231,-2.4671004701807724,4.969613159138408,-1.2367577623862274
0.5839588639850154,-2.506498775502256,4.957245581514546,-1.0983972572435368
0.5588938762299929,-2.5425450296513463,4.946261608942111,-0.9560631524201088
0.5334684259334794,-2.57551930107883,4.936700977417909,-0.8099999445682915
0.5077132329226911,-2.6057301721008734,4.928600977972226,-0.6604587283877387
0.4816559312016824,-2.6335128617107313,4.921996390688348,-0.5076910255466135
0.4553208025845751,-2.65922721433038,4.916919480432882,-0.35194232804232184
0.4287285304412713,-2.683255644623185,4.913400057152459,-0.19344543099729994
0.40189597399503946,-2.706001138514996,4.911465602842486,-0.03241362931447725
0.3748359626098895,-2.7278854181975154,4.911141466549341,0.13096615349202456
0.3475571084279143,-2.7493473836655955,4.912451128084261,0.2965402479107943
0.32006363459125836,-2.7708419450156594,4.91541653056337,0.4641950936393905
0.29235521514110174,-2.792839358212177,4.920058481499764,0.6338640508262927
0.26442682155897995,-2.815825172270132,4.9263971220080265,0.8055341763710973
0.23626856983627864,-2.8403008876062095,4.934452463771738,0.9792530009134319
0.20786556096021655,-2.8667854129927304,4.944244993780872,1.155135366522865
0.17919770683028924,-2.8958173904056865,4.955796347446101,1.333370402541056
0.15023953292623238,-2.92795842956071,4.969130051471511,1.5142287204692255
0.12095994863062529,-2.963797250419769,4.984272338676203,1.6980698872686086
0.09132197612642759,-3.003954660539393,5.0012530375488895,1.8853501723124437
0.06128242952103366,-3.0490891742453536,5.020106539272014,2.076630427492146
0.03079153777858012,-3.0999028772648627,5.040872843546936,2.272583704331133
-0.00020749099406850574,-3.1571467946823204,5.063598680590247,2.474001755508316
-0.03177895894089171,-3.2216244333043704,5.08833869814533,2.6817987755053174
-0.0639952032739354,-3.2941911780254087,5.115156685900383,2.8970093805698034
-0.09693711505418949,-3.375745557108131,5.144126779706081,3.1207755403937676
-0.1306945706252708,-3.467205622773164,5.175334535110019,3.3543133546790447
-0.16536662685300244,-3.569459158380886,5.208877668656809,3.598844293023559
-0.2010612184368113,-3.683269183096466,5.2448661115870445,3.85546547163907
-0.23789391026777595,-3.809105185882484,5.283420766303435,4.124918182662712
-0.2759849621266008,-3.946855127286079,5.324669948130063,4.407192405898151
-0.3154535133994616,-4.095355766578233,5.368741872189044,4.700880505110671
-0.35640707106524394,-4.2516704028104115,5.41575067724015,5.002181110784804
-0.3989237750933481,-4.410076299825056,5.465772488347998,5.303499736115351
-0.44302453809159864,-4.560870929095537,5.518807485709152,5.591796463539759
-0.488633247382554,-4.689473189017808,5.574725450344549,5.847341907340932
-0.5355279792727321,-4.776898474191729,5.633198869417958,6.044382508848724
-0.5832969640146494,-4.803074475085403,5.693642694506446,6.1557554537224455
-0.6313277087655034,-4.753416317323016,5.7552002490436704,6.162025225060801
-0.6788618719387335,-4.6258454254278565,5.816820501294279,6.061198032753048
-0.725120326193012,-4.432838393606485,5.87743248162181,5.8714675540930115
-0.7694487101290769,-4.19609664286156,5.93614715716274,5.623683960977976
-0.8114096765576925,-3.9380166965100494,5.99238399677252,5.3494369053974244
-0.850789843522793,-3.675847474273345,6.0458783658264945,5.07296136596378
-0.8875483182655264,-3.4202756159159042,6.096607979486132,4.809241735352927
-0.9217510744246854,-3.176668063678763,6.144700396839661,4.5658022867201105
-0.9535177550614731,-2.946936362320611,6.190358419706862,4.345336255048641
-0.9829871186846791,-2.7310525524072244,6.233811782257348,4.147829142521639
-1.0102976442087515,-2.5280352697506054,6.275290073682564,3.971933278255923
-1.0355779969062575,-2.3365184029849053,6.315009406465124,3.8157565644149716
-1.0589431809361065,-2.1550527102845316,6.353166972109273,3.6772780980796336
-1.0804937080389518,-1.9822531683887727,6.3899397530900695,3.554549033278647
-1.1003162397228397,-1.8168625614371763,6.425485243422856,3.4457772782020397
-1.1184848653372115,-1.657771800359852,6.4599430162048765,3.3493524597607762
-1.13506258334081,-1.5040191427196734,6.493436540802485,3.26384196217894
-1.1501027747680066,-1.3547800534246857,6.526074960424274,3.187974309692562
-1.1636505753022535,-1.2093537247931412,6.557954703521199,3.1206182155062168
-1.1757441125501849,-1.067149206285235,6.589160885676261,3.0607613734067463
-1.1864156046130372,-0.9276724795770397,6.619768499410329,3.007490844193882
-1.1956923294088075,-0.7905149833657196,6.649843407852267,2.959975750671903
-1.2035974792424646,-0.6553436784507829,6.679443165358986,2.9174524327758826
-1.2101509160269726,-0.5218925497396707,6.708617689686745,2.879211954076008
-1.2153698415243692,-0.38995536201682635,6.737409809227505,2.8445897456372706
-1.2192693951445375,-0.2593794642033659,6.765855706683878,2.8129571449758846
