th1 (rad),w1 (rad/s),th2 (rad),w2 (rad/s),a1 (rad/s^2),a2 (rad/s^2)
3.693555254818333,0.5087953869000814,3.9357803304983388,0.6947608499888175,3.4677728503231573,3.5616551430450856
3.6986432086873338,0.543473115403313,3.942727938998227,0.7303774014192683,3.5252904814233226,3.5456596246255367
3.704077939841367,0.5787260202175463,3.9500317130124194,0.7658339976655237,3.587538437278286,3.526337100272117
3.7098652000435424,0.6146014045903291,3.957690052989075,0.8010973686682449,3.654642102491675,3.503439491481238
3.7160112140894457,0.6511478256152459,3.9657010266757573,0.8361317635830573,3.726730975289674,3.476704222490249
3.7225226923455983,0.6884151353681426,3.9740623443115877,0.8708988058079598,3.803937886564434,3.4458546539546235
3.7294068436992798,0.7264545142337869,3.9827713323696674,0.905357352347506,3.886398132192578,3.4106006358187506
3.7366713888416174,0.7653184955557127,3.9918249058931425,0.9394633587056935,3.974248512576635,3.370639200688718
3.7443245737971744,0.8050609806814791,4.001219539480199,0.9731697507125807,4.067626272567126,3.325655422985723
3.752375183603989,0.8457372434071504,4.010951236987325,1.006426304942438,4.1666679337964085,3.2753234740055426
3.7608325560380607,0.8874039227451145,4.02101550003675,1.0391795396824934,4.271508009879193,3.21930790891854
3.7697065952655118,0.9301190028439064,4.031407295433575,1.0713726187716788,4.382277592769419,3.157265228934227
3.7790077852939508,0.9739417787716006,4.042121021621292,1.102945271061021,4.499102795640524,3.0888457705750247
3.788747203081667,1.018932806728006,4.053150474331902,1.1338337287667712,4.622103033772419,3.0136959845474873
3.798936531148947,1.06515383706573,4.06448881161957,1.163970688612246,4.751389119840103,2.931461179398198
3.809588069519604,1.112667728264131,4.076128518505692,1.193285300406228,4.887061143418256,2.8417888203737647
3.8207147468022455,1.1615383396983137,4.088061371509754,1.2217031886099656,5.029206096103218,2.7443324920953107
3.8323301301992285,1.2118304006593459,4.100278403395854,1.2491465135309188,5.177895193016225,2.638756655277232
3.844448434205822,1.2636093525895082,4.1127698685311636,1.2755340800836912,5.333180828138286,2.524742353278817
3.857084527731717,1.3169411608708912,4.125525209332,1.3007815036164794,5.4950930844308115,2.401994054313514
3.870253939340426,1.3718920917151993,4.138533024368165,1.3248014441596145,5.663635699462729,2.270247850193723
3.883972860257578,1.4285284487098266,4.151781038809761,1.3475039226615517,5.838781362709247,2.1292812730582393
3.8982581447446765,1.4869162623369192,4.165256078036377,1.3687967353921342,6.0204661912294615,1.9789250380026715
3.9131273073680455,1.5471209242492139,4.178944045390298,1.388585985772161,6.208583195556479,1.819077072071749
3.9285985166105375,1.6092067562047787,4.192829905248019,1.4067767564928784,6.402974506993898,1.6497192484438932
3.9446905841725854,1.6732365012747177,4.206897672812948,1.4232739489773174,6.603422091076785,1.4709373079514532
3.9614229491853328,1.7392707221854855,4.221130412302721,1.4379833220568319,6.8096366202449845,1.2829445164114837
3.9788156564071877,1.8073670883879354,4.235510245523289,1.4508127672209468,7.0212441232106135,1.086109672088517
3.996889327291067,1.8775795296200415,4.250018373195499,1.4616738639418319,7.237769971886712,0.8809901371289458
4.015665122587268,1.9499572293389087,4.2646351118349175,1.4704837653131213,7.4586197139623005,0.6683706107661759
4.035164694880657,2.0245434264785316,4.279339949488048,1.477167471420783,7.683056218144459,0.4493083764919841
4.055410129145442,2.1013739886599763,4.294111624202256,1.4816605551857027,7.910172581836173,0.22518571965920692
4.076423869032042,2.180475714478338,4.308928229754113,1.4839124123822949,8.138860275388602,-0.0022299031673521444
4.098228626176826,2.261864317232224,4.323767353877936,1.4838901133506213,8.36777208832254,-0.2307175968459384
4.120847269349148,2.3455420381154495,4.338606255011443,1.4815829373821618,8.595279635574743,-0.45752672508328257
4.144302689730302,2.431494834471197,4.353422084385264,1.477007670131329,8.819425521113999,-0.6792932880774138
4.1686176380750135,2.5196890896823367,4.3681921610865775,1.470214737250555,9.037870798452513,-0.8919506768568304
4.193814528971837,2.610067797666862,4.3828943084590835,1.4612952304819866,9.247839177866963,-1.090637906587592
4.219915206948506,2.7025461894455316,4.397507260763903,1.4503888514161107,9.446060576186072,-1.269610358617232
4.246940668842961,2.7970067952073925,4.412011149278064,1.4376927478299384,9.628718143089207,-1.422160585994283
4.274910736795035,2.8932939766382844,4.426388076756363,1.4234711419699955,9.791404848433857,-1.5405598762343002
4.303843676561418,2.991208025122623,4.440622788176063,1.4080655432076525,9.929098024278177,-1.6160349167717136
4.333755756812645,3.090499005365405,4.45470344360814,1.3919051940399354,10.036162740892037,-1.6387977720247262
4.364660746866298,3.190860632774325,4.468622495548539,1.375517216319688,10.106397182762526,-1.5981508586604383
4.3965693531940415,3.2919246046019506,4.482377667711736,1.3595357077330836,10.133134647792943,-1.4826907115212744
4.429488599240061,3.39325595107988,4.495973024789067,1.344708800617871,10.109416506748929,-1.2806336531259566
4.46342115875086,3.4943501161473693,4.509420112795246,1.3319024640866113,10.028247289612727,-0.9802812610347169
4.498364659912333,3.5946325890434965,4.522739137436112,1.3220996514762642,9.882935846991739,-0.5706319856379621
4.534310985802768,3.693461947513414,4.535960133950875,1.3163933316198846,9.667514486955271,-0.042126202790839506
4.571245605277902,3.7901370923829667,4.549124067267074,1.315972069591976,9.377211313964928,0.6125143268280134
4.609146976201732,3.883909205522616,4.562283787962993,1.3220972128602562,9.008931551428805,1.3974224047483554
4.647986068256958,3.9739985210369038,4.575504760091596,1.3360714369077398,8.561685345866128,2.312795902101219
4.687726053467327,4.059615374495565,4.588865474460674,1.359199395928752,8.036888188592801,3.3543011644615977
4.728322207212282,4.139984256381493,4.602457468419961,1.392742407573368,7.438461924600025,4.5127870889776975
4.769722049776098,4.2143688756274935,4.616384892495694,1.437870278463145,6.772683776501863,5.774400377021218
4.811865738532372,4.282095713392512,4.630763595280325,1.4956142822333571,6.047767781696801,7.1211381872300095
4.854686695666297,4.342573391209481,4.645719738102659,1.5668256641056573,5.273211208225581,8.531802077831076
4.898112429578392,4.395305503291737,4.661387994743715,1.6521436848839681,4.458986131331552,9.98324396070161
4.942065484611309,4.439895364605052,4.677909431592555,1.7519761244909842,3.614689852417552,11.45174110159163
4.986464438257359,4.476042263129227,4.695429192837465,1.8664935355069006,2.7487770447745308,12.914318717963706
5.031224860888651,4.503530033576973,4.714094128192534,1.9956367226865377,1.8679788873755239,14.349860133425931
5.076260161224421,4.522209822450728,4.7340504954194,2.139135324020797,0.9769761340801617,15.739897586751948
5.121482259448928,4.5319795837915295,4.755441848659608,2.2965342998883163,0.07834607318177302,17.069044448984865
5.166802055286844,4.532763044523347,4.7784071916584905,2.4672247443781647,-0.8272394326984266,18.32509267827809
5.212129685732077,4.524490650196363,4.803079439102272,2.6504756711609456,-1.7406169320044618,19.498843637432696
5.257374592234041,4.507084480876318,4.829584195813881,2.8454641075352725,-2.663599917146652,20.583760047473373
5.302445437042804,4.480448481704852,4.858038836889234,3.051301708010006,-3.5983748275953547,21.575523804980588
5.347249921859853,4.444464733428898,4.888551853969334,3.267056946059812,-4.546873716888388,22.471565347770273
5.391694569194142,4.398995996260014,4.921222423429932,3.491772599537515,-5.510155339512295,23.270603083724435
5.435684529156742,4.343894442864891,4.956140149425307,3.724478630374759,-6.48780850541479,23.972202582209196
5.479123473585391,4.279016357810743,4.993384935729055,3.964200656196851,-7.477375584025982,24.576338787798754
5.5219136371634985,4.204242601970483,5.033026942291023,4.209964044074838,-8.473780814160714,25.082922166893177
5.563956063183204,4.119504793828876,5.075126582731772,4.46079326574377,-9.468737454399909,25.4912316891848
5.605151111121493,4.024817419284877,5.11973451538921,4.715705582635618,-10.450099576938294,25.799183769400777
5.645399285314341,3.920316423515494,5.166891571215566,4.973697420329626,-11.401119112990841,26.002357503116293
5.684602449549496,3.8063052323855855,5.216628545418862,5.233720995360788,-12.299569198739926,26.092695774316564
5.722665501873352,3.683309540398186,5.26896575537247,5.494647953103954,-13.116706914200206,26.056816350122503
5.759498597277334,3.552142471256184,5.32391223490351,5.755216116605179,-13.816083328799575,25.87391096394771
5.795020021989896,3.4139816379681887,5.381464396069561,6.013955226244656,-14.352284727942457,25.513307457029306
5.829159838369578,3.270458790688764,5.441603948332008,6.269088300814949,-14.669832254812897,24.931955565276283
5.861864426276465,3.123760468140635,5.504294831340157,6.518407856467712,-14.702707730530815,24.07241290228904
5.893102030957872,2.976733390835327,5.569478909904834,6.759131985490602,-14.375326832515494,22.862380959455308
5.922869364866225,2.8329801225101723,5.637070229759741,6.987755795085155,-13.606205517916393,21.217426898061618
5.951199166091326,2.6969180673310085,5.706947787710592,7.1999300640657715,-12.315884439278209,19.049004812239424
5.978168346764637,2.5737592229382265,5.77894708835125,7.390420112188166,-10.440485647145895,16.27973767042211
6.003905938994019,2.4693543664667676,5.852851289473132,7.553217488892387,-7.950952539465538,12.86631222233274
6.028599482658687,2.3898448410721125,5.928383464362056,7.681880611115714,-4.875057883664362,8.82657431131334
6.052497931069408,2.341094262235469,6.005202270473212,7.770146354228848,-1.3151077412512262,4.262038309969105
6.075908873691763,2.327943184822957,6.082903734015501,7.8127667373285385,2.548713224320495,-0.6368941694379852
6.099188305539992,2.3534303170661617,6.161031401388787,7.806397795634159,6.477395240023533,-5.61318718821332
6.122722608710654,2.418204269466397,6.2390953793451285,7.750265923752026,10.213613489248694,-10.39157011692863
6.146904651405318,2.5203404043588837,6.316598038582649,7.64635022258274,13.530814384990384,-14.736595899111723
6.172108055448907,2.6556485482087875,6.3930615408084766,7.498984263591622,16.27202910562053,-18.496679725986496
6.198664540930995,2.8183688392649926,6.468051383444393,7.314017466331758,18.365144096392683,-21.618185149295467
6.226848229323645,3.0020202802289195,6.541191558107711,7.097835614838803,19.8141783400426,-24.13025605536804
6.256868432125934,3.2001620636293455,6.612169914256099,6.856533054285123,20.676332259269184,-26.113709544672588
6.288870052762228,3.406925386222037,6.68073524479895,6.595395958838397,21.036617861719193,-27.66909667645302
6.322939306624448,3.617291564839229,6.7466892043873345,6.318704992073867,20.987747457167888,-28.893115270747547
6.359112222272841,3.827169039410908,6.809876254308073,6.029773839366391,20.61761870467405,-29.865549850534908
6.39738391266695,4.033345226457649,6.870173992701737,5.731118340861042,20.003296797266152,-30.644686571525874
6.437717364931526,4.23337819443031,6.9274851761103475,5.424671475145783,19.209235092228045,-31.267944153491403
6.480051146875829,4.42547054535259,6.981731890861806,5.1119920336108695,18.287681371744938,-31.754946606217185
6.524305852329356,4.60834735907004,7.032851811197914,4.794442567548698,17.279876313874773,-32.11122890326225
6.570389325920056,4.781146122208788,7.080796236873401,4.473330278516076,16.217271861581153,-32.331605702591794
6.618200787142143,4.943318840824599,7.125529539658562,4.150014221490158,15.122428489649613,-32.40278959681499
6.667633975550389,5.094543125721095,7.167029681873463,3.8259863255220083,14.009504628011662,-32.30516451414728
6.7185794068076,5.234638172001211,7.205289545128683,3.5029346803805357,12.884389265411995,-32.01379510345971
6.770925788527612,5.363482064655331,7.240318891932488,3.1827967293459385,11.744608839664163,-31.49886531107657
6.824560609174165,5.4809281530519725,7.2721468592259475,2.867808076235173,10.579205990650248,-30.725845230788487
6.879369890704685,5.5867202129584745,7.300824939988299,2.560549623927288,9.368869147958085,-29.65581789993649
6.93523709283427,5.680408904438055,7.326430436227572,2.2639914449279233,8.086699403338624,-28.246565485106487
6.99204118187865,5.761275898471442,7.34907035067685,1.9815257900768584,6.700119203553809,-26.45518801335968
7.049653940863365,5.82827709050698,7.368885608577619,1.7169739099432615,5.174496137546123,-24.243115296462598
7.107936711768435,5.880022051882441,7.386055347677051,1.4745427569786356,3.4789518771895764,-21.584193918740613
7.166736932287259,5.9148115706543365,7.400800775246838,1.2587008177912296,1.594374654979699,-18.47583321089896
7.225885047993803,5.930755317204134,7.41338778342475,1.07394248568224,-0.47729138535860977,-14.951777814221854
7.285192601165844,5.925982403350548,7.424127208281573,0.9244247075400214,-2.7047563081919987,-11.093087890312045
7.344452425199349,5.898934840268628,7.433371455356973,0.8134938286369009,-5.023554220391997,-7.032202112651531
7.403441773602036,5.848699298064708,7.441506393643341,0.7431718075103856,-7.340096185869371,-2.945080928473461
7.461928766582683,5.775298336206014,7.448938111718445,0.7137209982256509,-9.544855639147606,0.9702938780630269
7.519681749944743,5.679849779814538,7.456075321700702,0.7234239370062812,-11.531980179991752,4.524896157961646
7.5764802477428885,5.564529978014621,7.463309561070765,0.7686728985858976,-13.219040864807933,7.569617488518873
7.632125547523035,5.432339569366541,7.470996290056624,0.8443690734710864,-14.560066857275654,10.015871725793348
7.686448943216701,5.286738900793785,7.4794399807913345,0.9445277907290198,-15.548173230832246,11.840186392571349
7.7393163322246386,5.131257168485463,7.488885258698625,1.0629296546547333,-16.208835601850513,13.074229775833391
7.790628903909493,4.9691688124669575,7.499514555245172,1.1936719524130672,-16.588136417397802,13.786712646899318
7.840320592034162,4.80328744829298,7.5114512747693025,1.3315390788820605,-16.74070270367114,14.064338302771754
7.888353466517092,4.635880421256268,7.524766665558123,1.472182461909778,-16.720385168360828,13.996579882746763
7.934712270729655,4.4686765695726605,7.539488490177221,1.6121482607372457,-16.57463583319394,13.665948188483503
7.979399036425382,4.302930211240721,7.555609972784594,1.7488077426220807,-16.34211233288949,13.143218358688792
8.02242833853779,4.139509087911826,7.573098050210815,1.8802399262089686,-16.052479414763905,12.486167085070802
8.063823429416908,3.978984293764187,7.591900449472905,2.0051015970596766,-15.72740922428802,11.74034808536285
8.10361327235455,3.8217102015213067,7.611951465443502,2.122505077913305,-15.382054567413109,10.940797780677492
8.141830374369764,3.6678896558471754,7.633176516222635,2.23191305572008,-15.026561241081733,10.113980998328724
8.178509270928236,3.517624043436358,7.655495646779836,2.3330528657033676,-14.667406523129928,9.2796145940316
8.2136855113626,3.3709499782050587,7.678826175436869,2.4258490116436837,-14.308489054648627,8.452219064380667
8.24739501114465,3.2278650876585724,7.703084665553306,2.5103712022874904,-13.951969192632674,7.642366758797251
8.279673662021237,3.0883453957322455,7.728188377576181,2.586794869875463,-13.598891630304035,6.857651980556189
8.31055711597856,2.952356479429205,7.754056326274936,2.655371389681025,-13.249631876822017,6.103429200111822
8.340080680772852,2.819860160660985,7.780610040171746,2.716405681682143,-12.904206824359552,5.383368228502413
8.368279282379461,2.69081809241739,7.807774096988568,2.770239363967167,-12.562483814489052,4.699869784096333
8.395187463303635,2.5651932542724993,7.835476490628239,2.8172380618081307,-12.224315770251343,4.054376897922166
8.420839395846361,2.442950096569986,7.863648871246321,2.8577818307873524,-11.889623615110011,3.4476096484239216
8.445268896812061,2.3240538604188856,7.892226689554194,2.892257927271592,-11.558441892462051,2.879743846605162
8.46850943541625,2.208469441494265,7.92114926882691,2.9210553657376432,-11.230939296029213,2.350548780069781
8.490594129831193,2.096160048533973,7.950359822484287,2.944560853538341,-10.907422596513273,1.8594948937913953
8.511555730316532,1.9870858225688404,7.97980543101967,2.9631558024762548,-10.58833002203788,1.4058391333074918
8.531426588542221,1.8812025223484616,8.009436989044433,2.9772141938093295,-10.274218342712068,0.988693376586858
8.550238613765705,1.778460338921341,8.039209130982526,2.987101127575198,-9.965746573712291,0.607079729866243
8.568023217154918,1.678802873184218,8.069080142258278,2.9931719248738604,-9.663658228414594,0.2599752921423779
8.58481124588676,1.582166290900072,8.099011861507016,2.9957716777952843,-9.368763333384786,-0.0536518285449415
8.600632908795761,1.488478657566224,8.128969578284968,2.9952351595098348,-9.081920893529967,-0.33481403534865073
8.615517695371423,1.3976594486309244,8.158921929880066,2.9918870191563482,-8.804022119260917,-0.5844824816395211
8.629494289857732,1.3096192274383152,8.18884080007163,2.986042194339953,-8.53597446221679,-0.8035714796496077
8.642590482132116,1.2242594828161473,8.218701222015028,2.9780064795434567,-8.278686325819422,-0.992928709227337
8.654833076960276,1.141472619557953,8.248481286810463,2.968077192451183,-8.03305220260202,-1.1533309729326446
8.666247803155857,1.0611420975319328,8.278162058734976,2.9565438827218564,-7.799937927986126,-1.2854853120678216
8.676859224131176,0.9831427182520716,8.307727497562194,2.9436890296011784,-7.580165719780224,-1.3900353298024453
8.686690651313697,0.9073410610542694,8.337164387858206,2.9297886763031538,-7.374498686694937,-1.4675725686590884
8.695764061924239,0.83359607418732,8.366462274621236,2.915112950616563,-7.18362453222379,-1.5186527636786995
8.704100022666111,0.7617598288650821,8.395613404127403,2.899926422979776,-7.008138248550029,-1.5438167408963566
8.711717620954762,0.6916784463795818,8.4246126683572,2.8844882555708122,-6.848523686310831,-1.5436156530677387
8.718634405418557,0.6231932095164734,8.453457550912908,2.8690520990401347,-6.705133998926648,-1.5186401393403486
8.724866337513722,0.5561418695272069,8.48214807190331,2.8538656976467314,-6.578171094805575,-1.4695528600658625
8.730427756208995,0.49036015857915116,8.510686728879778,2.839170169046073,-6.467664388110068,-1.3971236885584826
8.735331357794786,0.4256835146980505,8.539078430570239,2.8251989321604882,-6.373449320654705,-1.302266634183067
8.739588192941767,0.36194902149150343,8.567330419891844,2.8121762658186578,-6.295146335558222,-1.1860773220388776
8.743207683156681,0.2989975581359212,8.59545218255003,2.800315492598269,-6.2321412177893745,-1.0498695622509158
8.74619765873804,0.23667614595802747,8.623455337476013,2.78981679697576,-6.183567974589448,-0.8952092100503569
8.74856442019762,0.17484046621213298,8.65135350544577,2.7808647048752566,-6.1482957005519605,-0.7239431588291686
8.750312824859742,0.11335750920661337,8.679162152494523,2.773625273286965,-6.124921138882927,-0.5382209481644007
8.751446399951808,0.0521082978177841,8.706898405227394,2.768243063805321,-6.111768879954196,-0.34050615179854454
8.751967482929986,-0.009009390981757862,8.734580835865447,2.764838002287336,-6.1069012829693365,-0.1335745031394009
8.75187738902017,-0.07007840381145122,8.76222921588832,2.763502257255942,-6.108140202903761,0.07950429320408356
8.751176604982055,-0.13115980584048884,8.78986423846088,2.7642973001879825,-6.113102377745391,0.2954038203479687
8.749865006923649,-0.19229082961794275,8.81750721146276,2.7672513383914623,-6.119249803942415,0.5105993274754924
8.747942098627469,-0.2534833276573669,8.845179724846673,2.772357331666217,-6.123955540372093,0.7214480690909303
8.745407265350895,-0.31472288306108787,8.872903298163335,2.7795718123571262,-6.124584112484515,0.9242907062916064
8.742260036520284,-0.375968724185933,8.900699016286906,2.788814719420042,-6.1185840845138575,1.1155706564526093
