th1 (rad),w1 (rad/s),th2 (rad),w2 (rad/s)
1.4173780759333265,-1.9879731203811615,0.48921554603437867,2.231236607105116
1.3974983447295148,-2.125044478748572,0.5115279121054298,2.298967643121698
1.3762478999420291,-2.26616604299737,0.5345175885366468,2.3752367219951616
1.3535862395120555,-2.411798639588664,0.5582699557565984,2.460629997529475
1.3294682531161688,-2.562380718973645,0.5828762557318932,2.555670511831577
1.3038444459264322,-2.7182863120276712,0.6084329608502089,2.6607555281276754
1.2766615828061556,-2.8797594985459467,0.6350405161314857,2.7760599217395736
1.247863987820696,-3.0468155474751937,0.6628011153488814,2.901391646085144
1.2173958323459442,-3.219097106866947,0.6918150318097329,3.0359828108272593
1.1852048612772748,-3.3956746014619816,0.7221748599180056,3.178201092324292
1.151248115262655,-3.5747874595855644,0.7539568708412485,3.3251768939732775
1.1155002406667993,-3.7535439784880045,0.7872086397809813,3.4723718703634803
1.0779648008819194,-3.9276413958780485,0.8219323584846161,3.613176672345832
1.038688386923139,-4.091237537631838,0.8580641252080744,3.7387250137414574
0.9977760115468205,-4.237180880056144,0.895451375345489,3.838218625854138
0.955404202746259,-4.357817676942842,0.9338335616040304,3.9000752864617976
0.9118260259768306,-4.4464311292327805,0.9728343144686484,3.913981418989277
0.8673617146845027,-4.498981002940857,1.0119741286585413,3.8733837181278945
0.8223719046550941,-4.515404344136986,1.0507079658398202,3.7773745369572103
0.7772178612137243,-4.499741865009117,1.0884817112093923,3.6309249437139792
0.7322204425636331,-4.458965047326827,1.124790960646532,3.4432761006452166
0.6876307920903648,-4.401137104245394,1.1592237216529842,3.2253708968322674
0.6436194210479109,-4.333775349852666,1.1914774306213067,2.987546575722097
0.6002816675493843,-4.262911311327823,1.2213528963785276,2.73819429890387
0.5576525544361061,-4.192842339664962,1.2487348393675664,2.483386619239342
0.5157241310394565,-4.126311807255119,1.2735687055599598,2.227110305628775
0.4744610129669053,-4.064854135609043,1.2958398086162475,1.971736931329819
0.4338124716108149,-4.009142800359815,1.3155571779295456,1.7185040296044298
0.3937210436072167,-3.959273871177399,1.33274221822559,1.4679109136874895
0.3541283048954427,-3.9149727633222757,1.347421327362465,1.2200103386515475
0.31497857726221995,-3.8757350791805147,1.3596214307489805,0.9746098926790274
0.2762212264704148,-3.8409181651035635,1.3693675296757708,0.7314053319643545
0.23781204481937918,-3.809798516340788,1.3766815829954144,0.49006621641755277
0.19971405965597128,-3.781606661268137,1.38158224515959,0.2502894648883558
0.1618979930432899,-3.755547767444146,1.3840851398084737,0.011831811165627315
0.12434251536884844,-3.730813557150957,1.3842034579201299,-0.22547150552697895
0.08703437979733887,-3.7065892238634808,1.38194874286486,-0.4616970860801044
0.04996848755870406,-3.682057748456297,1.377331772004059,-0.6968297869551304
0.013147910074141095,-3.656403152036391,1.3703634741345077,-0.9307633929619714
-0.023416121446222814,-3.6288136504100197,1.361055840204888,-1.1633044681311577
-0.05970425795032301,-3.5984852918697787,1.3494227955235765,-1.3941787563863317
-0.0956891108690208,-3.564626396492963,1.3354810079597133,-1.6230397668949386
-0.1313353748339504,-3.5264629268292387,1.319250610290764,-1.8494793178778939
-0.1666000041022428,-3.4832447787717293,1.300755817111985,-2.07303986976779
-0.2014324518899601,-3.434252870813021,1.2800254184143072,-2.2932284827851097
-0.2357749805980903,-3.3788068204378963,1.2570931335864561,-2.5095322055079645
-0.2695630488024693,-3.3162729235270247,1.2319978115313766,-2.721434654687479
-0.30272577803773953,-3.2460720947693495,1.2047834649845017,-2.9284334937998384
-0.335186498985433,-3.1676873844107614,1.1754991300465034,-3.1300584677097825
-0.3668633728295406,-3.0806706603240945,1.1441985453694057,-3.325889610750854
-0.39767007943278154,-2.984648035780629,1.1109396492618973,-3.5155752215365794
-0.42751655979058784,-2.8793236336540087,1.0757838970465314,-3.6988491946749122
-0.4563097961271279,-2.7644813077293926,1.0387954050997823,-3.8755473207489834
-0.48395460920442185,-2.6399839910546685,1.0000399318922926,-4.045622213513132
-0.5103544491149685,-2.50577040843881,0.9595837097571612,-4.209156597657206
-0.5354121531993566,-2.3618489725899985,0.9174921437805892,-4.3663747902111245
-0.5590306429252566,-2.2082887771315773,0.8738283958784779,-4.517652329933486
-0.5811135306965723,-2.045207700212001,0.8286518725791431,-4.663523845451341
-0.6015656076986924,-1.8727577351207978,0.7820166341246296,-4.804689394968911
-0.6202931850499004,-1.6911077663409897,0.7339697401749405,-4.942019644617571
-0.6372042627133103,-1.5004241119279216,0.6845495437287649,-5.076560360179001
-0.6522085038325895,-1.3008492648347671,0.6337839401269748,-5.2095367408412505
-0.6652169964809372,-1.0924794091252066,0.5816885727185623,-5.342358082529787
-0.6761417905721893,-0.8753415070527087,0.5282649918932645,-5.476623055585206
-0.6848952056427163,-0.6493711332287706,0.4734987613374124,-5.614125404746694
-0.691388916975004,-0.41439292090882585,0.4173575072899455,-5.756858933582089
-0.6955328461840923,-0.1701067414776039,0.3597889179541246,-5.907018878607965
-0.6972339135988683,0.08391499280423859,0.30071872916804493,-6.066993611150825
-0.696394763670826,0.3482094744419976,0.24004879305653667,-6.239334992140619
-0.692912668926406,0.6233686112584554,0.1776554431351305,-6.426685910041826
-0.6866789828138214,0.9099186070802606,0.11338858403471222,-6.631626810243409
-0.6775797967430188,1.2080859140859352,0.04707231593227813,-6.856375559222877
-0.6654989376021595,1.5173718970376986,-0.021491439659950637,-7.1022331317173375
-0.6503252186317825,1.835821161710724,-0.09251377097712402,-7.368613586712901
-0.6319670070146752,2.1588429284873665,-0.166199906844253,-7.65145658401044
-0.6103785777298015,2.477499459910382,-0.24271447268435742,-7.940887411177038
-0.5856035831306977,2.77647712007692,-0.3221233467961278,-8.218393312068747
-0.5578388119299285,3.032760801674254,-0.40430727991681525,-8.454884557106167
-0.527511203913186,3.2173216862164793,-0.48885612548787694,-8.612788910739793
-0.49533798705102117,3.3025342651725764,-0.5749840145952749,-8.655915689208914
-0.4623126443992954,3.2744890323608593,-0.6615431714873641,-8.56598726882153
-0.4295677540756868,3.1420584725114655,-0.7472030441755794,-8.354750433771033
-0.39814716935057215,2.93346918745383,-0.8307505485132897,-8.05916171844804
-0.36881247747603385,2.6827751293687987,-0.91134216569777,-7.723119105382231
-0.3419847261823459,2.4179241118227557,-0.9885733567515924,-7.381687394308423
-0.3178054850641183,2.1567338056197443,-1.0623902306946766,-7.05614387265339
-0.2962381470079209,1.9084598087200568,-1.1329516694212105,-6.756444010195888
-0.2771535489207203,1.6768500864878904,-1.2005161095231693,-6.485490243458763
-0.2603850480558414,1.4626384298664594,-1.265371011957757,-6.242504074179331
-0.2457586637571768,1.265111243291066,-1.3277960526995503,-6.0250861701864205
-0.23310755132426614,1.0829715245791616,-1.3880469144014145,-5.830314083776335
-0.2222778360784745,0.914776312287628,-1.446350055239178,-5.655270833124567
-0.21313007295559824,0.7591405659239794,-1.5029027635704235,-5.497270599723386
-0.20553866729635845,0.6148205139592428,-1.5578754695676573,-5.353933886201731
-0.199390462156766,0.4807376544924752,-1.6114148084296747,-5.223192621903598
-0.19458308561184126,0.3559751561383993,-1.6636467346487107,-5.103265766799721
-0.19102333405045727,0.23976265828910376,-1.7146793923167079,-4.992625044658383
-0.18862570746756624,0.1314572941937901,-1.7646056427632917,-4.889959834353053
-0.18731113452562834,0.030524593990516782,-1.8135052411068222,-4.79414500623164
-0.18700588858572317,-0.06347916237330083,-1.8614466911691385,-4.7042129706335105
-0.18764068020945618,-0.15092259339847502,-1.9084888208754736,-4.619330047432018
-0.18914990614344093,-0.23211279563470028,-1.9546821213497938,-4.538776777825389
-0.19147103409978794,-0.3073069918133995,-2.0000698891280475,-4.461931634541421
-0.19454410401792194,-0.37672245808506744,-2.044689205473462,-4.3882575704176325
-0.19831132859877262,-0.44054495137915073,-2.088571781177638,-4.317290892294956
-0.20271677811256414,-0.4989358411810563,-2.1317446901005876,-4.248632016010893
-0.2077061365243747,-0.5520381238669126,-2.1742310102606965,-4.18193772989633
-0.21322651776304383,-0.5999814706022396,-2.21605038755966,-4.11691466044407
-0.21922633246906623,-0.6428864353909559,-2.2572195341641006,-4.053313691894017
-0.22565519682297577,-0.6808679294533297,-2.2977526710830407,-3.990925140971778
-0.23246387611750907,-0.7140380518397977,-2.3376619224927584,-3.9295745295441398
-0.23960425663590704,-0.742508353638529,-2.3769576677882,-3.8691188324733257
-0.24702934017229233,-0.7663916036841342,-2.415648856112933,-3.8094431064467225
-0.2546932562091337,-0.7858031166547887,-2.4537432871774003,-3.750457428919176
-0.26255128737568156,-0.8008616992254143,-2.4912478614665923,-3.692094095290679
-0.2705599043679357,-0.8116902659727337,-2.5281688024194993,-3.634305037689661
-0.27867680702766306,-0.818416173543969,-2.5645118527963957,-3.577059440774929
-0.28686096876310274,-0.8211713188404554,-2.600282447204145,-3.520341539262306
-0.2950726819515073,-0.8200920443579958,-2.635485862596768,-3.464148588821372
-0.30327360239508727,-0.8153188911782917,-2.6701273484849817,-3.408489006926223
-0.3114267913068702,-0.8069962373036816,-2.704212238554244,-3.3533806835014035
-0.319496753679907,-0.7952718560142074,-2.737746045389258,-3.2988494630715888
-0.32744947224004906,-0.7802964256922025,-2.770734540019974,-3.244927800866469
-0.33525243649697106,-0.7622230191297042,-2.803183818028639,-3.191653595188854
-0.3428746666882681,-0.741206596754384,-2.8351003539805273,-3.1390691975339458
-0.35028673265581195,-0.717403524537706,-2.8664910459558666,-3.087220600629736
-0.357460767901189,-0.6909711336437607,-2.897363251962164,-3.0361568028989616
-0.3643704792376266,-0.662067335192424,-2.9277248199911536,-2.985929345935248
-0.37099115258955084,-0.6308502998894695,-2.957584113450506,-2.936592019520755
-0.3772996555884455,-0.5974782087489316,-2.9869500336457135,-2.8882007265401795
-0.38327443767593483,-0.5621090777149115,-3.0158320409111155,-2.8408134978896147
-0.38889552845308395,-0.5249006556831671,-3.0442401758900117,-2.7944906451394957
-0.39414453500991564,-0.4860103922181632,-3.0721850823414067,-2.7492950362734057
-0.39900463893209726,-0.4455954681424638,-3.0996780327041407,-2.705292477264322
-0.4034605936135219,-0.4038128791239209,-3.126730957476784,-2.662552179541615
-0.4074987224047611,-0.36081955938729027,-3.1533564792722,-2.6211472905284663
-0.41110691799863397,-0.3167725297265203,-3.179567952177485,-2.581155461391303
-0.4142746432958992,-0.27182905110568506,-3.205379506791398,-2.5426594229700608
-0.41699293380695607,-0.22614676234942827,-3.2308061010210984,-2.5057475376198064
-0.41925440143045034,-0.17988377780958256,-3.2558635763972963,-2.4705142915099088
-0.42105323920854615,-0.1331987185641979,-3.2805687193123956,-2.4370606889754427
-0.42238522639418813,-0.08625064881339822,-3.30493932620215,-2.4054945080421666
-0.4232477328823221,-0.039198887884230545,-3.3289942712825713,-2.375930374566173
-0.4236397217611644,0.007797332110792934,-3.352753575028233,-2.34848961192367
-0.42356174844005645,0.05457939211715934,-3.3762384711474698,-2.3232998242924774
-0.42301595451888485,0.10099002236764032,-3.3994714693903947,-2.300494174756163
-0.42200605429520843,0.14687427183115337,-3.422476411137956,-2.2802103252062444
-0.4205373115768969,0.19208072761141795,-3.4452785143900186,-2.2625890137428986
-0.41861650430078273,0.23646299266403634,-3.4679044045274474,-2.2477722572981613
-0.41625187437414235,0.2798814194947949,-3.490382127100429,-2.235901182666951
-0.4134530601791944,0.3222050845360531,-3.512741138927099,-2.227113507913275
-0.4102310093338339,0.3633139729775477,-3.5350122740062315,-2.2215407177729145
-0.4065978696040584,0.40310132752211847,-3.5572276811839605,-2.21930500035787
-0.4025668563288372,0.44147609770355606,-3.5794207311875392,-2.2205160369137715
-0.3981520953518016,0.47836541018550327,-3.601625891556677,-2.2252677599054587
-0.3933684412499466,0.5137169662423262,-3.6238785691557314,-2.2336352152773706
-0.3882312715875233,0.5475012619453008,-3.646214921308505,-2.245671680114028
-0.3827562589680703,0.5797135210002121,-3.6686716381096454,-2.261406194868923
-0.37695912375806817,0.6103752311080176,-3.6912857000583346,-2.2808416678583696
-0.370855371446988,0.6395351831905884,-3.714094116736918,-2.303953697414595
-0.3644600196150821,0.6672699293169643,-3.737133653711064,-2.3306902334009205
-0.35778732032191246,0.6936835994268897,-3.760440556045073,-2.360972165246181
-0.35085048432764354,0.718907047890111,-3.784050277697535,-2.394694880009004
-0.34366141384874244,0.7430963366464606,-3.807997226497625,-2.4317307841758624
-0.33623045048227784,0.7664305995271918,-3.8323145343393836,-2.4719327308441668
-0.32856614448700594,0.7891093692960719,-3.8570338616478255,-2.5151382441431487
-0.32067505079404524,0.8113494817998598,-3.882185244089257,-2.561174389766802
-0.3125615559760466,0.8333816975042653,-3.907796987986925,-2.6098631083920876
-0.30422773900100397,0.8554471974061962,-3.933895619070846,-2.6610268105468524
-0.295673267026942,0.8777941166151608,-3.9605058871763146,-2.714494028752008
-0.2868953258607904,0.9006742746699521,-3.9876508274638347,-2.770104935444812
-0.27788858311409087,0.9243402479031044,-4.015351876818283,-2.8277165616849103
-0.2686451806350598,0.9490429078377506,-4.043629042435132,-2.887207589069879
-0.25915475155668233,0.9750295233109769,-4.072501118325831,-2.9484826319480995
-0.24940445632357255,1.0025424956765365,-4.101985944645312,-3.011475974950285
-0.2393790313668072,1.0318187689009526,-4.132100704394815,-3.0761547783620764
-0.22906084367779767,1.0630899321237064,-4.162862252178436,-3.1425218079140005
-0.2184299443565606,1.0965830132345065,-4.194287470257576,-3.2106177841291017
-0.20746411422421554,1.1325219495075631,-4.226393648098867,-3.280523478487758
-0.19613889472913992,1.1711297159719072,-4.259198882883744,-3.3523617094419165
-0.18442759756942084,1.212631094107876,-4.292722499978163,-3.4262994117429715
-0.17230128662834207,1.2572560723892938,-4.3269854940955925,-3.502549969342629
-0.15972872590444914,1.3052438856812898,-4.362010993789019,-3.5813760174594544
-0.14667628704763624,1.3568477220474178,-4.397824753963613,-3.6630929357089492
-0.13310780982716205,1.4123401526671917,-4.434455683320703,-3.7480732739781817
-0.11898440830049013,1.4720193729612843,-4.471936416060485,-3.8367523783940305
-0.10426421457087728,1.536216380333784,-4.510303939844426,-3.9296355183901093
-0.08890205076753945,1.6053032556168256,-4.549600295028327,-4.027306858990126
-0.07284901821137119,1.6797027600423704,-4.589873363618228,-4.1304406751964295
-0.05605199061094748,1.7598995042823988,-4.631177770370192,-4.239815265479907
-0.038452995568123496,1.8464529839408836,-4.673575923024991,-4.356330081485432
-0.01998846572871466,1.9400127924921957,-4.717139223839846,-4.4810266340297815
-0.0005883378037927003,2.0413362891057547,-4.761949490180143,-4.615113724919034
0.019825025087264848,2.1513088581432163,-4.808100627429334,-4.7599974164858425
0.04133811366869701,2.2709665388869555,-4.855700601594192,-4.917315740591679
0.06404777905756656,2.4015200154774274,-4.904873759000108,-5.088977182043719
0.08806297921234084,2.544377329945776,-4.955763530820546,-5.277199896801575
0.11350675251179859,2.701159435459968,-5.008535529788562,-5.484544379635863
0.14051834686639827,2.8736963606964707,-5.063380973584921,-5.713923843048401
0.16925531047336298,3.063979535242113,-5.120520212015404,-5.968560069172964
0.19989510582578413,3.2740226967866968,-5.1802058127071335,-6.251820931922613
0.2326353327936511,3.5055412482652084,-5.242724022026359,-6.566817187920757
0.26769074527630315,3.7592858396618256,-5.308392193905567,-6.915533239999126
0.3052836036729214,4.033751637865751,-5.377547526305558,-7.297106285129598
0.3456211200515789,4.322859496150489,-5.450518589156854,-7.704689115701645
0.3888497150130838,4.612248872549393,-5.5275654803138705,-8.120380401500382
0.4349722037385777,4.874610479743293,-5.608769284328874,-8.508779851478632
0.4837183085360106,5.0670922923404,-5.69385708284366,-8.813319518830086
0.5343892314594146,5.138108122718889,-5.781990278031961,-8.965473761335987
0.5857703126866035,5.050006434882135,-5.8716450156453215,-8.91574534044043
0.6362703770354249,4.806247063881732,-5.960802469049725,-8.670669854802552
0.6843328476742422,4.453024598467764,-6.047509167597751,-8.294431519407173
0.7288630936589198,4.049709426641586,-6.130453482791823,-7.867904015332179
0.7693601879253357,3.640851303065581,-6.209132522945144,-7.450609438352317
0.8057687009559915,3.2497482049275246,-6.283638617328667,-7.072629308498701
0.8382661830052668,2.8846982996304393,-6.354364910413654,-6.743671109137811
0.8671131660015712,2.546250588755577,-6.421801621505033,-6.463162381450056
0.8925756718891269,2.231761537004101,-6.4864332453195335,-6.226465606799129
0.9148932872591679,1.9376578680698018,-6.548697901387524,-6.0278922293178585
0.9342698659398658,1.6604103702893305,-6.608976823680703,-5.861949942290276
0.9508739696427592,1.3968920518896764,-6.667596323103606,-5.723761934191215
0.9648428901616559,1.1444687063078813,-6.7248339424455175,-5.609135697304906
0.9762875772247347,0.9009836632678019,-6.780925299418566,-5.514499819284325
0.9852974138574128,0.664707467245922,-6.83607029761141,-5.436802380113246
0.9919444885298719,0.4342816070583492,-6.890438321412542,-5.373408442221415
0.9962873046004554,0.20866707916781582,-6.944172405834757,-5.3220099076535545
0.9983739753921336,-0.012899246682743531,-6.997392504911293,-5.280551029241535
0.9982449829253062,-0.2309406434250073,-7.0501980152037085,-5.247169051762375
0.9959355764910561,-0.4457702329847433,-7.102669705721333,-5.220148247978606
0.9914778741612087,-0.6575159561153099,-7.154871188201119,-5.197885435952101
0.9849027146000556,-0.8661422926860702,-7.20685004256064,-5.178865241615074
0.976241291673195,-1.0714699999570574,-7.25863869497679,-5.161643621178543
0.9655265916736244,-1.2731948726646767,-7.310255131188575,-5.144838371980616
0.9527946429469777,-1.470906255288644,-7.361703514908381,-5.127125504921616
0.9380855803940913,-1.6641057674766953,-7.412974769957597,-5.107240427972044
0.9214445227193243,-1.8522264463848765,-7.464047174237318,-5.083982915066623
0.9029222582554756,-2.034652273266514,-7.514887003387984,-5.05622483141576
0.8825757355228104,-2.2107378468326098,-7.565449251702142,-5.022919580172958
0.8604683570544843,-2.3798278049596395,-7.615678447503871,-4.983112250163152
0.8366700790048879,-2.541275490799619,-7.6655095700055025,-4.935949498923009
0.8112573240968917,-2.6944603174936157,-7.7148690649947325,-4.880688311086267
0.7843127209219555,-2.8388033100157455,-7.763675948105595,-4.816702931265543
0.755924687821798,-2.9737803884300127,-7.811842977418251,-4.7434894752124785
0.7261868839374979,-3.098933091820439,-7.8592778721703755,-4.6606679565034
0.6951975530192934,-3.213876607987724,-7.90588455173541,-4.567981705444206
0.6630587869394162,-3.318305148734668,-7.951564368789851,-4.4652943771297435
0.6298757354520695,-3.4119948719501294,-7.996217312561149,-4.352584923369753
0.5957557867325682,-3.494804680570806,-8.039743161794847,-4.2299410209835
0.5608077399268602,-3.56667531141434,-8.082042572004683,-4.097551497607586
0.5251409868127168,-3.6276271576675136,-8.123018086980759,-3.955698275868975
0.4888647152360417,-3.677757248783035,-8.162575069739448,-3.804748276510194
0.4520871427482113,-3.7172357484767966,-8.20062255250455,-3.6451455965926263
0.4149147852634434,-3.7463022378845583,-8.237074008470476,-3.477404130128309
0.3774517628845978,-3.7652619416710795,-8.271848049771759,-3.302100646478105
0.33979914346788703,-3.7744819452447635,-8.304869056236539,-3.1198682062361907
0.3020543240154394,-3.774387354963781,-8.336067738298901,-2.931389691197482
