th1 (rad),w1 (rad/s),th2 (rad),w2 (rad/s),a1 (rad/s^2),a2 (rad/s^2)
4.482441189906406,-2.3437048188571823,4.388717879683456,1.4042543734840842,9.058056944047873,0.7868888426627227
4.459004141717834,-2.2531242494167034,4.402760423418297,1.4121232619107114,9.228759427371145,0.4051870456024526
4.436472899223667,-2.160836655142992,4.416881656037404,1.416175132366736,9.350905470924815,0.11757315899618123
4.4148645326722376,-2.0673276004337438,4.431043407361071,1.4173508639566978,9.424585496215476,-0.0778044381308833
4.3941912566679004,-1.973081745471589,4.445216916000638,1.416572819575389,9.452149345169845,-0.18609731585501216
4.374460439213185,-1.8785602520198905,4.459382644196392,1.414711846416839,9.437784771209015,-0.21509321455929475
4.355674836692986,-1.7841824043078003,4.473529762660561,1.4125609142712459,9.386992381355403,-0.1744132583017393
4.337833012649908,-1.6903124804942462,4.487655371803273,1.4108167816882284,9.306043101095286,-0.07469504832489154
4.320929887844965,-1.5972520494832934,4.501763539620155,1.4100698312049795,9.201486009190475,0.07314077256029225
4.3049573673501325,-1.5052371893913885,4.515864237932205,1.4108012389305824,9.07974854224883,0.25848088454228113
4.289904995456219,-1.4144397039689003,4.529972250321511,1.4133860477760052,8.946845728760575,0.4714439463347522
4.27576059841653,-1.3249712466812946,4.544106110799271,1.4181004872393528,8.808195409393521,0.7031454893786803
4.262510885949717,-1.2368892925873594,4.558287115671665,1.4251319421331397,8.668524152424336,0.945826651856018
4.250141993023844,-1.150204051063116,4.572538435092996,1.4345902086516997,8.53184316709048,1.1928780221536037
4.238639952513212,-1.0648856193922112,4.586884337179513,1.4465189888732357,8.401473130922794,1.4387902256622633
4.227991096319291,-0.9808708880829832,4.601349527068246,1.4609068911298584,8.280099441252197,1.6790589282627542
4.2181823874384605,-0.8980698936704612,4.615958595979545,1.4776974804124858,8.169843289117273,1.9100661050019856
4.209201688501756,-0.8163714607792885,4.63073557078367,1.4967981414625058,8.072337994156934,2.128953397037091
4.201037973893963,-0.7356480808377192,4.645703552198294,1.5180876754328767,7.988803599400751,2.3334980752475167
4.193681493085586,-0.6557600448437116,4.660884428952623,1.541422656185352,7.9201155495162245,2.52199791716729
4.18712389263715,-0.5765588893485494,4.6762986555144765,1.5666426353570249,7.866865342889467,2.6931682165574724
4.181358303743664,-0.4978902359196547,4.691965081868047,1.5935743175225996,7.829412453942338,2.8460520392863384
4.176379401384468,-0.41959611138023134,4.707900825043273,1.622034837915463,7.807927707428335,2.979943509250542
4.172183440270666,-0.341516834305948,4.724121173422428,1.6518342730079685,7.802428791019994,3.0943231478815734
4.168768271927606,-0.26349254639574804,4.740639516152507,1.6827775044867843,7.812808835893857,3.188803923923397
4.166133346463648,-0.18536445803680945,4.757467291197375,1.7146655437260183,7.838859070362906,3.2630865589013287
4.16427970188328,-0.10697586733318039,4.774613946634635,1.7472964093150316,7.88028652673936,3.3169226773761014
4.1632099432099485,-0.028173002065786795,4.792086910727785,1.7804656360887927,7.93672770331422,3.350084520003093
4.162928213189291,0.0511942749673554,4.809891567088673,1.8139664812888237,8.007758982262471,3.3623401056998015
4.163440155938964,0.1312718647899801,4.828031231901561,1.8475898823458217,8.09290449942174,3.353432908190315
4.164752874586864,0.2122009097841975,4.846507130725019,1.881124211427725,8.191642064214692,3.3230652850556592
4.166874883684706,0.2941173304263444,4.865318372839297,1.9143548642782815,8.303407643151282,3.270885055227815
4.169816056988969,0.37715140685785725,4.884461921482079,1.9470637148305596,8.427598850644321,3.1964747596237832
4.173587571057547,0.46142739536430044,4.903932558630385,1.9790284624267975,8.563577836538197,3.0993432582663853
4.17820184501119,0.5470631737296824,4.9237228432546525,2.0100218950094613,8.710673919835436,2.9789194163294295
4.183672476748487,0.6341699129280367,4.943823062204747,2.0398110891727557,8.86818629101205,2.834547712376157
4.190014175877768,0.7228517758381572,4.964221173096475,2.0681565662965173,9.035387089114645,2.6654856661470765
4.1972426936361495,0.8132056467293036,4.98490273875944,2.094811422957988,9.211525152452975,2.4709030320233385
4.205374750103442,0.9053208982538333,5.00585085298902,2.1195204532782217,9.39583074098857,2.2498827389240272
4.214427959085981,0.999279205663719,5.027046057521803,2.142019280667462,9.587521532271838,2.001423578768991
4.224420751142619,1.0951544209864374,5.048466250328477,2.162033516455152,9.785810198726592,1.7244446543607586
4.235372295352483,1.1930125229737034,5.070086585493029,2.1792779629987598,9.989913879850661,1.4177915940366943
4.24730242058222,1.29291166177221,5.091879365123017,2.1934558789391265,10.199065865964513,1.080244525127695
4.260231537199942,1.3949023204318551,5.113813923912408,2.2042583241904037,10.412529807741528,0.7105277717655005
4.274180560404261,1.4990276185092704,5.135856507154313,2.2113636019080585,10.629616754819644,0.3073212060989672
4.289170836589354,1.6053237860574667,5.157970143173394,2.2144368139690482,10.849705303799322,-0.1307268622716983
4.305224074449929,1.71382083909546,5.180114511313084,2.213129545346331,11.072265096702372,-0.6049854219745201
4.322362282840883,1.8245434900624837,5.202245806766547,2.207079691126586,11.296883850359851,-1.116825329590448
4.340607717741508,1.9375123285660822,5.2243166036778135,2.1959114378306817,11.523298008604188,-1.6676029552090508
4.359982841027169,2.052745308652124,5.24627571805612,2.179235408278591,11.751426983665311,-2.258643150011574
4.380510294113691,2.170259578488777,5.268068072138906,2.1566489767784756,11.981410778330643,-2.891221734414358
4.402212889898578,2.2900736862720836,5.2896345619066905,2.127736759434332,12.213650538088334,-3.5665475705079683
4.425113626761299,2.412210191652967,5.310911929501033,2.0920712837292523,12.448851245600636,-4.285744009026822
4.449235728677829,2.5366987041089732,5.331832642338326,2.049213843638984,12.688065297481325,-5.049829013358658
4.474602715718919,2.6635793570837865,5.352324780774715,1.9987155535053973,12.932735032816982,-5.859692450676123
4.501238509289757,2.7929067074119565,5.372311936309769,1.940118628998636,13.184731318002044,-6.716067741417492
4.529167576363877,2.924754020591977,5.391713122599755,1.8729579515844612,13.446383885752699,-7.619493035959377
4.558415116569797,3.059217859449504,5.4104427021156,1.7967630212248675,13.720497052326449,-8.570253993522414
4.589007295164292,3.1964228299727684,5.428410332327848,1.7110604812896435,14.010341354321977,-9.568295563319602
4.62097152346402,3.336526243515988,5.445520937140745,1.6153775256564475,14.319607042340342,-10.613083168375658
4.654336785899179,3.4797223139393916,5.4616747123973095,1.509246693972691,14.652298486329915,-11.703383296746383
4.689134009038574,3.6262452988026905,5.4767671793370365,1.3922128610052271,15.012538295832236,-12.83691820115487
4.725396462026601,3.776370681761013,5.490689307947089,1.2638436789936784,15.404234826002382,-14.00982714507795
4.763160168844211,3.930413030021037,5.5033277447370255,1.123745407542899,15.830544770879328,-15.215834826262094
4.802464299144421,4.08871847772983,5.514565198812455,0.971587059280278,16.29303153486988,-16.444983483428825
4.843351483921719,4.2516487930785285,5.524281069405258,0.8071372244459898,16.79037835856574,-17.681727007730018
4.885867971852504,4.419552576664186,5.532352441649718,0.6303199543686896,17.316463817612707,-18.902115688474797
4.930063497619146,4.592717214840313,5.538655641193405,0.44129879748394163,17.85755528438963,-20.069733449408044
4.975990669767549,4.771292767684209,5.5430686291682445,0.24060146298986118,18.388351154287882,-21.130027809948718
5.023703597444391,4.955176279227088,5.545474643798143,0.029301184890374005,18.866672861822458,-22.002796258368498
5.073255360236662,5.143843007845313,5.545767655647047,-0.19072677769331098,19.226913882044418,-22.573065886779705
5.124693790315115,5.336112146665758,5.543860387870114,-0.416457436561108,19.373144460006763,-22.68178389598747
5.178054911781773,5.529843591265825,5.539695813504503,-0.6432752755209827,19.174388232447505,-22.12010656907196
5.233353347694432,5.721587473590301,5.533263060749293,-0.8644763412117024,18.46723395968295,-20.634905041619227
5.290569222430334,5.9062598131871304,5.5246182973371765,-1.0708253916278947,17.073965256039468,-17.957413566156845
5.349631820562205,6.076999465747525,5.513910043420897,-1.2503995272894632,14.844924988880267,-13.867569074029687
5.41040181521968,6.225448715636327,5.501406048148002,-1.38907521802976,11.726063044240922,-8.295129920664298
5.472656302376044,6.3427093460787365,5.487515295967705,-1.472026517236403,7.831644533665594,-1.4280748203126956
5.536083395836831,6.421025791415392,5.472795030795341,-1.48630726543953,3.476054584755509,6.239166156570048
5.6002936537509855,6.455786337262947,5.457931958140946,-1.4239156038738294,-0.8823510138184838,13.986890225486695
5.664851517123615,6.4469628271247625,5.443692802102207,-1.2840467016189625,-4.781696594131879,21.076758240021285
5.729321145394862,6.3991458611834435,5.430852335086017,-1.0732791192187496,-7.906338928145162,26.975762464096547
5.7933126040066965,6.320082471901992,5.42011954389383,-0.8035214945777842,-10.15759206981712,31.467850440062396
5.856513428725717,6.218506551203821,5.412084328948052,-0.48884299017716026,-11.622710099730465,34.616814161430014
5.918698494237755,6.102279450206516,5.407195899046281,-0.1426748485628601,-12.48976806568415,36.64680660274261
5.97972128873982,5.977381769549674,5.405769150560652,0.22379321746456599,-12.96748793602784,37.825976276596464
6.039495106435317,5.847706890189396,5.408007082735298,0.6020529802305306,-13.237723434291178,38.395170129597204
6.097972175337211,5.7153296558464834,5.414027612537604,0.9860046815265027,-13.438616980425623,38.540736175535
6.155125471895675,5.580943486042227,5.423887659352869,1.3714120432818526,-13.665701439549546,38.39406269404229
6.210934906756098,5.444286471646732,5.4376017797856875,1.7553526702222755,-13.979982430322409,38.042233409701495
6.265377771472565,5.304486647343508,5.45515530648791,2.1357750043192905,-14.416913454193198,37.54080306810408
6.318422637946,5.160317512801576,5.476513056531103,2.5111830350003315,-14.993873227643528,36.924917530507486
6.370025813074016,5.010378780525141,5.501624886881107,2.8804322103054063,-15.715683380521659,36.2178101718756
6.420129600879267,4.853221946719924,5.530429208984161,3.242610312024162,-16.578457657660845,35.43685856695176
6.468661820346466,4.687437370143316,5.562855312104403,3.59697889769368,-17.57224864857334,34.59770447733098
6.5155361940478995,4.511714883657583,5.5988251010813395,3.9429559424669898,-18.682907918396154,33.716926069780946
6.560653342884476,4.324885804473621,5.63825466050601,4.2801252031648,-19.893463595815188,32.81364142232902
6.603902200929212,4.125951168515469,5.681055912537658,4.60826161738809,-21.185207475339116,31.91030854696821
6.6451617126143665,3.914099093762078,5.727138528711539,4.927364702857772,-22.53858774180986,31.032894225682192
6.684302703551987,3.688713216343979,5.776412175740116,5.237693645114594,-23.933922341519803,30.210509502941825
6.7211898357154265,3.449373992928781,5.828789112191262,5.539798740144012,-25.351874467547667,29.474540848888292
6.7556835756447144,3.1958552482533045,5.884187099592702,5.834544148632895,-26.77355535537321,28.85722509411129
6.787642128127247,2.9281196946995722,5.942532541079031,6.123116399574007,-28.18002725817167,28.38950122447508
6.816923325074243,2.6463194221178554,6.003763705074771,6.4070114118187576,-29.5508534592241,28.097795461042686
6.8433865192954215,2.3508108875256144,6.067833819192959,6.687989366429185,-30.861160766878506,27.99912468619043
6.8668946281706775,2.0421992798568294,6.134713712857251,6.967980613291089,-32.076423924243166,28.093506526946747
6.887316620969246,1.7214350406143977,6.204393518990162,7.248915678560556,-33.143859682411964,28.352146724886126
6.90453097137539,1.389996443790278,6.276882675775767,7.532437145809418,-33.97904261592264,28.699374502541957
6.918430935813293,1.0502060176310517,6.352207047233861,7.8194308908348376,-34.446524075124614,28.986338467248437
6.928932995989604,0.7057407768798056,6.43040135614221,8.109294275507322,-34.334916365053346,28.95649583506682
6.935990403758402,0.36239161322927216,6.511494298897283,8.39885923385799,-33.332376002867726,28.210054870281798
6.939614319890695,0.029067853200594906,6.5954828912358625,8.680959782560809,-31.021125686140664,26.19159656097675
6.939904998422701,-0.28114340366081175,6.682292489061471,8.942875748170577,-26.930542903820445,22.253760269461537
6.937093564386093,-0.5504488326990162,6.771721246543176,9.165413350865192,-20.70282023627653,15.87078390765879
6.931589076059103,-0.7574770350617815,6.863375380051829,9.32412118994178,-12.384363175391458,7.022477605947508
6.924014305708485,-0.8813206668156961,6.956616591951247,9.394345966001255,-2.7043808038716213,-3.4343589319454426
6.915201099040328,-0.9083644748544123,7.050560051611259,9.3600023766818,6.968264171225814,-13.81950439851071
6.906117454291784,-0.8386818331421542,7.144160075378077,9.221807332696693,15.159659852728812,-22.33112396586108
6.897730635960362,-0.687085234614866,7.236378148705044,8.998496093038083,20.968638935173804,-27.92418633858414
6.890859783614213,-0.47739884526312804,7.326363109635425,8.719254229652242,24.317971329336615,-30.61151007787911
6.886085795161582,-0.23421913196976188,7.413555651931947,8.41313912887345,25.688860959173407,-31.089718150045623
6.883743603841885,0.022669477621972217,7.497687043220682,8.102241947372994,25.7154341772056,-30.204162073766653
6.883970298618104,0.27982381939402823,7.5787094626944125,7.800200326635327,24.935369069525276,-28.637036625384138
6.886768536812045,0.529177510089281,7.656711465960766,7.513829960381486,23.72060335843613,-26.83507461884959
6.892060311912937,0.7663835436736424,7.73184976556458,7.24547921419299,22.299578112086834,-25.051915642704863
6.899724147349674,0.9893793247945107,7.80430455770651,6.994960057765941,20.80170880084397,-23.41324406696553
6.909617940597619,1.1973964128029504,7.874254158284169,6.760827617096286,19.295477017728444,-21.969248342753232
6.9215919047256484,1.3903511829802349,7.941862434455132,6.541135133668754,17.814420302240887,-20.7289991273591
6.935495416555451,1.5684953860026438,8.007273785791819,6.333845142395163,16.373114363005488,-19.680823748851857
6.951180370415478,1.7322265296326986,8.070612237215771,6.137036904906645,14.97645336044973,-18.803688158426585
6.968502635711805,1.881991063237196,8.131982606264838,5.949000023322379,13.624832448757122,-18.073288966348038
6.987322546344177,2.0182393877247673,8.191472606498062,5.768267133658899,12.316936095850266,-17.465181873011044
7.007504940221424,2.14140874868327,8.249155277834651,5.593615314928789,11.051162041354942,-16.956302435036836
7.028919027708257,2.251920369096819,8.30509143098394,5.4240522905784205,9.826280912429525,-16.525637791144103
7.051438231399225,2.350183178221114,8.359331953889724,5.258795912666979,8.641675354821507,-16.15446259463862
7.074940063181437,2.4365999317693294,8.411919913016394,5.097251286720593,7.497354653042509,-15.826359189186856
7.09930606249913,2.5115734782997543,8.4628924258836,4.938987694828724,6.393856570172895,-15.52713618511678
7.124421797282127,2.575512044001483,8.512282302831888,4.783716332977557,5.332100248700895,-15.244702582465838
7.150176917722142,2.628833046488492,8.560119466161664,4.631269307152898,4.313226616748717,-14.968924553590993
7.176465248187027,2.671965312655979,8.606432159233194,4.481580061616988,3.3384468469754323,-14.691476714051154
7.203184901313587,2.7053497811257334,8.651247959849364,4.334665294476476,2.408909990100079,-14.405692392722948
7.230238399124844,2.7294388810267343,8.694594612794129,4.1906083705492465,1.5255951630973288,-14.106414303376859
7.257532787935111,2.7446948326577076,8.736500696499622,4.049544227515478,0.6892300762340328,-13.789846039603892
7.284979736261688,2.751587133420048,8.776996138774777,3.9116457671194387,-0.0997646126149393,-13.453404816244607
7.3124956075958885,2.7505894872938987,8.816112596445972,3.7771117189569927,-0.8413070915450875,-13.09557624174919
7.340001502468827,2.742176416378448,8.853883713635541,3.6461559565395008,-1.5356652078575557,-12.715772304403298
7.367423266632612,2.726819764299872,8.890345273200937,3.5189982334954677,-2.183449660769283,-12.31419403963485
7.394691464275611,2.7049852676921793,8.925535255535893,3.3958562930991194,-2.785593116705734,-11.89170046210426
7.421741316952533,2.677129336525122,8.959493818466884,3.2769392884780766,-3.3433187447231876,-11.449685295774763
7.448512610317784,2.64369614907789,8.992263211351665,3.162442435520329,-3.8581014562452345,-10.989962846397804
7.474949571808563,2.6051151345154375,9.023887635706867,3.052542807056351,-4.331624803910389,-10.514664074211188
7.501000723153717,2.5617988864763337,9.05441306377743,2.947396166314239,-4.765736093332592,-10.026143582227332
7.52661871201848,2.5141415255430077,9.083887025440573,2.8471347304919656,-5.162401826390942,-9.526897875300826
7.551760127273909,2.4625175072790983,9.112358372745494,2.7518657517389573,-5.523665155628928,-9.019494898156589
7.576385302346701,2.407280855722809,9.139877030262882,2.661670802757391,-5.851606609745474,-8.506514549508207
7.600458110903928,2.3487647896253545,9.166493738290455,2.5766056572623093,-6.148308966573512,-7.9904996090338685
7.623945758800182,2.2872816999596193,9.192259794863078,2.4967006611719706,-6.415826812867759,-7.473916311875123
7.646818575799778,2.223123431830942,9.217226801474798,2.4219614980532196,-6.656161044972969,-6.959123663167778
7.6690498101180875,2.1565618213812123,9.24144641645533,2.352370261421542,-6.871238332140863,-6.448350500118677
7.6906154283319,2.087849438059804,9.264970119069545,2.287886756420355,-7.062895382875183,-5.9436792754239125
7.711493922712498,2.017220484231052,9.28784898663375,2.228449963666116,-7.232867719986243,-5.447035545627473
7.731666127554809,1.9448918070311898,9.310133486270411,2.1739796082098413,-7.382782576465244,-4.960182192733702
7.751115045625121,1.8710639812665373,9.33187328235251,2.1243777862825044,-7.5141554656474785,-4.484717478335344
7.7698256854377865,1.7959224266100624,9.353117060215334,2.079530611499151,-7.628389949135484,-4.022076118526333
7.787784909703887,1.7196385271187076,9.373912366330325,2.0393098503138876,-7.726780118619907,-3.5735326676329384
7.804981294975073,1.6423707259325084,9.394305464833463,2.003574523637558,-7.810515317656866,-3.1402066030934153
7.821405002234399,1.5642655727559398,9.41434121006984,1.972172457606624,-7.8806866519401835,-2.7230686075750814
7.837047657961958,1.485458706236538,9.434062934645905,1.9449417715308732,-7.938294867722013,-2.322947643701343
7.851902245024323,1.406075757559318,9.453512352361214,1.9217122950938599,-7.9842592146262,-1.9405385086845794
7.8659630025999165,1.326233165413056,9.472729475312153,1.902306910007014,-8.019426948712741,-1.5764096387671032
7.8792253342540475,1.2460388959259285,9.491752544412224,1.886542813619343,-8.044583172461337,-1.2310110054933792
7.891685723213307,1.1655930642013153,9.510617972548417,1.874232703564409,-8.06046074904445,-0.9046820069531704
7.90334165385532,1.0849884567108707,9.529360299584061,1.8651858834948774,-8.0677500679771,-0.5976593072385478
7.914191538422429,1.0043109560310997,9.54801215841901,1.859209290422492,-8.067108477407267,-0.3100846168338245
7.92423464798274,0.923639871257027,9.566604251323234,1.8561084442541538,-8.059169234626278,-0.042012436180330154
7.93347104669531,0.8430481789107642,9.585165335765776,1.8556883198923504,-8.04454986066611,0.2065821948932479
7.941901528484418,0.762602680304103,9.6037222189647,1.8577541418412828,-8.023859817029976,0.4357958867969705
7.9495275552874585,0.6823640821338033,9.622299760383113,1.8621121007092525,-7.997707452626505,0.6457889683671616
