th1 (rad),w1 (rad/s),th2 (rad),w2 (rad/s)
1.6931752633260486,-1.1800666553874506,5.287807196990049,-0.05630137391667037
1.681374596772174,-1.2766972522305875,5.287244183250882,-0.05487019341991593
1.6686076242498682,-1.372280665793424,5.286695481316683,-0.050788559937980156
1.654884817591934,-1.4667034231181428,5.286187595717304,-0.04377816442379151
1.6402177833607525,-1.5598504112903695,5.285749814073066,-0.0335540109810405
1.6246192792478489,-1.651606586747433,5.285414273963256,-0.01982652786453884
1.6081032133803745,-1.741859037558308,5.2852160086846105,-0.002304121669995378
1.5906846230047915,-1.8304993904609703,5.285192967467911,0.019303864985147124
1.572379629100182,-1.9174265423395254,5.285386006117762,0.04528385505411488
1.5532053636767866,-2.002549682487813,5.285838844668303,0.07591448574707696
1.5331798668519085,-2.0857915580442796,5.286597989525774,0.11146291813490594
1.5123219512714658,-2.1670919212392707,5.287712618707123,0.15218114705279304
1.4906510320590731,-2.246411084642373,5.28923443017765,0.19830247410857565
1.4681869212126495,-2.3237335006915263,5.291217454918736,0.2500383259935487
1.4449495862057342,-2.3990712757936796,5.293717838178671,0.3075756137208989
1.4209588734477974,-2.472467528572378,5.29679359431588,0.3710748341137875
1.3962341981620736,-2.5439995076228787,5.300504342657018,0.44066911149183396
1.3707942030858449,-2.6137813973488524,5.304911033771937,0.5164643644150186
1.3446563891123564,-2.6819667615899134,5.310075677416087,0.5985407598300008
1.3178367214964573,-2.7487506037595377,5.316061085014387,0.6869555864357786
1.2903492154588618,-2.8143710584718713,5.322930640878745,0.7817476431455285
1.2622055048741432,-2.8791107719854785,5.3307481173102005,0.8829432009027152
1.2334143971542884,-2.9432980756904232,5.339577549319228,0.9905635614748753
1.203981416397384,-3.0073081066298357,5.349483184933977,1.1046342104664146
1.1739083353310857,-3.071564080171278,5.360529527038641,1.2251955491391817
1.1431926945293729,-3.1365389714456344,5.372781482530033,1.3523151959876114
1.1118273048149165,-3.202757913931631,5.386304634489909,1.4861018791317235
1.0797997256756002,-3.2708016765872596,5.401165653281226,1.6267209984664306
1.0470917089097276,-3.341311637479126,5.417432863265891,1.7744120253150235
1.0136785925349363,-3.4149967353910284,5.435176983519041,1.9295080294274052
0.979528625181026,-3.4926429556622516,5.454472063813315,2.092457779948831
0.9446021956244035,-3.5751259966470568,5.475396641612803,2.2638510583075
0.908850935657933,-3.6634278707524297,5.498035152195878,2.4444480431846896
0.8722166569504086,-3.758658314965985,5.522479632627725,2.6352138689207054
0.8346300738007488,-3.8620820017781696,5.548831771316932,2.837359687910766
0.7960092537829672,-3.9751526027769577,5.577205368196039,3.0523917115980486
0.7562577277551976,-4.09955464775406,5.607729285312019,3.282169599428721
0.7152621812776571,-4.2372535858063625,5.640550981306307,3.5289748532809
0.6728896454195934,-4.390552942400276,5.675840729839115,3.7955877920896253
0.6289841159955907,-4.562153814972798,5.7137966077600115,4.085366608803811
0.5833625778458627,-4.755203716517111,5.75465027384805,4.4023105437304455
0.5358105406806916,-4.97330387415105,5.798673379285354,4.751064241634781
0.4860775019391811,-5.220406111652817,5.846184021701702,5.136767345047408
0.4338734408226529,-5.500451979670976,5.897551695152176,5.56454373249798
0.3788689210259431,-5.816451691741042,5.953197132477156,6.0382078312965195
0.3207044041085327,-6.16842141249774,6.013579210790121,6.557374638622586
0.25902018998355525,-6.5492061694636154,6.079152957176348,7.111611179581916
0.19352812828891908,-6.937103409173895,6.150269068972166,7.670107896981295
0.12415709419718013,-7.286044293791623,6.226970147941979,8.167928962159644
0.05129665125926389,-7.521528779020854,6.3086494375635755,8.500334208856222
-0.023918636530944656,-7.5623281327163046,6.393652779652138,8.553237443883628
-0.0995419178581077,-7.376322928263038,6.479185154090974,8.281482801904966
-0.17330514714073808,-7.017656547295812,6.561999982110024,7.760807368769126
-0.24348171261369622,-6.585430233102673,6.639608055797715,7.1298894337164995
-0.30933601494472296,-6.157320764261829,6.71090695013488,6.497498455381699
-0.37090922258734127,-5.770064337652861,6.775881934688696,5.915289216767228
-0.42860986596386985,-5.433164482822672,6.8350348268563685,5.396955832946454
-0.4829415107920966,-5.144114038677018,6.889004385185833,4.9394484062981165
-0.5343826511788667,-4.89663892893098,6.9383988692488145,4.534451694319671
-0.5833490404681766,-4.684082031281231,6.983743386192011,4.173099247072603
-0.6301898607809889,-4.5005253364221565,7.025474378662738,3.847544221637745
-0.6751951141452105,-4.341023537963426,7.063949820879115,3.5512962282867786
-0.7186053495248448,-4.20153272863975,7.099462783161982,3.2791344590614346
-0.7606206768112422,-4.078758712425884,7.132254127752597,3.026908302579808
-0.8014082639355011,-3.9700040526686258,7.162523210778395,2.7913349136337637
-0.8411083044621874,-3.8730374635479228,7.190436559914732,2.56982624075055
-0.8798386790976667,-3.785989165472233,7.216134822322238,2.3603502996490757
-0.917698570752389,-3.707269417868284,7.239738325318729,2.1613225760469548
-0.9547712649310719,-3.6355060218229815,7.261351551079199,1.9715214503734813
-0.9911263251493017,-3.56949684476938,7.281066765582933,1.7900218939363965
-1.0268212935969954,-3.50817412137229,7.298966984522297,1.6161426862786015
-1.0619030348107183,-3.4505779918821715,7.315128411385083,1.4494034485656828
-1.09640881472954,-3.3958373202252683,7.32962244587074,1.2894886989115575
-1.1303671879317927,-3.3431562700391577,7.342517332859855,1.1362168842693547
-1.1637987506321843,-3.2918054265015235,7.353879501702549,0.989512948281374
-1.1967168048971994,-3.2411164636882472,7.363774631185363,0.849383481615256
-1.229127969534082,-3.1904794998441575,7.372268466001516,0.7158938921285493
-1.2610327645325237,-3.1393423816370905,7.379427404922801,0.5891473403191458
-1.2924261883488946,-3.0872112142473624,7.385318878325992,0.46926541815956313
-1.323298300491368,-3.033651523415239,7.390011532507588,0.3563707101207715
-1.3536348157255205,-2.978289509761946,7.393575239608795,0.25057146674507114
-1.38341771082314,-2.920812941148383,7.396080954276246,0.15194864799975177
-1.412625840234624,-2.860971326966061,7.397600440756244,0.06054556357166058
-1.4412355535042845,-2.7985751262407796,7.398205896391961,-0.023639738277467265
-1.4692213047666922,-2.733493853315595,7.397969499009186,-0.10065928808864445
-1.4965562432998483,-2.665653053036318,7.3969629061283,-0.17061729465271575
-1.5232127738302115,-2.595030214037092,7.395256733181773,-0.2336697220653135
-1.5491630759705823,-2.521649767412693,7.39292003596112,-0.29002164450027296
-1.5743795736447093,-2.445577374487832,7.390019819516117,-0.33992275812427086
-1.5988353473895875,-2.366913739943125,7.386620591934874,-0.38366147794084554
-1.6225044847890189,-2.2857881962225073,7.382783977155466,-0.42155806354802816
-1.645362366751244,-2.202352295029965,7.378568396519985,-0.45395720442581067
-1.6673858897015437,-2.116773616309197,7.374028824475727,-0.4812204578023766
-1.6885536258646356,-2.029229969463031,7.369216619897703,-0.5037188772714495
-1.7088459255592658,-1.9399041206700838,7.364179431124988,-0.5218261054002965
-1.7282449667659667,-1.848979138315367,7.358961170070986,-0.5359121352694965
-1.7467347581491204,-1.7566344091435968,7.35360204871829,-0.5463378797394268
-1.7643011022405564,-1.6630423430896706,7.348138669920896,-0.5534506272953525
-1.780931525671453,-1.5683657561593825,7.342604163647943,-0.5575804121363761
-1.7966151832330468,-1.4727558986953824,7.337028359526579,-0.5590372849549017
-1.8113427422200006,-1.3763510806924346,7.33143798667703,-0.5581094397335206
-1.8251062530269249,-1.2792758359070577,7.3258568922796945,-0.5550621302129184
-1.8378990113859954,-1.1816405614719607,7.320306270977565,-0.5501372963066502
-1.849715417000715,-1.0835415686048182,7.314804898014499,-0.5435538142492918
-1.8605508326867632,-0.9850614818295313,7.309369359872006,-0.5355082831870479
-1.8704014475050585,-0.8862699280191217,7.304014277040135,-0.526176263839378
-1.8792641467852498,-0.7872244617524725,7.298752514401741,-0.5157138905041733
-1.8871363914027746,-0.6879716793144117,7.293595375496699,-0.5042597849592919
-1.8940161081959186,-0.5885484796541716,7.288552777647107,-0.4919372088383926
-1.8999015929924603,-0.4889834363664441,7.283633405558723,-0.4788563991275998
-1.9047914273561248,-0.38929824999320967,7.278844841567446,-0.46511703901232626
-1.908684409856057,-0.28950925447282216,7.274193671177323,-0.4508108230201852
-1.9115795024007851,-0.18962895526702273,7.269685562947121,-0.4360240810007076
-1.9134757919534553,-0.089667579515459,7.265325322137114,-0.42084042980216657
-1.9143724677486098,0.010365379514877773,7.261116917839092,-0.40534342447996585
-1.914268813953461,0.11045964038074672,7.257063483594292,-0.389619182497517
-1.9131642175496535,0.21060265030332714,7.253167291769317,-0.37375895471401616
-1.9110581910466202,0.3107781579365566,7.2494297022221765,-0.357861616098487
-1.9079504094672546,0.4109648603075196,7.245851086061192,-0.3420360472161485
-1.9038407608641794,0.5111351439166663,7.24243072558903,-0.3264033747962962
-1.8987294094250127,0.6112539421241819,7.239166691841067,-0.3110990363498888
-1.8926168700037709,0.71127773331839,7.236055701477568,-0.296274630145245
-1.885504092670587,0.8111537067761376,7.233092955176115,-0.28209950820382546
-1.8773925556028257,0.9108191253750895,7.230271960094077,-0.26876206672373887
-1.8682843643490747,1.01020091617438,7.22758433942684,-0.25647068589919947
-1.8581823551873309,1.1092155210959118,7.2250196325678475,-0.24545426994069783
-1.8470901999763718,1.2077690402534866,7.22256508986844,-0.2359623387020212
-1.835012509573837,1.3057576996251574,7.22020546648142,-0.22826462518720514
-1.8219549325775855,1.4030686724851429,7.217922820229548,-0.2226501388329038
-1.807924245852734,1.4995812800645714,7.215696318841219,-0.2194256632882433
-1.7929284330520883,1.5951685910932927,7.213502062208336,-0.2189136698140177
-1.7769767471411553,1.6896994320489376,7.211312925510196,-0.2214496436388804
-1.760079752820666,1.7830408100569812,7.209098429073808,-0.22737884070498066
-1.7422493447200962,1.8750607385243918,7.206824640666758,-0.2370525160347976
-1.7234987373348523,1.9656314419874907,7.20445411550641,-0.2508236919855709
-1.7038424229149773,2.0546329017448186,7.201945878586554,-0.26904256411473076
-1.6832960938975292,2.1419566882840746,7.1992554529454065,-0.29205167307107166
-1.6618765270146885,2.227510011192987,7.196334936214695,-0.32018100128803295
-1.6396014269027586,2.3112199032941185,7.193133126201815,-0.35374318138979605
-1.6164892278698173,2.3930374444874722,7.189595694387917,-0.3930290269948311
-1.5925588534249426,2.4729419236738814,7.185665404117969,-0.4383036138074168
-1.5678294341882038,2.550944835637919,7.181282367979894,-0.4898031474670823
-1.5423199858318246,2.6270936152426576,7.176384336505223,-0.5477328529441847
-1.5160490496793981,2.7014750248021024,7.1709070079757815,-0.6122661074156927
-1.4890342994313772,2.7742181326868036,7.164784346901625,-0.6835450146277859
-1.461292118104509,2.8454968521601334,7.157948896755347,-0.7616825850872329
-1.4328371495829078,2.9155320485918605,7.150332070904474,-0.8467666457139774
-1.4036818290969892,2.9845932694170134,7.141864404447334,-0.9388655588553958
-1.373835896402819,3.053000202918274,7.132475748858781,-1.0380357889739114
-1.3433058943736362,3.1211240273305476,7.122095390969042,-1.1443313218500566
-1.3120946541003307,3.1893888692682255,7.110652077750541,-1.257814922147776
-1.2802007654076484,3.258273648980799,7.098073928529064,-1.378571216948486
-1.2476180289178405,3.3283146493264235,7.084288216359579,-1.5067216211926864
-1.2143348824245763,3.4001092067922527,7.069221000147652,-1.6424411809807922
-1.1803337903566538,3.4743209890912383,7.052796588337844,-1.7859775067092385
-1.1455905804657414,3.551687399102936,7.034936813270751,-1.9376721036789952
-1.110073706474712,3.6330297347850213,7.015560092233962,-2.0979845860726347
-1.0737434091268616,3.719266845281572,6.994580246373236,-2.267520482974282
-1.036550740674046,3.81143315968485,6.971905041543493,-2.4470636116990363
-0.9984364090771974,3.9107021266457065,6.9474344054265025,-2.637614296378551
-0.9593293878107404,4.018416277075207,6.921058262462717,-2.8404350232996336
-0.9191452250399883,4.13612526511523,6.89265391222972,-3.0571053828466574
-0.877783972388836,4.265633244207541,6.862082858401254,-3.2895881934911264
-0.8351276399467605,4.409056540586749,6.829186976466342,-3.5403081783069323
-0.791037074540893,4.568891229537372,6.793783894683273,-3.812242677935989
-0.7453481622455193,4.7480866652347995,6.755661467903913,-4.1090189119415115
-0.6978672955931713,4.950112595382095,6.714571278784498,-4.435000517754623
-0.6483661696393503,5.178988494064857,6.670221273606952,-4.795319517365604
-0.5965762846987017,5.43920212150166,6.6222680784332955,-5.1957516285664145
-0.5421842634836851,5.735355552217648,6.570310562147632,-5.642208613170683
-0.4848307079615086,6.071195323410525,6.513888476015925,-6.139367082770865
-0.42411875472740335,6.447342828926793,6.452494805188216,-6.687475995096868
-0.3596453264381354,6.856531677838308,6.385620045237248,-7.275670575704589
-0.29108000965975234,7.274924714503292,6.312863339480202,-7.869791369597543
-0.21833076251471942,7.650246031631298,6.2341654257842265,-8.395741726254503
-0.14182830219840642,7.896945458496684,6.150208008521681,-8.7327301865704
-0.06285884761343959,7.9239247875882235,6.062880706655977,-8.752234624822263
0.016380400262442654,7.703172839107884,5.975358360407754,-8.414347493182726
0.0934121286535215,7.30726892366015,5.891214885475927,-7.8203474637596795
0.16648481789012298,6.84977964700846,5.81301141083833,-7.129144647189726
0.23498261436020756,6.4104318511220475,5.741719964366433,-6.452530904060608
0.29908693287142807,6.022208507391912,5.677194655325827,-5.837097588198391
0.3593090179453472,5.6908259995887915,5.618823679443842,-5.291378950263491
0.4162172779412351,5.411326207736016,5.565909889941207,-4.808971179602682
0.47033054001859526,5.176044635302386,5.517820178145181,-4.3796422886759165
0.5220909863716191,4.97756059190281,5.474023755258422,-3.9934613164052024
0.5718665922906472,4.8095312018492775,5.43408914209437,-3.6419846869534136
0.61996190430914,4.6667634796473525,5.397669295224836,-3.318382023014512
0.6666295391056135,4.545056116217222,5.364485474994691,-3.0172398738697788
0.7120801002677857,4.44100072655365,5.334313076255993,-2.734306824758265
0.7564901075333221,4.351802714534441,5.306970008008411,-2.4662634061173616
0.8000081346786665,4.275135606471556,5.282307373947237,-2.2105357779194637
0.8427594907433821,4.209027539279231,5.2602020161680425,-1.9651509283691526
0.8848497661361744,4.151774637732199,5.240550506884351,-1.7286254771042415
0.9263675125134964,4.101875842815062,5.223264252113308,-1.4998798234326534
0.967386270941647,4.0579846453430255,5.208265453878981,-1.2781705898254772
1.0079661173950771,4.0188741893511555,5.1954837479807265,-1.0630357874595493
1.0481548592885888,3.983413045760407,5.184853390106131,-0.8542484815967286
1.0879889897461927,3.9505495617340247,5.176310905290164,-0.6517758828634241
1.127494485363533,3.9193030883792312,5.169793146461529,-0.4557417544178423
1.1666875162473251,3.888760626575927,5.165235728917351,-0.2663908379178738
1.2055751225130844,3.858077559850709,5.162571820538172,-0.08405468493865695
1.2441558981115914,3.82648121401553,5.161731273688786,0.0908811596556422
1.2824207102517466,3.793276039348489,5.162640085285342,0.2580082470079152
1.3203534706452316,3.757849286907928,5.165220167755421,0.4169239246989748
1.3579319635143108,3.7196761687744027,5.16938940700241,0.5672568512483298
1.3951287252020548,3.6783236615791126,5.175061975514893,0.7086885398466148
1.431911961817846,3.6334523289139886,5.182148860913359,0.8409702890771174
1.4682464851069859,3.584815785004281,5.19055856380413,0.9639350997047498
1.5040946429570288,3.5322576759845563,5.200197914801177,1.0775044748256506
1.5394172197168743,3.4757062908896765,5.210972959549434,1.181690310381791
1.574174282625771,3.415167109825803,5.222789862653252,1.2765923625995517
1.608325953724029,3.3507137364886823,5.235555786279247,1.3623919965180755
1.6418330910889158,3.2824777398999028,5.249179706244427,1.439343057090085
1.6746578684879148,3.2106379483008283,5.263573136815328,1.5077607570566727
1.706764247970923,3.1354097058421924,5.278650744385895,1.568009451607034
1.738118345029345,3.057034533483577,5.294330838901965,1.6204900847099069
1.7686886903641807,2.9757705441650444,5.3105357397490645,1.66562796595486
1.7984463958058312,2.8918838626050993,5.327192019408613,1.7038613899778443
1.8273652344318823,2.8056412031958335,5.344230633308391,1.7356314606638366
1.8554216464638407,2.7173036732773737,5.361586947915029,1.7613733427178615
1.8825946831966145,2.6271217981296853,5.3792006813422075,1.781509042599809
1.9088659011779114,2.5353317100194497,5.3970157717682055,1.7964417236324204
1.934219218278106,2.44215240613768,5.414980189004529,1.8065514872312176
1.9586407423394827,2.3477839574185135,5.433045703876841,1.8121925021101417
1.9821185819136677,2.252406539467164,5.4511676288979425,1.8136913329272544
2.0046426473083394,2.1561801553532276,5.469304542227215,1.81134630540252
2.0262044488618716,2.059244925186397,5.48741800528124,1.8054277426262086
2.0467968981137354,1.96172182686775,5.505472282707502,1.7961789135435924
2.066414116382413,1.863713784316908,5.523434071842938,1.7838175464247312
2.085051254225582,1.7653070123752457,5.541272247307185,1.7685377750778588
2.102704324349334,1.6665725404498313,5.558957625057963,1.7505124018002394
2.1193700497538326,1.567567849112578,5.576462749075965,1.7298953772696237
2.1350457282449584,1.4683385649044527,5.593761702848662,1.7068244128961112
2.149729113894003,1.3689201683277905,5.610829946977622,1.681423655066544
2.163418315577281,1.2693396784054034,5.627644183528288,1.6538063629786626
2.176111712361335,1.1696172843102937,5.644182247158074,1.624077542330984
2.187807885204438,1.069767900554217,5.6604230225813845,1.5923364960886666
2.19850556420998,0.9698026272292026,5.676346387542271,1.5586792610486542
2.208203590482272,0.8697301009952387,5.691933180152757,1.5232009051848885
2.2169008914922244,0.7695577260649629,5.7071651892046065,1.4859976659859147
2.224596468752874,0.6692927774999466,5.722025165864466,1.4471689144151612
2.2312893965278735,0.5689433718258858,5.7364968550086175,1.4068189329193812
2.2369788302461324,0.46851930238980016,5.750565044337812,1.3650584992430748
2.2416640232700304,0.3680327390853322,5.764215629330242,1.322006270800025
2.2453443506608837,0.26749879409732014,5.777435692038242,1.2777899670935655
2.248019338601857,0.1669359571723943,5.790213591709178,1.2325473502146076
2.249688698173581,0.06636640559437014,5.802539065211324,1.1864270057978286
2.250352362229525,-0.03418380449945892,5.814403335269302,1.1395889289717047
2.2500105241845305,-0.13468465762454404,5.825799224559018,1.0922049217673375
2.248663677608285,-0.23510220054423225,5.836721273776692,1.0444588101125907
2.2463126556028428,-0.33539865667134444,5.8471658618778175,0.9965464898871533
2.2429586690361294,-0.4355326238293445,5.857131326776689,0.9486758125113579
2.238603342797836,-0.5354593461696847,5.866618084901803,0.9010663211606464
2.233248749336139,-0.6351310516988725,5.875628748113409,0.8539488489319431
2.2268974388191505,-0.7344973479250932,5.884168236602728,0.807564990155941
2.2195524653398997,-0.8335056695545567,5.892243886504287,0.7621664555961993
2.2112174086443543,-0.9321017738962747,5.899865551060249,0.718014321576279
2.2018963909053917,-1.030230281596299,5.907045694276012,0.675378182231641
2.191594088089429,-1.1278352624288492,5.913799476098328,0.634535213219669
2.1803157354651406,-1.2248608680215984,5.920144828230525,0.595769154484242
2.1680671267849245,-1.3212520154792737,5.926102519775367,0.559369219218998
2.1548546066301317,-1.4169551277873529,5.931696211967557,0.52562893616929
