th1 (rad),w1 (rad/s),th2 (rad),w2 (rad/s),a1 (rad/s^2),a2 (rad/s^2)
2.527490076776389,-2.3730460472389168,4.52261795336235,1.027693111393441,-4.633757371118161,2.584366215742949
2.503759616304,-2.4193836209500983,4.532894884476285,1.0535367735508705,-4.839576988561733,2.251961455019798
2.479565780094499,-2.4677793908357155,4.5434302522117935,1.0760563881010685,-5.0649192370205816,1.8985386149912926
2.4548879861861415,-2.5184285832059214,4.554190816092804,1.0950417742509815,-5.311598098225871,1.5221611727509237
2.4297037003540822,-2.57154456418818,4.565141233835314,1.1102633859784907,-5.58143226714577,1.120854460948566
2.4039882547122002,-2.627358886859638,4.5762438676951,1.1214719305879763,-5.876196431821678,0.6926825212126752
2.377714665843604,-2.6861208511778547,4.587458587000979,1.1283987558001032,-6.1975518515926415,0.2358569309778886
2.350853457331825,-2.7480963696937812,4.5987425745589805,1.1307573251098821,-6.546950365265306,-0.2511132908718174
2.323372493634887,-2.8135658733464344,4.610050147810079,1.128246192201164,-6.925505024457476,-0.7692200378928004
2.2952368349014227,-2.882820923591009,4.62133260973209,1.120553991822236,-7.333819838824226,-1.3186908179201506
2.2664086256655125,-2.9561591219792516,4.632538149650313,1.1073670836430345,-7.7717709378172835,-1.8986474010427445
2.23684703444572,-3.0338768313574245,4.643611820486743,1.088380609632607,-8.238232249644081,-2.5066769767853803
2.206508266132146,-3.116259153853865,4.65449562658307,1.0633138398647533,-8.73074120829697,-3.1383077970064535
2.1753456745936073,-3.2035665659368346,4.665128764981717,1.0319307618946887,-9.245104850787591,-3.786388455473737
2.1433100089342387,-3.2960176144447106,4.675448072600664,0.9940668773399514,-9.774954925268688,-4.440382458111396
2.1103498327897916,-3.3937671636973974,4.685388741374064,0.9496630527588374,-10.311273246102921,-5.085609168913839
2.0764121611528177,-3.4968798961584264,4.694885371901653,0.898806961069699,-10.841926120811525,-5.702489732109123
2.0414433621912336,-3.6052991573665416,4.70387344151235,0.8417820637486078,-11.351269000244617,-6.265892078988792
2.005390370617568,-3.718811847368988,4.712291262149836,0.7791231429587199,-11.819907767424212,-6.744710145319561
1.968202252143878,-3.8370109250432303,4.720082493579423,0.7116760415055242,-12.22472714936522,-7.101852780395425
1.9298321428934457,-3.9592581965368825,4.7271992539944785,0.64065751370157,-12.53931263972312,-7.294846678339319
1.8902395609280769,-4.084651322934113,4.733605829131494,0.5677090469181768,-12.73489053927716,-7.2772596492212775
1.8493930476987357,-4.212000228326885,4.739282919600676,0.494936450425964,-12.781880866886961,-7.001108104547993
1.8072730454154669,-4.339819036995754,4.744232284104935,0.4249253693804841,-12.65209209437905,-6.420311114355245
1.7638748550455092,-4.466339957939545,4.748481537798741,0.3607222582369316,-12.321484176720874,-5.495088589540702
1.7192114554661138,-4.589554799706754,4.75208876038111,0.30577137234152457,-11.773297763908415,-4.196986859647664
1.6733159074690462,-4.707287777345838,4.755146474104525,0.26380150374504796,-11.00121590889642,-2.513986693880117
1.6262430296955879,-4.817299936434803,4.757784489141976,0.2386616368062468,-10.01212183666006,-0.4549599380287119
1.5780700303312398,-4.917421154801404,4.760171105510039,0.23411203742595968,-8.827974260621561,1.9473501075511954
1.5288958187832258,-5.005700897407619,4.762512225884298,0.25358553850147164,-7.486362218586969,4.635596107923234
1.4788388098091496,-5.080564519593489,4.765048081269312,0.299941499580704,-6.039430094329396,7.529895553093811
1.4280331646132147,-5.140958820536783,4.76804749626512,0.3752404551116421,-4.551069811628895,10.53288488575347
1.376623576407847,-5.186469518653072,4.771799900816236,0.4805693039691768,-3.092538035059436,13.53746587009839
1.3247588812213162,-5.217394899003667,4.776605593855928,0.6159439626701607,-1.7369375001010343,16.436442171432212
1.2725849322312797,-5.234764274004677,4.7827650334826295,0.7803083843844828,-0.5532553322838634,19.132805755728825
1.2202372894912328,-5.240296827327516,4.790568117326474,0.971636441941771,0.39918538473943954,21.549185313183223
1.1678343212179576,-5.236304973480121,4.800284481745892,1.1871282950736033,1.0749965310713265,23.635019331820303
1.1154712714831563,-5.225555008169407,4.8121557646966275,1.4234784883918064,1.4450392838461015,25.370407423427828
1.0632157214014621,-5.211104615330946,4.8263905495805455,1.6771825626260846,1.4964591597447152,26.766258876740277
1.0111046752481527,-5.1961400237334985,4.8431623752068065,1.9448451513934875,1.2305552496694556,27.861121536169126
0.9591432750108178,-5.183834471236804,4.862610826720742,2.2234563667551788,0.658981708978277,28.715712997871556
0.9073049302984497,-5.177244654147022,4.884845390388294,2.5106134967338942,-0.20100218417760984,29.406513803367243
0.8555324837569795,-5.179254675988798,4.909951525355632,2.8046786347675665,-1.331513267250464,30.019765466312872
0.8037399369970916,-5.192569808661302,4.937998311703308,3.1048762894306954,-2.7187160135185784,30.646923193627096
0.7518142389104785,-5.219756968796488,4.969047074597615,3.4113455213669663,-4.356921695596929,31.38219964280626
0.6996166692225136,-5.263326185752457,5.003160529811285,3.725167517795029,-6.252139306650544,32.322457176258816
0.646983407364989,-5.325847578818963,5.040412204989235,4.048392089557617,-8.425333664396268,33.569459602613016
0.5937249315767994,-5.410100915462926,5.080896125884811,4.384086685583747,-10.915793079243816,35.234400963725584
0.5396239224221702,-5.519258846255364,5.124736992740648,4.736430695221003,-13.785057932025264,37.44463434838545
0.4844313339596165,-5.657109425575617,5.172101299692859,5.110877038704857,-17.12176696920068,40.35248580752035
0.42786023970386033,-5.828327095267624,5.223210070079907,5.514401896780061,-21.047366087220613,44.1456367533353
0.36957696875118407,-6.03880075613983,5.278354089047708,5.955858264313414,-25.721362692438678,49.056997659272234
0.3091889611897858,-6.296014383064216,5.337912671690842,6.446428240906136,-31.341204642584415,55.3671712710809
0.24622881735914362,-6.60942642949006,5.402376954099903,7.000099953616945,-38.121854181849685,63.378843965586654
0.18013455306424303,-6.990644971308558,5.472377953636073,7.633888393272811,-46.212980702066695,73.30474885307446
0.11022810335115746,-7.452774778329225,5.548716837568801,8.366935881803556,-55.441297356721314,84.91260193194888
0.0357003555678652,-8.007187751896438,5.632386196386836,9.216061901123044,-64.60471459964273,96.54510698435793
-0.04437152195109918,-8.653234897892865,5.7245468153980665,10.181512970966624,-69.81932345575153,102.81523499941027
-0.13090387093002784,-9.35142813245038,5.826361945107733,11.209665320960728,-61.944765902030056,91.00605308111287
-0.22441815225453166,-9.97087579147068,5.93845859831734,12.119725851771856,-27.997858613781275,43.03933401206995
-0.32412691016923845,-10.250854377608492,6.059655856835059,12.550119191892556,30.094846772473893,-38.32326817502239
-0.4266354539453234,-9.949905909883753,6.185157048753985,12.166886510142332,77.17898548536616,-104.0401952234572
-0.5261345130441609,-9.178116055030092,6.306825913855408,11.12648455790776,88.17966961911607,-119.43122887352658
-0.6179156735944619,-8.29631935883893,6.418090759434485,9.932172269172495,77.75687874914226,-105.1205027901505
-0.7008788671828512,-7.518750571347508,6.51741248212621,8.88096724127099,63.40800058693067,-85.41076485751832
-0.7760663728963263,-6.884670565478201,6.60622215453892,8.026859592695807,51.14145362665838,-68.57217979752267
-0.8449130785511083,-6.373256029211618,6.686490750465878,7.341137794720581,41.696886246022125,-55.58789897318472
-0.9086456388432245,-5.956287166751396,6.759902128413084,6.785258804988733,34.570812062890745,-45.7399414284801
-0.9682085105107384,-5.6105790461224885,6.827754716462971,6.327859390703932,29.168510011985525,-38.19388106032882
-1.0243143009719633,-5.318893946002634,6.891033310370011,5.945920580100644,25.026000890719153,-32.29940212266823
-1.0775032404319895,-5.068633937095442,6.950492516171018,5.622926558873962,21.812984743053704,-27.591372545460867
-1.128189579802944,-4.850504089664906,7.006721781759757,5.347012833419353,19.299253265978752,-23.74235662579202
-1.176694620699593,-4.657511557005118,7.060191910093951,5.109589267161433,17.32402788335696,-20.520228056317883
-1.223269736269644,-4.484271278171549,7.111287802765565,4.904386986598254,15.773689987764783,-17.758101074575166
-1.2681124490513596,-4.326534378293901,7.160331672631548,4.7268059758525025,14.566414950421995,-15.334466598845435
-1.3113777928342987,-4.180870228789681,7.207599732390073,4.573461309864048,13.641505026843518,-13.160551932838317
-1.3531864951221955,-4.044455178521246,7.253334345488714,4.441855790535665,12.951710933904717,-11.172618878491454
-1.393631046907408,-3.914938069182199,7.297752903394071,4.33012960175075,12.45741216484216,-9.327619134126193
-1.43278042759923,-3.7903639475337774,7.3410541994115786,4.236853410409488,12.122009330859669,-7.601056645210182
-1.4706840670745678,-3.669143854225181,7.3834227335156735,4.1608428439573855,11.908287861487082,-5.986068142615628
-1.5073755056168197,-3.55006097561031,7.425031161955247,4.1009821625312295,11.775871375580047,-4.492698377329347
-1.5428761153729227,-3.4323022618545096,7.46604098358056,4.056055178757936,11.680174619896489,-3.146240078133416
-1.5771991379914678,-3.3155005156555446,7.506601535368139,4.024592777976602,11.573397434785212,-1.9835251608183824
-1.6103541431480233,-3.1997665413076923,7.546847463147905,4.004757526368419,11.407927943199152,-1.0464347144706299
-1.6423518085611002,-3.0856872618757007,7.58689503841159,3.9942931792237126,11.141938235275449,-0.3728082083139238
-1.6732086811798572,-2.9742678795229462,7.626837970203827,3.9905650971405735,10.746043046003738,0.013737254640793324
-1.7029513599750867,-2.8668074490629087,7.6667436211752324,3.9907024696869815,10.209037951923742,0.1123620915164221
-1.7316194344657159,-2.7647170695436714,7.706650645872102,3.991826090602146,9.540523458232332,-0.051049638366358965
-1.7592666051611525,-2.669311834961348,7.746568906778124,3.991315594218482,8.769049425430818,-0.4263420778981453
-1.785959723510766,-2.58162134070704,7.786482062720308,3.987052173439501,7.9360600122995555,-0.9474146874685767
-1.8117759369178363,-2.5022607405840445,7.826352584454703,3.977578026564815,7.087540603110475,-1.5436727284083318
-1.8367985443236767,-2.4313853345529397,7.8661283647203515,3.9621412992807317,6.2659645159962185,-2.1509484943994455
-1.861112397669206,-2.3687256893929773,7.905749777713159,3.9406318143367374,5.504621396773432,-2.7190304462462587
-1.8847996545631358,-2.313679475425243,7.945156095856526,3.913441509874275,4.8251553227041315,-3.2147202967401993
-1.9079364493173883,-2.265427922198202,7.984290510955269,3.881294306906873,4.237924896840044,-3.6210239733679397
-1.9305907285393702,-2.2230486732298016,8.023103454024337,3.8450840671731936,3.744134882426727,-3.9339719565778015
-1.9528212152716682,-2.1856073244055345,8.06155429469607,3.8057443476074155,3.3386317255693116,-4.158609484971398
-1.9746772885157235,-2.1522210071498415,8.099611738172143,3.7641582527577016,3.0125611473055964,-4.30525027194456
-1.996199498587222,-2.1220953956767854,8.13725332069972,3.721105750038256,2.7554768009869046,-4.386537750639632
-2.01742045254399,-2.0945406276669165,8.174464378200103,3.67724037253186,2.556796524806811,-4.415434206286647
-2.038365858820659,-2.0689726624188483,8.211236781925422,3.6330860304689936,2.4066794117302512,-4.404020228004481
-2.059055585444847,-2.0449058683015457,8.247567642230111,3.5890458281889486,2.296465215817062,-4.362899289147589
-2.0795046441278626,-2.021941216143375,8.283458100512,3.545416835297473,2.2188202640910166,-4.301003801771261
-2.0997240562892965,-1.999753013502465,8.318912268864974,3.50240679727976,2.1677073670334996,-4.225639090423786
-2.1197215864243213,-1.9780759398321301,8.353936336837771,3.460150406375522,2.138263713760474,-4.142649679140383
-2.1395023458226428,-1.9566933026945255,8.388537840901526,3.418723909584118,2.1266411335846387,-4.056633805671648
-2.159069278849588,-1.9354268913586792,8.422725079997367,3.3781575715274017,2.1298408228129473,-3.9711629123174252
-2.178423547763175,-1.9141284831305496,8.45650665571264,3.3384459424042277,2.145559490198396,-3.888983580719928
-2.1975648325944803,-1.8926728882285657,8.489891115136682,3.2995561065970285,2.1720543699819577,-3.8121922249794977
-2.216491561476766,-1.8709523445287461,8.522886676202653,3.2614341843472334,2.2080290231074566,-3.742380220963112
-2.2352010849220534,-1.8488720542976715,8.555501018046124,3.2240103821376023,2.252538909233089,-3.6807509781849284
-2.2536898054650303,-1.8263466652053406,8.5877411218675,3.187202872355753,2.304914356146536,-3.6282121543488572
-2.271953272117084,-1.8032975216438754,8.619613150591057,3.1509207508122645,2.3646981038498702,-3.585446700142254
-2.2899862473335224,-1.7796505406053766,8.65112235809918,3.115066283810842,2.4315946329046825,-3.5529662831504716
-2.307782752739576,-1.7553345942763299,8.682273020937288,3.0795366209793373,2.5054287473481205,-3.531150218745056
-2.3253360986823393,-1.7302803068028487,8.71306838714708,3.044225118791887,2.586111229267563,-3.520272526011978
-2.3426389017503677,-1.704419194510173,8.743510638335,3.009022393531767,2.6736097409967647,-3.520519230630039
-2.3596830936954696,-1.6776830971002052,8.773600862270317,2.9738172012254664,2.767923488361451,-3.5319976038545184
-2.3764599246664715,-1.6500038622165907,8.803339034282573,2.9384972251869215,2.8690604638663197,-3.5547386783920496
-2.3929599632886376,-1.6213132575779274,8.832724006534441,2.902949838403001,2.9770163638441085,-3.5886941242617856
-2.409173095864417,-1.5915430939394863,8.861753504918472,2.867062897160383,3.0917545259416306,-3.6337284001732506
-2.425088526803812,-1.56062554868007,8.890424133890075,2.8307256131586507,3.213186472512869,-3.689607015026127
-2.4406947822906124,-1.5284936839549412,8.918731390021662,2.7938295430083895,3.3411528807388273,-3.755981734847785
-2.4559797191301618,-1.495082155147553,8.946669685451747,2.756269725659912,3.475405038603315,-3.832373646121547
-2.4709305406816373,-1.46032810476152,8.974232382708346,2.717945989198696,3.6155870904697536,-3.918155127374953
-2.4855338217292524,-1.4241722338568223,9.001411842600332,2.6787644379249467,3.761219624929828,-4.0125319726436075
-2.4997755440678207,-1.386560037607524,9.028199486979581,2.6386391181985105,3.911685402223742,-4.1145271316857945
-2.5136411444438957,-1.3474431835852865,9.054585878161566,2.5974938468816524,4.066218242594678,-4.222967752632008
-2.5271155762797486,-1.3067810011593397,9.080560816630383,2.555264169355332,4.223896276191438,-4.336477393698842
-2.540183386291342,-1.2645420383974253,9.106113458323936,2.511899395418344,4.38364085827214,-4.453475363733822
-2.552828806675316,-1.2207056298147039,9.13123245227812,2.4673646417810056,4.544222444859432,-4.572185103674511
-2.5650358629734633,-1.1752634053661095,9.15590609869593,2.4216427907442606,4.704274568617181,-4.690653280978319
-2.5767884970271244,-1.1282206596799378,9.180122526603371,2.3747362579344773,4.862316725234581,-4.806780796343459
-2.5880707036239237,-1.079597492427592,9.203869889182716,2.326668449971043,5.016786466083855,-4.91836617929551
-2.5988666785481995,-1.0294296277667534,9.227136573682426,2.2774847881780875,5.16608030758624,-5.02316089429966
-2.609160974825867,-0.977768824690891,9.249911421564207,2.227253179235091,5.3086022575409455,-5.11893495407537
-2.618938663072776,-0.9246828021154816,9.272183953356558,2.1760638296943373,5.442817903063432,-5.203550050490607
-2.6281854910939306,-0.8702546230848472,9.293944591653501,2.1240283291894313,5.567311211109287,-5.275036313580864
-2.636888037324779,-0.8145815109737544,9.315184874945395,2.0712779660536227,5.6808405823539685,-5.331667963571511
-2.6450338524345165,-0.7577731051502148,9.335897654605931,2.0179612864179077,5.782390387255918,-5.372032687890319
-2.6526115834860184,-0.6999492012776556,9.356077267470111,1.9642409595390045,5.871214283304654,-5.395089670909606
-2.659611075498795,-0.6412370584446091,9.3757196770655,1.9102900628299084,5.9468670959441345,-5.4002118715002005
-2.666023446083241,-0.5817683874851678,9.3948225776938,1.8562879441149065,6.009222908157418,-5.387209334561823
-2.671841129958093,-0.5216761584035936,9.413385457134948,1.8024158507692882,6.058478146178688,-5.356331899964976
-2.6770578915421286,-0.46109137694180674,9.431409615642641,1.7488525317696384,6.095139723172351,-5.308251430301957
-2.6816688053115465,-0.40013997971008325,9.448898140960338,1.6957700174666188,6.119999539205915,-5.244025382123652
-2.6856702051086474,-0.3389399843180241,9.465855841135005,1.6433297636453823,6.1340976752924306,-5.165044973583021
-2.6890596049518276,-0.27759900756509975,9.482289138771458,1.5916793139095522,6.1386773421612135,-5.072972189539709
-2.6918355950274786,-0.2162122341434876,9.498205931910553,1.5409495920141552,6.1351349894692,-4.969670329200667
-2.6939977173689136,-0.15486088424879563,9.513615427830695,1.4912528887221486,6.124968950033053,-4.857132744662991
-2.6955463262114017,-0.0936111947484651,9.528527956717916,1.4426815612755186,6.109729642140248,-4.737413919732935
-2.696482438158886,-0.03251389832706262,9.54295477233067,1.3953074220781891,6.090973772907384,-4.612566225308357
-2.696807577142157,0.028395839402011222,9.556907846551452,1.3491817598251055,6.070224283144947,-4.484584708138189
-2.6965236187481367,0.08909808223346069,9.570399664149702,1.3043359127437235,6.048937049903091,-4.355361263575901
-2.695632637925802,0.1495874527324916,9.58344302327714,1.2607823001079645,6.028474697755184,-4.226648621989856
-2.694136763398477,0.20987219971004345,9.596050846278219,1.218515813888066,6.0100873180467635,-4.1000338172634425
-2.6920380414013767,0.2699730728905111,9.6082360044171,1.1775154757154316,5.994899483481919,-3.976920240586511
-2.6893383106724715,0.3299220677253303,9.620011159174254,1.1377462733095665,5.983902676863656,-3.8585170173595764
-2.686039089995218,0.38976109449396684,9.63138862190735,1.0991611031359707,5.977952114050436,-3.745834260103883
-2.682141479050278,0.44954061563447123,9.64238023293871,1.0617027605349318,5.977766908930608,-3.639682712947082
-2.6776460728939333,0.5093182847237773,9.652997260544058,1.025305933405461,5.983932575479141,-3.5406763758009254
-2.6725528900466955,0.5691576104785687,9.663250319878113,0.9898991696474518,5.996904962676113,-3.4492368424722457
-2.6668613139419097,0.6291266601053298,9.673149311574587,0.9554068012227294,6.017014849913752,-3.365598275738262
-2.6605700473408564,0.6892968086044673,9.682703379586814,0.9217508184653468,6.044472576274536,-3.2898121501714783
-2.6536770792548117,0.7497415343672127,9.691920887771467,0.888852696963632,6.079372224817065,-3.2217511039952815
-2.6461796639111395,0.8105352566153834,9.700809414741103,0.8566351859236792,6.1216950256572265,-3.161111445005628
-2.638074311344986,0.8717522068719556,9.70937576660034,0.8250240714736229,6.171311775991924,-3.1074140485920245
-2.629356789276266,0.9334653246318749,9.717626007315076,0.7939499309877026,6.227984200969461,-3.0600035681126885
-2.6200221360299474,0.9957451666415695,9.725565506624953,0.7633498953065757,6.291365297992813,-3.018046051836691
-2.6100646843635316,1.0586588196214977,9.733199005578019,0.7331694347882088,6.360998821046759,-2.9805252300254037
-2.5994780961673167,1.1222688078319654,9.740530699925902,0.7033641824879548,6.4363181733444605,-2.9462379040369937
-2.588255408088997,1.18663198956541,9.747564341750781,0.6739018034475849,6.5166450875247115,-2.9137890388495387
-2.576389088193343,1.2517984404406572,9.754303359785258,0.6447639130590895,6.601188582690632,-2.8815873309064393
-2.5638711037889363,1.3178103262675636,9.76075099891585,0.6159480397500251,6.689044794273747,-2.8478421909484455
-2.5506930005262607,1.384700774210301,9.76691047931335,0.5874696178405406,6.779198370463773,-2.810563238195312
-2.5368459927841576,1.4524927579149387,9.772785175491755,0.5593639854585876,6.870526208580197,-2.76756353420075
