th1 (rad),w1 (rad/s),th2 (rad),w2 (rad/s)
6.020207374413572,-2.2700987601593785,2.4167529955120335,-0.668466320229013
5.9975063868119785,-2.2916100582176457,2.410068332309743,-0.7756633921167183
5.974590286229802,-2.309880504430651,2.402311698388576,-0.8802577614192454
5.951491481185495,-2.3247622669581767,2.3935091207743833,-0.982084279281032
5.928243858515913,-2.336133177850811,2.383688277981573,-1.081005848068983
5.9048825267374045,-2.343896642785178,2.3728782195008833,-1.1769141980010236
5.8814435603095525,-2.3479810527003817,2.361109077520873,-1.2697299193930598
5.857963749782549,-2.348338742243809,2.3484117783269425,-1.3594017951612636
5.834480362360111,-2.344944552125548,2.33481776037533,-1.4459055001063772
5.811030916838855,-2.3377940607752863,2.3203587053742663,-1.5292417501504558
5.787652976231103,-2.3269015551969088,2.3050662878727617,-1.6094339958811426
5.764383960679133,-2.312297811989929,2.28897194791395,-1.6865257607027173
5.741260982559234,-2.294027757703404,2.2721066903069227,-1.7605777251528452
5.718320704982199,-2.2721480736596127,2.254500913055394,-1.8316646563033612
5.695599224245603,-2.2467248048113144,2.2361842664923604,-1.8998722755255897
5.67313197619749,-2.2178310257226466,2.2171855437371044,-1.96529415018974
5.650953665940263,-2.1855446099536056,2.197532602235207,-2.028028685950173
5.629098219840727,-2.1499461424352093,2.1772523153757053,-2.088176286895016
5.6075987584163745,-2.1111170081757513,2.156370552506755,-2.1458367416096396
5.586487588334617,-2.069137685039323,2.1349121850906587,-2.2011068845498523
5.565796211484224,-2.024086263465755,2.11290111624516,-2.2540785743009746
5.545555348849566,-1.9760372118259033,2.0903603305021505,-2.3048370234071958
5.525794976731308,-1.9250604025021307,2.0673119602680785,-2.3534595084355816
5.506544372706286,-1.8712204105469032,2.0437773651837228,-2.400014483604214
5.487832168600817,-1.8145760936386526,2.0197772203476805,-2.4445611163603638
5.4696864076644305,-1.7551804587199145,1.995331609184077,-2.4871492583683987
5.452134603077232,-1.6930808168481533,1.970460116600393,-2.5278198600353594
5.43520379490875,-1.6283192231048633,1.9451819180000394,-2.566605830529608
5.4189206026777015,-1.5609331926252663,1.9195158596947433,-2.603533337830377
5.403311270751449,-1.4909566767382079,1.8934805263164396,-2.638623534359604
5.3884017039840675,-1.4184212747687253,1.8670942909728436,-2.6718946830039076
5.37421749123638,-1.3433576473343796,1.8403753441428046,-2.70336464583834
5.3607839147630365,-1.2657970862306087,1.8133416976844212,-2.7330536838645796
5.3481259439007305,-1.1857731847330633,1.7860111608457754,-2.760987501111395
5.3362682120534,-1.1033235410470756,1.7584012858346614,-2.7872004513565156
5.325234976642929,-1.0184914176032898,1.7305292813210962,-2.8117388116496556
5.315050062466896,-0.9313272709731857,1.7024118932045997,-2.8346640151135256
5.305736789757164,-0.8418900624504758,1.6740652530534645,-2.856055727670673
5.2973178891326596,-0.7502482588370856,1.6455046957767578,-2.8760146508671927
5.289815406544289,-0.656480437497054,1.6167445492680859,-2.894664937115344
5.283250602169319,-0.5606754197509789,1.5877978998969324,-2.9121561153322624
5.277643847971809,-0.46293187214385856,1.5586763387436098,-2.928664444407509
5.27301452925037,-0.36335733542648496,1.5293896942995346,-2.9443936387731666
5.2693809558961044,-0.262066665053984,1.499945757911803,-2.9595749433996597
5.266760289245565,-0.15917989291029086,1.4703500084778063,-2.9744665729119832
5.265168490316462,-0.05481954572125736,1.4406053427486865,-2.989352568779773
5.26462029485925,0.05089252103892315,1.4107118170608888,-3.0045411669539956
5.265129220069639,0.1578386961933334,1.3806664053913489,-3.0203628032039767
5.266707607031572,0.2659095030007427,1.3504627773593092,-3.0371679124146334
5.269366702061579,0.3750077119911111,1.3200910982351628,-3.055324699560979
5.273116779181491,0.4850525859998286,1.289537851239553,-3.0752170731907476
5.277967305041489,0.5959841792128979,1.2587856805076456,-3.0972429372071604
5.283927146833618,0.7077676321241733,1.227813251135574,-3.121813034712512
5.29100482315486,0.8203974310821152,1.1965951207884489,-3.14935053065499
5.299208797465681,0.9339016332375774,1.165101615481899,-3.1802915106669856
5.308547813798057,1.0483460938685212,1.133298700375229,-3.215086564855014
5.3190312747367425,1.1638387721579928,1.101147834726679,-3.2542036206454514
5.330669662458322,1.280534232867956,1.0686057985202244,-3.298132191352705
5.343475004787002,1.3986385048669454,1.0356244766066973,-3.3473892200374835
5.357461389835671,1.518414503621897,1.0021505844063225,-3.402526724385447
5.37264553487189,1.6401882745996297,0.9681253171624681,-3.464141490431497
5.389047417617887,1.7643563694610889,0.9334839022581531,-3.532887123282475
5.406690981312497,1.8913947283596542,0.8981550310253283,-3.6094888431435517
5.425604928596094,2.0218695101173236,0.8620601425938929,-3.6947615149688557
5.445823623697267,2.1564503856511714,0.8251125274442043,-3.789631516508491
5.467388127553779,2.295926881271593,0.7872162122791193,-3.8951631714753443
5.490347396366495,2.44122840809083,0.7482645805643658,-4.012590575268757
5.514759680447403,2.593448598391453,0.7081386748116782,-4.14335566090792
5.540694166431318,2.753874397541014,0.666705118202599,-4.289153167239293
5.568232910406728,2.9240198419583674,0.6238135865302061,-4.451982521611671
5.597473108826311,3.1056632068253998,0.5792937613140894,-4.634205008958897
5.628529740894566,3.300883461658399,0.5329517112245004,-4.838600905933574
5.661538575511149,3.5120861880002177,0.4845657021651646,-5.068413379110494
5.696659437391151,3.7419972407518003,0.43388156837405967,-5.327349637101578
5.734079409798669,3.9935785415619045,0.3806080720030439,-5.619476807692569
5.774015195214289,4.269773424585226,0.3244133039261182,-5.948884793550632
5.816712929460141,4.572900248455385,0.2649244559906119,-6.318864670446474
5.862441931944694,4.903358735307547,0.20173580928614715,-6.730135190746876
5.9114755192977695,5.257094636894364,0.13443445737867837,-7.177341621738059
5.964046465666713,5.621139700448558,0.06266104116129778,-7.642864505509894
6.0202578626711984,5.967184638697589,-0.013767603893801161,-8.087857900264586
6.079929709058175,6.246245908561966,-0.09464618289644702,-8.444756520879698
6.142392168143794,6.394208432034469,-0.179093748105244,-8.624877076843788
6.2063342524641385,6.360189452779437,-0.2653425188736819,-8.557769812206441
6.269936146991933,6.145837181212073,-0.35092021699574627,-8.245716761626358
6.3313945188040535,5.810171221158984,-0.43337738461200986,-7.77018478020374
6.389496231015643,5.42801146960387,-0.5110792324140473,-7.233974771506856
6.443776345711682,5.052090288588387,-0.5834189801291159,-6.708952193766235
6.494297248597566,4.707204761141093,-0.6505085020667782,-6.22835626510343
6.541369296208977,4.400326145041246,-0.7127920647178125,-5.801011246104714
6.585372557659389,4.13017570755995,-0.7708021771788597,-5.424597634256345
6.626674314734989,3.8925619426435776,-0.8250481535214231,-5.092979336460679
6.665599934161424,3.6827551694154446,-0.8759779468860299,-4.799425624149645
6.702427485855578,3.4963828802829746,-0.9239722031275264,-4.537801832068996
6.7373913146584075,3.329686324468971,-0.9693502214482164,-4.302892395350122
6.770688177903097,3.1795283402446324,-1.0123791454017177,-4.090391644745205
6.802483461305544,3.043317901827291,-1.0532830618491698,-3.896787258338979
6.832916640323816,2.9189171807818135,-1.0922509344325595,-3.7192245025044235
6.8621058121316345,2.8045549959867295,-1.1294431794576036,-3.5553823791267494
6.890151362091502,2.6987535869716384,-1.1649970032488712,-3.403370043003573
6.917138897961219,2.600269192253125,-1.199030703678907,-3.261643358292788
6.94314158988375,2.508044756316341,-1.231647137261835,-3.1289387430228373
6.968222037446913,2.4211726245027543,-1.2629365246920634,-3.0042209698694147
6.992433763691941,2.3388652354540227,-1.2929787343907575,-2.886641899076641
7.015822416046481,2.26043214911316,-1.3218451533815239,-2.7755076378613213
7.038426737537613,2.1852620867991046,-1.349600229760137,-2.670252134501424
7.060279358405603,2.1128089518315387,-1.3763027511051513,-2.570415656719869
7.081407447923919,2.0425810321762157,-1.40200690767235,-2.4756269624641045
7.101833258245681,1.9741327645369244,-1.426763177296991,-2.385588256228973
7.12157458589105,1.9070585711130517,-1.4506190598592807,-2.300062249968643
7.140645171602181,1.840988375325256,-1.4736196823589671,-2.2188608277675828
7.1590550553554335,1.7755844697748013,-1.495808290636643,-2.141834958411085
7.176810900053182,1.7105394559682443,-1.517226640220754,-2.0688656174186746
7.1939162946128645,1.6455750072456887,-1.5379152963949407,-1.9998555749215525
7.210372044685322,1.580441229287796,-1.5579138521441562,-1.9347219808345786
7.2261764569782,1.5149164110681046,-1.577261071952502,-1.8733897355146076
7.241325621088881,1.4488069768192693,-1.595994969307648,-1.8157856731497548
7.255813690857074,1.3819474692210583,-1.6141528260391456,-1.7618336069578118
7.269633165549284,1.3142004173118795,-1.6317711621087236,-1.7114502907027955
7.282775169722403,1.2454559702367012,-1.6488856650157515,-1.6645423416006657
7.29522972942477,1.1756312095091723,-1.6655310884317582,-1.6210041478137251
7.306986041519862,1.1046690867257496,-1.6817411299098954,-1.5807167527385977
7.3180327323871195,1.0325369687024943,-1.6975482974372813,-1.5435476721382844
7.328358102074144,0.9592248055356379,-1.7129837741586642,-1.5093515630970458
7.337950350129501,0.884742966831433,-1.7280772897896346,-1.4779716298574492
7.346797779797815,0.8091198153440371,-1.7428570060882091,-1.4492416242848296
7.354888977951256,0.7323991041136296,-1.7573494223310575,-1.4229882804763228
7.3622129689923925,0.6546372922529364,-1.7715793051358206,-1.399034015189194
7.368759341914922,0.575900875896995,-1.7855696452877126,-1.3771997283893676
7.374518350673892,0.49626382530611357,-1.7993416425716062,-1.3573075503104077
7.379480988926953,0.41580520802109855,-1.8129147180747103,-1.339183401126737
7.3836390410071635,0.3346070629559337,-1.8263065520859776,-1.3226592543364446
7.386985111636723,0.2527525731167083,-1.8395331446293421,-1.3075750227046234
7.38951263736789,0.17032456689882294,-1.8526088948563884,-1.29378001375736
7.391215883036878,0.08740436103205355,-1.8655466949939619,-1.2811339283213206
7.392089926647198,0.004070943271021227,-1.878358034277175,-1.2695073989586674
7.392130636079909,-0.07959951944944244,-1.8910531082667617,-1.2587820843904625
7.391334640885415,-0.16353387113303577,-1.9036409291106662,-1.2488503507045325
7.389699302174084,-0.2476618853756326,-1.9161294326177114,-1.2396145803334433
7.387222683320328,-0.3319159466215583,-1.9285255784210458,-1.2309861558433832
7.383903523854112,-0.41623052956693185,-1.9408354399794796,-1.2228841681099334
7.379741218558443,-0.5005415118763605,-1.953064281660579,-1.2152338982138091
7.374735803439679,-0.5847853536511003,-1.965216620642717,-1.207965120146321
7.368887949903168,-0.6688981744959389,-1.9772962718441802,-1.2010102679141865
7.362198968158208,-0.7528147560164615,-1.9893063745233222,-1.1943025065394755
7.354670820598043,-0.836467494508155,-2.001249399588717,-1.1877737423189878
7.346306145652962,-0.9197853257690783,-2.0131271370119066,-1.1813526039777702
7.337108292395271,-1.0026926415994328,-2.024940663051684,-1.1749624233490128
7.327081365979277,-1.085108215797041,-2.0366902872851744,-1.1685192421578983
7.316230283821306,-1.1669441564108733,-2.0483754797067535,-1.1619298705095564
7.304560842257198,-1.2481049007188783,-2.059994778411849,-1.1550900228333958
7.292079793250009,-1.3284862698539466,-2.0715456786401827,-1.1478825583052144
7.278794930551469,-1.4079746011813319,-2.0830245042232347,-1.1401758550870051
7.264715184539656,-1.4864459783716033,-2.0944262627741046,-1.1318223509754506
7.24985072475594,-1.5637655815278444,-2.105744486283859,-1.1226572870700908
7.234213068940662,-1.6397871826001897,-2.11697105915456,-1.1124976956491317
7.21781519711466,-1.7143528145115654,-2.1280960361110512,-1.1011416783102483
7.200671668969544,-1.7872926457487077,-2.139107452894154,-1.0883680252712826
7.182798742512056,-1.858425095425429,-2.149991133146867,-1.073936231139191
7.164214491557802,-1.9275572267368855,-2.160730495458259,-1.0575869659760635
7.144938919290433,-1.9944854589759955,-2.1713063651180193,-1.0390430625659446
7.124994064700673,-2.0589966394968484,-2.1816967957436786,-1.018011080776009
7.104404098305705,-2.120869516740802,-2.1918769065514385,-0.9941835070875426
7.083195403138297,-2.1798766531816307,-2.201818741622314,-0.9672416409542877
7.061396636606481,-2.2357868122357396,-2.211491158031857,-0.9368592087969316
7.039038768484123,-2.288367845230281,-2.220859750119826,-0.902706730343008
7.016155090031821,-2.3373900928424622,-2.2298868174232562,-0.8644566399393432
6.992781189103396,-2.382630299502676,-2.2385313838226497,-0.8217891368626443
6.968954886108369,-2.4238760187317325,-2.2467492751912763,-0.7743987033307715
6.944716125921052,-2.4609304621623544,-2.254493262224584,-0.7220011871736515
6.920106821299428,-2.4936177153771117,-2.2617132740963206,-0.6643412989491337
6.895170644145657,-2.5217882105166587,-2.268356687085812,-0.601200322547973
6.869952762040491,-2.545324310379402,-2.2743686903112916,-0.5324037869028236
6.844499518936697,-2.5641458237121264,-2.27969272818032,-0.4578287982546519
6.818858060699576,-2.578215239617603,-2.2842710161628665,-0.37741069248952597
6.7930759083034,-2.587542444180166,-2.2880451230877616,-0.2911486410166484
6.767200483861598,-2.592188668632738,-2.290956609497928,-0.19910983741086688
6.7412785971752704,-2.5922694197185825,-2.292947707872037,-0.10143191096312788
6.715355902978085,-2.5879561627636805,-2.293962026981668,0.001676738706725897
6.689476341350448,-2.5794765684713803,-2.293945259594601,0.10993891324367566
6.663681575665734,-2.5671131956797226,-2.292845870462164,0.2230130133413415
6.638010443708937,-2.5512005618702234,-2.2906157403287506,0.3404998524435792
6.612498438090235,-2.532120645968671,-2.287210741804315,0.4619517324781135
6.587177231630548,-2.5102969663735575,-2.2825912244795337,0.586883483546897
6.562074261966813,-2.4861874719393775,-2.2767223896440645,0.7147850392614674
6.537212387247419,-2.4602765650873084,-2.2695745392514497,0.8451350174340662
6.512609621596546,-2.4330666355134367,-2.261123189077109,0.9774147140086134
6.4882789552414115,-2.4050695136644022,-2.251349041937023,1.1111219039478213
6.464228260104767,-2.376798252231463,-2.240237822897545,1.2457838780958337
6.440460277582453,-2.348759612289326,-2.2277799841165864,1.3809692255853334
6.416972681459559,-2.3214475730336885,-2.213970291860733,1.516297987617749
6.393758205729222,-2.2953381079222654,-2.1988073119845555,1.651449947197928
6.3708048246499995,-2.2708853846027273,-2.1822928125125762,1.7861709659237968
6.348095970803972,-2.2485194607162557,-2.1644311028533383,1.9202774192237984
6.325610776196809,-2.22864547078753,-2.1452283286611005,2.0536589041137945
6.303324321488934,-2.211644237193618,-2.1246917396199625,2.186279491029192
6.281207879116998,-2.197874194380379,-2.1028289447096706,2.3181778602095586
6.259229137173194,-2.1876744913019306,-2.079647166107575,2.449466704006286
6.237352392260175,-2.1813691316078434,-2.055152499067512,2.580331792952919
6.215538700944097,-2.1792720219610846,-2.0293491811379827,2.7110311010532335
6.193745980724486,-2.18169282268108,-2.0022388701274503,2.841894370896249
6.171929052497676,-2.1889435279099096,-1.9738199264184877,2.973323478081921
6.150039617218577,-2.20134574083655,-1.9440866916376685,3.105793932142006
6.1280261598102115,-2.219238649234724,-1.9130287523162484,3.2398578309441746
6.1058337733178645,-2.2429877432516165,-1.8806301740068065,3.3761485681117174
6.083403895885349,-2.2729943452123846,-1.8468686883256893,3.5153875751060446
6.060673952433225,-2.3097060312397937,-1.8117148125746287,3.6583933522950316
6.0375768921208275,-2.353628001595105,-1.7751308790516784,3.806092987986946
6.014040612104877,-2.4053353741024215,-1.737069949171809,3.959536246018193
5.989987258363852,-2.465486184996595,-1.697474586711627,4.119912056987588
5.965332396513887,-2.534834498220368,-1.6562754661417511,4.288566759717737
5.939984051531683,-2.6142422937870293,-1.6133897985445738,4.467022499077832
5.913841628593812,-2.704687453481588,-1.5687195735537955,4.656992418549201
5.886794754058997,-2.8072626997022265,-1.5221496493683035,4.860386020238285
5.8587221270619745,-2.923155914014558,-1.4735457891659207,5.0792921176261165
5.8294905679218285,-3.05359439957331,-1.4227528679896595,5.3159161377178465
5.798954623926096,-3.199721968603747,-1.369593706612481,5.572429794750129
5.766957404240058,-3.36235474926763,-1.3138694086649798,5.850659426218548
5.7333338567473815,-3.541525560674432,-1.2553628144027944,6.151489107203686
5.697918601140637,-3.7356781838486666,-1.1938479233307575,6.4737863575408285
5.660561819302151,-3.9403325420400206,-1.1291100597553492,6.812599659144766
5.621158493881751,-4.146091618003165,-1.0609840631639016,7.156440639920741
5.57969757770172,-4.336216924489088,-0.9894196567646942,7.4839488654450115
5.536335408456829,-4.48502057866421,-0.9145801681102441,7.761643846974335
5.491485202670186,-4.560021049886484,-0.8369637296405008,7.9468194673734365
5.4458849921713215,-4.53129210911288,-0.7574955349667665,8.000304845057448
5.400572071080193,-4.386397226137431,-0.677492486516192,7.906838693679865
5.356708098818818,-4.139676399442102,-0.5984240995793934,7.6875304234768915
5.315311334824397,-3.82519778082159,-0.5215487953446244,7.389814674447349
5.2770593570161815,-3.4795125268184837,-0.4476506486001509,7.063658702035817
5.242264231747996,-3.1294164510717892,-0.3770140615797927,6.745019725813232
5.2109700672372785,-2.789794387813136,-0.3095638643216604,6.453268966020654
5.183072123359147,-2.4668136279597173,-0.24503117466145385,6.195838879990542
5.1584039870795495,-2.1616721245817994,-0.18307278586154843,5.973471550748795
5.136787265833732,-1.8731961912262682,-0.12333807035406048,5.783788432957523
5.118055303921469,-1.5992993347823712,-0.06550018602448526,5.623256123380384
5.102062310573646,-1.3377081565328934,-0.009267624790681425,5.488136881145789
5.088685229008317,-1.0862884387452856,0.04561374402077647,5.374893529195092
5.077822344620865,-0.8431715346340438,0.0993626793127274,5.280326736580344
5.069390629274524,-0.6067873817280578,0.15216594667853084,5.20159057202098
5.063322755457244,-0.3758571562679097,0.20418185239874065,5.136158190828748
5.059564183894564,-0.14937084284574997,0.25554343430702814,5.08177148413214
5.058070475466107,0.07343883943542906,0.30636114914834955,5.036389836196055
5.058804863860462,0.29312143005820585,0.3567250475103101,4.998144235463022
5.061736078161044,0.5100310954364966,0.4067064898649403,4.965298878568705
5.066836389115409,0.7243462762632471,0.4563594786506273,4.936220599012901
5.074079851878041,0.9360871240359085,0.5057216846407563,4.909355719658712
5.0834407231184,1.1451314370921328,0.5548152418373434,4.883213677127699
5.094892037489322,1.3512298108921696,0.6036473786086204,4.8563567119096565
5.108404335598244,1.5540206270562142,0.652210945727717,4.82739492762446
5.123944541868806,1.7530453695791475,0.7004848950039616,4.794986038162191
5.1414749955645975,1.9477645993896664,0.7484347553855835,4.757839121545561
5.160952641558494,2.137574754479805,0.7960131466010391,4.7147216823333356
5.182328389103293,2.321825783012466,0.8431603634243724,4.664469297588457
5.205546646933417,2.4998394708652385,0.889805056400257,4.6059970961943355
5.23054504164207,2.67092820212737,0.9358650273622003,4.538312309363663
5.257254323663343,2.8344137989566573,0.981248150455837,4.46052714111665
5.285598461652909,2.9896460312415356,1.0258534218670035,4.371871246801455
5.315494921965325,3.1360203683771997,1.069572134335018,4.271703175686057
5.346855125649097,3.272994562543525,1.1122891660918786,4.15952022522942
5.379585071274533,3.400103698404493,1.1538843683441729,4.034966260401557
5.413586108258578,3.516973408226255,1.1942340309481885,3.897837159445521
5.44875584234084,3.623331022730559,1.2332124025426436,3.7480836459275584
