th1 (rad),w1 (rad/s),th2 (rad),w2 (rad/s)
3.744796674401687,1.9902306179558718,5.035793112405649,0.5821232996525291
3.7646989805812456,2.041847446882455,5.0416143454021745,0.6227184479550262
3.78511745505007,2.0954906907188744,5.047841529881724,0.6600124164246661
3.8060723619572587,2.151245441355695,5.054441654045971,0.6938004717678522
3.8275848163708157,2.209196377087512,5.0613796587636495,0.723866471904663
3.849676780141691,2.2694284104972664,5.0686183234826965,0.7499824234107284
3.8723710642466638,2.332027475062665,5.076118147716803,0.7719079967966305
3.8956913389972905,2.3970814707424006,5.08383722768477,0.7893899953482288
3.9196621537047145,2.4646813904439084,5.091731127638252,0.8021617723524067
3.9443089676091536,2.5349226507324865,5.099752745361776,0.8099425908206984
3.9696581941164784,2.6079066512132716,5.107852171269983,0.8124369195981695
3.9957372606286112,2.683742587392068,5.115976540465965,0.809333660489682
4.022574686502532,2.7625495410192653,5.124069877070862,0.8003053035092973
4.050200181912724,2.844458869205241,5.132072930105955,0.7850070127362416
4.078644770604777,2.929616907831058,5.139923000233317,0.7630756553447248
4.107940939683088,3.018187994220538,5.147553756786764,0.7341288039119378
4.138122819625293,3.110357796008403,5.154895044825883,0.6977637712703649
4.169226397585377,3.2063369035182347,5.161872682538587,0.6535567842772239
4.201289766620559,3.3063645954416967,5.1684082503813595,0.601062477482977
4.234353412574976,3.4107126125298954,5.1744188751561895,0.5398140042152779
4.268460538700276,3.5196886566515664,5.179817015198342,0.46932424274720463
4.303657425266791,3.6336391506531354,5.184510257625814,0.38908885143211197
4.3399938167733225,3.7529505145636146,5.188401146140135,0.2985923470162517
4.377523321918959,3.8780477865578042,5.191387069610298,0.19731901481648484
4.416303799784537,4.009388771993541,5.193360259758463,0.08477140738121089
4.456397687504473,4.147450943714768,5.194207973832275,-0.039499416083537714
4.49787219694162,4.292706919085847,5.193812979671439,-0.175845747856096
4.5407992661324785,4.4455823747305185,5.192054522192878,-0.3244482353947048
4.585255089879784,4.606387658251926,5.1888100398389305,-0.48520143728587756
4.631318966462303,4.775211275409416,5.1839580254660715,-0.6575431230921989
4.679071079216397,4.951760637607913,5.17738259423515,-0.8402068950851207
4.728588685592476,5.135135063355913,5.168980525284298,-1.0308778347308976
4.779940036226035,5.323522701115365,5.15867174693699,-1.2257415436909245
4.833175263237189,5.513835273946974,5.146414331500081,-1.4189504196785456
4.888313615976659,5.701344117386753,5.132224827303295,-1.602104107855181
4.945327057150527,5.879465441491617,5.116203786224744,-1.7639642451701687
5.004121711565443,6.039943184132826,5.098564143773042,-1.8907688876901896
5.064521143406771,6.173713876212332,5.07965645489614,-1.9675627834457214
5.1262582821688945,6.272564285367998,5.059980827061683,-1.9807058607084396
5.188983925022574,6.331223243457316,5.040173768454598,-1.9210390287946366
5.252296157457147,6.348989681346266,5.020963378166652,-1.786397114161654
5.3157860542706095,6.329951986532898,5.003099407025036,-1.5820753399161005
5.379085574135939,6.281601394198723,4.987278653625874,-1.3189247493015177
5.441901588077926,6.212617197062022,4.974089406132859,-1.010171622821346
5.504027760048546,6.130910146980061,4.963987689904646,-0.6685346985619033
5.565336861518346,6.042532403575778,4.957302342919027,-0.3045529678645614
5.625762185554104,5.951425452793425,4.954256813240381,0.07387850339401147
5.6852764400820375,5.859668762206427,4.954995598274321,0.4612285671862685
5.743873127704102,5.767907210575893,4.959607883946184,0.8537661405110499
5.801552199809861,5.67576934117279,4.968145545351295,1.2489906488578058
5.858309893221589,5.582204343282678,4.9806354518398726,1.6451711947292331
5.9141319366544165,5.485729523283934,4.997087163787165,2.041015842320775
5.968989231887256,5.3846047571720455,5.017497322210373,2.4354543107889515
6.022835279458977,5.27695496142058,5.041851865318262,2.8275082686096304
6.075604829073183,5.160858365730134,5.070126948004358,3.2162258629428773
6.127213412730484,5.03441329385418,5.102289206633786,3.600662486534157
6.177557545669026,4.895791524452882,5.138295831499128,3.9798947275301386
6.2265154609135545,4.74328270615804,5.178094778774429,4.353058067515227
6.273948287975135,4.575331726956584,5.221625359449581,4.71940123838105
6.319701605244701,4.390569229024399,5.268819371833391,5.078351538526728
6.363607297534945,4.187834476515386,5.319602887218658,5.429586170623474
6.405485642300099,3.966189448087802,5.373898748924893,5.7731050392662056
6.445147536780977,3.724923328426672,5.431629799317555,6.109300556943438
6.482396770065244,3.4635475778116422,5.49272280488699,6.439019812706442
6.51703224584336,3.1817836324810806,5.557113003014054,6.763613704751005
6.548850082168171,2.8795483708401344,5.624749140061565,7.08496574779356
6.577645565876572,2.556947419824908,5.695598797539501,7.4054891526408575
6.603215040074821,2.214294354231038,5.769653689065909,7.728072541776629
6.625357983617132,1.8521868913030184,5.846934414483675,8.055939164009292
6.643879852530162,1.471692465943364,5.927493806123768,8.392356867773485
6.6585967771895955,1.0747290460927963,6.0114173748015025,8.740090169848461
6.669344067650523,0.6647745244723636,6.098818276499987,9.100417627815972
6.675991812895247,0.248087994733315,6.189822452778147,9.47146065694082
6.67847269284258,-0.16437811686159787,6.284537059347555,9.845557831650263
6.676828911673964,-0.554424811851599,6.382992637664057,10.205700379877108
6.671284663555448,-0.8942646131760403,6.485049641462829,10.522099977088015
6.662342017423687,-1.1469204947234766,6.590270641233709,10.752219135717798
6.650872812476452,-1.2734590786071298,6.697792832590887,10.849752850934834
6.63813822169038,-1.2485613181702542,6.806290361100235,10.784644457184903
6.625652608508678,-1.0760184948557776,6.914136805672084,10.562968139271673
6.61489242356012,-0.7890505737007449,7.019766487064801,10.22675333184873
6.607001917823112,-0.43333817559954496,7.122034020383288,9.831514712499828
6.6026685360671165,-0.04867624493102829,7.220349167508286,9.422927701691432
6.602181773617806,0.33852208140867485,7.314578444525201,9.028284200386027
6.605566994431893,0.71373352993654,7.404861286529061,8.659490555764439
6.612704329731258,1.0701337879352035,7.491456192086706,8.31907064477677
6.62340566761061,1.4050933393566831,7.574646898534474,8.00488102945174
6.637456601004177,1.7180035743020747,7.654695708828991,7.71290767262262
6.654636636747198,2.0091084262054135,7.731824785555218,7.438701103363711
6.674727721009252,2.2789339340764636,7.806211796588855,7.178039588920237
6.697517060350017,2.5280376879109565,7.877992192478057,6.927199450563624
6.722797437229127,2.756919379364324,7.947264186983694,6.683038644501375
6.75036663102277,2.9660082052187606,8.014094573428707,6.44299683035339
6.780026713074958,3.155683834092851,8.078524541732241,6.205060882665014
6.811583551415886,3.326309019485005,8.140575150558892,5.967717841643374
6.844846641610736,3.4782628951212327,8.200252328975326,5.729904458637153
6.879629270561948,3.6119696190629758,8.257551373561698,5.490956673776076
6.915748966752578,3.7279199899786164,8.31246094029946,5.250559953326804
6.953028166652365,3.8266852737292467,8.364966539832727,5.00870060938228
6.991295019389657,3.908923405500448,8.41505354592655,4.765618129430207
7.0303842534446614,3.975378287493948,8.462709727220853,4.521758714718987
7.070138036319601,4.026873234011327,8.507927314368043,4.2777304474882065
7.110406768659714,4.064299795696694,8.550704618842925,4.034260677976343
7.151049766616681,4.088603259473794,8.591047225622688,3.792156304405745
7.191935799211419,4.100766093859333,8.628968788666745,3.5522676081382376
7.232943460150012,4.101790510603156,8.664491464748128,3.3154562150642413
7.273961365256044,4.092681162246525,8.69764602689877,3.08256760479585
7.314888176878509,4.074428810317557,8.72847170294673,2.8544084058138153
7.355632464981684,4.047995598630963,8.757015787004867,2.63172852063756
7.396112420967994,4.014302366561544,8.783333072211244,2.415207940065488
7.43625544463361,3.9742182512391655,8.807485151611898,2.2054479444631157
7.475997627146001,3.9285526648583096,8.829539631056528,2.002966262606936
7.515283153794584,3.8780495995712765,8.849569293682597,1.8081956693535746
7.554063649790297,3.8233841102396493,8.867651250376133,1.6214854526931013
7.592297490892694,3.765160754309255,8.883866104903063,1.4431051654790283
7.6299490984357865,3.703913725729688,8.898297156557854,1.2732500919095766
7.666988235693084,3.640108402176002,8.91102965747695,1.1120478969994685
7.7033893197148435,3.574144027068812,8.922150136446945,0.9595659818107332
7.739130759985532,3.5063572650276544,8.931745796265051,0.8158191314613175
7.774194332635808,3.4370263966435206,8.939903987579665,0.6807771111415644
7.808564596602244,3.366375951543698,8.94671175869108,0.5543719329587483
7.842228356117681,3.2945816140448994,8.952255478020668,0.4365045801021993
7.87517417225813,3.221775270379836,8.95662052382169,0.32705103252555806
7.907391924961928,3.148050098375322,8.959891034146946,0.22586748913175334
7.938872425945681,3.0734656280269284,8.962149709038263,0.13279472527282915
7.96960708222595,2.998052723664345,8.96347765629099,0.047661561857448784
7.999587609462594,2.9218184547860413,8.963954271909564,-0.029712545467952614
8.028805794010454,2.8447508329850755,8.963657146454885,-0.09951576050905714
8.057253302340305,2.7668233968376086,8.962661988849794,-0.16194290233671269
8.08492153630868,2.687999625637358,8.961042559826426,-0.21719517773163777
8.111801532565055,2.6082371572045324,8.958870608049109,-0.26548050344210133
8.1378839041371,2.5274917757847755,8.956215803014688,-0.30701429104567346
8.163158821894948,2.445721124738632,8.953145660104232,-0.34202054890780226
8.187616033142334,2.36288808709009,8.949725454615153,-0.3707331408144022
8.211244914013234,2.27896376709168,8.94601812320701,-0.3933970311474328
8.23403455168415,2.193929999913849,8.942084152895536,-0.4102693441068429
8.255973851683288,2.1077813163912706,8.937981459454468,-0.42162007156224723
8.277051664847201,2.020526297051921,8.933765258738845,-0.42773228227978627
8.29725692781772,1.9321882652741749,8.929487935916047,-0.4289017152200842
8.316578810470462,1.8428052932101648,8.925198918763845,-0.4254356807165502
8.335006863402564,1.7524295247560469,8.92094456195668,-0.41765124342853327
8.352531158650123,1.6611258548667904,8.916768049522396,-0.40587271629242855
8.369142417198791,1.5689700405175189,8.912709322359472,-0.39042855033782004
8.384832117603967,1.4760463517494868,8.908805036856094,-0.3716477556958446
8.399592581121462,1.38244489776238,8.905088559299136,-0.3498560291501327
8.413417030099087,1.2882587798970166,8.901589999007635,-0.32537178900467273
8.426299617898056,1.19358122877686,8.898336281117588,-0.2985023264822823
8.438235430185825,1.0985028765162126,8.895351257852765,-0.2695402740843025
8.449220458950988,1.0031092979212053,8.892655855111922,-0.23876056722111144
8.4592515519302,0.9074789293930099,8.89026824943971,-0.20641803956575086
8.46832634122413,0.8116814439370623,8.888204069044052,-0.17274574963069733
8.4764431556635,0.7157766286472874,8.886476611547746,-0.13795409091358254
8.483600921949973,0.6198137803334477,8.88509707063861,-0.10223069501592502
8.489799059753308,0.5238316079760434,8.884074763688451,-0.06574109980417829
8.495037375833068,0.427858608923251,8.88341735269041,-0.028630125043721102
8.499315961922301,0.331913869769166,8.883131051439973,0.00897612325155487
8.502635100619992,0.23600823245222682,8.883220812672489,0.04696771165235997
8.504995182944514,0.14014576047145882,8.883690489789013,0.0852478995803156
8.506396640549228,0.044325438065173625,8.884542968784816,0.1237298205823067
8.50683989492988,-0.0514569645626687,8.885780266990638,0.1623329224113951
8.506325325284253,-0.1472069255726257,8.887403596214751,0.20097926064770194
8.504853256028527,-0.24292916960623837,8.889413388821229,0.2395897377252736
8.502423964332465,-0.33862569317097907,8.891809286198482,0.278080377582063
8.499037707400754,-0.43429388097330845,8.894590089974303,0.3163587261942004
8.494694768591021,-0.5299247779442476,8.897753677236246,0.35432046988783433
8.489395520811579,-0.625501583165636,8.901296881935124,0.3918463658655252
8.483140504979922,-0.7209984329430633,8.90521534559378,0.4287995816397117
8.475930520650492,-0.8163795397700097,8.909503341410177,0.46502354040657345
8.467766725252792,-0.9115987505953548,8.914153576814243,0.5003403659224644
8.458650737746838,-1.006599580331763,8.919156980473469,0.5345500112199363
8.44858474194352,-1.101315763800976,8.924502480585668,0.5674301388298506
8.43757158430551,-1.1956723506076974,8.930176781973966,0.5987367949671896
8.425614860799433,-1.2895873427455002,8.936164149923638,0.6282058862539126
8.412718987371978,-1.3829738449244384,8.942446208786176,0.655555426112696
8.398889248922734,-1.4757426645124214,8.949001763047303,0.6804884715086373
8.38413182227761,-1.5678052643716285,8.955806647762389,0.702696623136332
8.368453769633893,-1.659076941198403,8.962833613993752,0.7218639183590346
8.35186300022191,-1.7494800779303972,8.970052253177341,0.7376709115191487
8.334368199442606,-1.8389473047180658,8.977428962292533,0.7497987155537754
8.315978726395425,-1.927424401265096,8.984926949448072,0.7579327757745463
8.296704482382774,-2.014872784954852,8.992506277205818,0.761766162787181
8.276555754533225,-2.1012714532835073,9.00012393883369,0.7610022059651211
8.25554304000039,-2.1866182831956493,9.007733960893342,0.7553563383648663
8.233676857168433,-2.270930630106846,9.01528752427699,0.744557083262053
8.210967550867364,-2.3542452111261767,9.022733095109611,0.7283461753099709
8.187425098756103,-2.436617295708249,9.03001655686271,0.7064778693478572
8.163058925799021,-2.518119258830264,9.03708133555619,0.6787175417173603
8.137877733210718,-2.5988385741827176,9.043868510973363,0.6448397288299209
8.11188934746889,-2.6788753366099267,9.050316908261662,0.6046257738983938
8.08510059410279,-2.7583394043727227,9.056363166000645,0.5578612653695953
8.057517200059063,-2.8373472441072276,9.061941778654342,0.5043334514038986
8.02914372761799,-2.9160185467499677,9.06698511316838,0.4438288064903761
7.99998354215049,-2.9944726636577075,9.071423401233284,0.37613091212245003
7.970038815513913,-3.0728248911161495,9.075184710354508,0.3010187964341729
7.939310566602751,-3.1511826105772247,9.07819489831885,0.21826586034667886
7.907798740496979,-3.2296412730554187,9.080377556922317,0.1276395018924958
7.875502327766425,-3.308280200482752,9.081653951941242,0.02890153693964373
7.842419525761597,-3.387158165423816,9.081942967310638,-0.07819049630806926
7.808547944107359,-3.4663087040595753,9.081161062347558,-0.19388107045040087
7.773884857066763,-3.5457351162641793,9.079222251643055,-0.31841336895897815
7.738427505904121,-3.625405111354369,9.076038117953464,-0.4520248910099914
7.702173454790577,-3.705245069117095,9.071517869043365,-0.594941910058722
7.665121004099406,-3.785133903477816,9.065568449942779,-0.7473727510058907
7.627269665064628,-3.864896541134065,9.05809472243272,-0.9094998736317421
7.588620699653288,-3.9442970600716136,9.048999723696403,-1.081470781924815
7.5491777290525715,-4.023031573370856,9.038185015877154,-1.2633878219604915
7.508947413318863,-4.100720992054536,9.02555113765755,-1.4552969866145344
7.467940203398317,-4.176903856382984,9.010998167791405,-1.6571759144782696
7.4261711648344875,-4.251029486723513,8.994426408646621,-1.8689213527683455
7.383660869967252,-4.3224517707496,8.975737195118938,-2.090336448442844
7.340436352259756,-4.390423970015316,8.95483383063451,-2.32111833528551
7.2965321125596025,-4.45409499144019,8.931622647281655,-2.56084659284069
7.251991162645201,-4.512507622220642,8.906014181353248,-2.8089732594487313
7.206866086422994,-4.564599263278151,8.87792444875876,-3.064815178259717
7.161220093790212,-4.6092057087185765,8.847276296976164,-3.32754953264236
7.115128036703027,-4.645068498435307,8.81400080164974,-3.596213475622469
7.068677351718674,-4.670846309279514,8.778038666893515,-3.8697087663993996
7.021968888625879,-4.685130738857083,8.73934157922952,-4.14681228559089
6.975117581237308,-4.68646666777077,8.697873456373612,-4.426193200883803
6.9282529145596,-4.673377155729302,8.653611524364774,-4.70643738953112
6.881519143002307,-4.644392532234104,8.606547150469462,-4.986079490001262
6.835075217679965,-4.598082986080113,8.556686355569449,-5.263642652805251
6.789094387819164,-4.533093548970332,8.504049929041397,-5.537685697119129
6.7437634523294605,-4.448179925518124,8.448673072070205,-5.8068569711040166
6.699281653074279,-4.342243174330746,8.390604502359166,-6.069953787371588
6.655859221330972,-4.2143608343435774,8.329904964485449,-6.325985902764826
6.613715612987536,-4.063811769309493,8.266645105457801,-6.574241190714358
6.5730774952944415,-3.8900918290999162,8.200902693550658,-6.8143514849104285
6.534176577003443,-3.6929174535744647,8.132759178701553,-7.04635663035762
6.497247402467698,-3.472214612359683,8.062295612397977,-7.2707651298203455
6.462525256344101,-3.228090994733311,7.989587961099773,-7.488610461826296
6.430244346396768,-2.9607901198470996,7.914701856481511,-7.701503163521373
6.400636445198297,-2.6706269904803897,7.837686824846297,-7.911680034464727
6.373930175293493,-2.3579060427932803,7.758570024501649,-8.122053128488087
6.3503511148655605,-2.022823530335069,7.677349493216768,-8.336262178136892
6.33012287956221,-1.66535846663316,7.5939868714353995,-8.55873401826405
6.313469294895878,-1.2851597607825673,7.508399531252759,-8.794750023300157
6.300617697288052,-0.8814443524672996,7.4204520310197575,-9.050514623216333
6.291803253763379,-0.4529366436744695,7.329946884787594,-9.333198414593886
6.287273887326634,0.0020868120212356733,7.236614900641655,-9.650884997506322
6.287294755446847,0.4855112978132294,7.140106050666592,-10.01225370433365
6.292149868424979,0.9985707062872438,7.039983513623255,-10.425625941315415
6.302135575487852,1.5399286934775875,6.935727254210101,-10.89659764699379
6.317534862422628,2.1015844214407027,6.826761277740163,-11.422785510244616
6.338550706637035,2.661040710554859,6.7125334226377165,-11.983475918395841
6.365161113742583,3.169069524265761,6.592698663453758,-12.523054130413998
6.39685180898524,3.539111120345295,6.467468122149618,-12.936063090650212
6.432242920188694,3.6610740715458276,6.3381074912431155,-13.084517306039722
6.468853660904152,3.4655806854940363,6.2072623181827185,-12.88267034814784
6.503509467759092,2.994509942988477,6.07843561470124,-12.389131612661988
6.5334545671889765,2.372618645451592,5.95454429857462,-11.765678719240386
6.557180753643492,1.7121461617403746,5.8368875113822165,-11.150395171271082
6.574302215260896,1.0714458926838208,5.725383559669505,-10.607201352727936
6.585016674187734,0.4697184347694151,5.619311546142226,-10.149092693284874
6.589713858535427,-0.09147805960864897,5.5178206192093775,-9.76766379532009
6.588799077939341,-0.6162682029949796,5.420143981256176,-9.448603443586633
6.582636395909391,-1.1095636930786295,5.32565794682031,-9.177575116756083
6.571540758978605,-1.575417858897303,5.233882195652749,-8.941917914939467
6.555786580389632,-2.016640894500103,5.144463016503354,-8.730860051248486
6.535620171444631,-2.43485659732589,5.057154415990869,-8.53530227710648
6.5112716054713715,-2.8306944793700772,4.971801393219804,-8.347540334785238
6.482964660677671,-3.204010567265893,4.888325989871952,-8.161037700142863
6.450924555005011,-3.554103033523059,4.806715612870524,-7.9702691032091195
6.415383524669781,-3.8799133305830056,4.7270129218384325,-7.770625614709608
6.37658439136395,-4.180210266178898,4.649306665691336,-7.55836401782416
6.334782288702161,-4.453755200299601,4.573723025513094,-7.330582619308946
6.290244736699165,-4.69944579130963,4.500417199320005,-7.085207716331893
6.243250278786069,-4.91643518630191,4.429565122156686,-6.820977996297645
6.19408592692305,-5.104223781619053,4.3613553421937095,-6.537417617131507
