th1 (rad),w1 (rad/s),th2 (rad),w2 (rad/s),a1 (rad/s^2),a2 (rad/s^2)
4.587739686670105,-2.5742321765370235,3.3798931363094162,-1.5627492856084377,7.547754120545819,5.828567480713614
4.561997364904735,-2.4987546353315655,3.364265643453332,-1.5044636108013016,7.692486916412389,5.174813777220147
4.537009818551419,-2.4218297661674417,3.349221007345319,-1.4527154730291,7.823200218112402,4.536839228652542
4.512791520889745,-2.3435977639863177,3.334693852615028,-1.4073470807425748,7.941201849558677,3.9160532450598495
4.489355543249881,-2.264185745490731,3.3206203818076023,-1.3681865482919762,8.047582763555107,3.3136954693537164
4.466713685794974,-2.1837099178551798,3.3069385163246827,-1.335049593598439,8.143233050380859,2.730851841634425
4.444876586616422,-2.102277587351371,3.2935880203886985,-1.3077410751820948,8.228859624597568,2.1684692344722762
4.423853810742909,-2.019988991105395,3.2805106096368775,-1.2860563828373721,8.305005017648726,1.6273683807001682
4.403653920831855,-1.936938940928908,3.267650045808504,-1.2697826990303704,8.372066776071662,1.108254974562054
4.384284531422566,-1.8532182731681912,3.2549522188182003,-1.2587001492847498,8.43031703383459,0.611728952558715
4.365752348690884,-1.7689151028298453,3.2423652173253528,-1.2525828597591626,8.479921892767718,0.1382920527842646
4.348063197662586,-1.6841158839021682,3.229839388727761,-1.25119993923132,8.520960307692839,-0.3116461869036695
4.331222038823564,-1.5989062808252397,3.217327389335448,-1.2543164011003567,8.553442232830863,-0.7377637974802636
4.315232976015312,-1.5133718584969311,3.2047842253244445,-1.2616940390751594,8.577325843073606,-1.1398229086387315
4.300099257430343,-1.427598600066195,3.192167284933693,-1.2730922681615466,8.592533696893568,-1.5176672410133003
4.285823271429681,-1.3416732630972594,3.1794363622520776,-1.2882689405716796,8.598967755700833,-1.8712203800150278
4.272406538798709,-1.255683585540251,3.166553672846361,-1.30698114437183,8.596523215709336,-2.200484674463984
4.259849702943306,-1.1697183533831577,3.1534838614026426,-1.3289859911164699,8.585101141190169,-2.505540627138185
4.248152519409475,-1.083867341971256,3.1401940014914778,-1.3540413973878518,8.564619911002696,-2.786546663521565
4.237313845989762,-0.9982211428612289,3.126653587517599,-1.3819068640230674,8.53502550274405,-3.043739175915615
4.22733163456115,-0.9128708878337883,3.1128345188773685,-1.4123442557822234,8.496300640841248,-3.277432740812653
4.218202925682812,-0.8279078814253759,3.0987110763195465,-1.44511858319035,8.448472827537412,-3.4880203979663547
4.209923846868558,-0.7434231531500017,3.084259890487643,-1.4799987871700135,8.39162126113752,-3.675973861695128
4.202489615337059,-0.6595069405386266,3.069459902615943,-1.516758525786965,8.32588262712828,-3.8418435119561742
4.195894545931672,-0.5762481142673438,3.0542923173580734,-1.5551769609065267,8.251455728553946,-3.9862579891260785
4.190132064788999,-0.4937335569818043,3.038740547749008,-1.5950395407977875,8.168604906246433,-4.109923197278177
4.185194729219181,-0.41204750791934,3.02279015234103,-1.6361387727705694,8.077662190894397,-4.213620511001937
4.181074254139988,-0.331270886010396,3.0064287646133243,-1.6782749778805888,7.979028130533235,-4.2982039845968725
4.177761545279884,-0.2514806047050636,2.9896460148345185,-1.7212570177265576,7.873171250792901,-4.364596382496736
4.175246739232833,-0.1727488921971346,2.972433444657253,-1.764902981551525,7.760626131704863,-4.413783886861576
4.173519250310862,-0.09514263088008597,2.9547844148417375,-1.8090408204201407,7.641990123068646,-4.446809391143591
4.17256782400206,-0.018722729649399514,2.936694006637536,-1.8535089143315766,7.5179187678695065,-4.464764353774317
4.172380596705566,0.05645645802929555,2.91815891749422,-1.8981565578693198,7.3891200563655115,-4.468779258912061
4.172945161285859,0.13034765859295067,2.899177351915527,-1.9428443504584405,7.256347687770994,-4.460012805255478
4.174248637871789,0.2029111354706606,2.879748908410942,-1.9874444785109953,7.120393567228467,-4.439640012660983
4.176277749226495,0.27411507114294525,2.8598744636258324,-2.031840878637605,6.982079808543417,-4.408839493420725
4.179018899937924,0.34393586922837943,2.8395560548394565,-2.0759292735718127,6.842250544319389,-4.3687801753288396
4.182458258630208,0.4123583746715733,2.818796762103738,-2.119617075325101,6.701763862238425,-4.320607783455891
4.186581842376924,0.47937601329395757,2.7976005913504873,-2.16282315315966,6.561484188282651,-4.265431385169128
4.191375602509864,0.5449908551767841,2.7759723598188906,-2.2054774670113515,6.422275425160998,-4.204310278702092
4.196825511061632,0.6092136094283941,2.753917585148777,-2.2475205697983722,6.2849951288986246,-4.1382414616628225
4.202917647155916,0.6720635607173804,2.7314423794507934,-2.2889029844150004,6.1504899713118215,-4.068147855933739
4.209638282763089,0.7335684604304986,2.7085533496066434,-2.3295844629743376,6.019592694415579,-3.994867394117452
4.2169739673673945,0.7937643873746544,2.6852575049769,-2.3695331369155124,5.893120718380396,-3.9191429951564163
4.224911611241141,0.8526955945584583,2.6615621736077446,-2.4087245668670767,5.771876520917828,-3.841613378141963
4.233438567186726,0.9104143597676366,2.6374749279390737,-2.447140700648496,5.656649865753696,-3.762804588422755
4.242542710784402,0.9669808584251736,2.6130035209325886,-2.484768746532724,5.548221923018323,-3.683122043195697
4.252212519368654,1.0224630776553567,2.5881558334672614,-2.521599966964681,5.447371295610508,-3.602842848593785
4.262437150145208,1.0769367906114617,2.5629398337976146,-2.5576283954506187,5.354881942113526,-3.5221081004267396
4.273206518051322,1.130485610032597,2.5373635498431084,-2.592849476454886,5.271552966239957,-3.4409148600027937
4.284511374151648,1.1832011396949966,2.5114350550785596,-2.627258625054914,5.198210220697104,-3.359107499712547
4.296343385548598,1.2351832419019677,2.4851624688280105,-2.6608497000520392,5.135719643069914,-3.27636814720454
4.3086952179676175,1.2865404383326668,2.4585539718274902,-2.693613381524085,5.085002193088048,-3.192206032382285
4.321560622350944,1.3373904602635474,2.4316178380122495,-2.725535441847908,5.047050180826025,-3.105945673669113
4.334934526953579,1.3878609620718076,2.4043624835937702,-2.756594898584599,5.0229446451132445,-3.016714052038258
4.3488131365742975,1.43809040852294,2.3767965346079243,-2.7867620391049814,5.01387323492996,-2.9234272464300326
4.363194040659526,1.4882291408722397,2.3489289142168746,-2.8159963115692817,5.021147729100036,-2.82477748908715
4.3780763320682485,1.53844061816324,2.3207689511011815,-2.844244086460153,5.04621985526294,-2.719222307683493
4.393460738249881,1.5889028167158694,2.29232651023658,-2.871436309536988,5.090693379054695,-2.604978436440524
4.40934976641704,1.6398097505064164,2.2636121471412105,-2.8974860939013936,5.156329456622085,-2.4800246049564856
4.425747863922104,1.6913730450726372,2.2346372862021964,-2.922286339950958,5.2450408965004724,-2.3421192716498287
4.44266159437283,1.7438234540376418,2.205414422802687,-2.9457075326674564,5.358869181070773,-2.1888419795993403
4.460099828913207,1.7974121458483496,2.1759573474760123,-2.9675959524634496,5.499935802267866,-2.017670361552879
4.478073950371691,1.8524115038710283,2.146281387951378,-2.9877726560789784,5.670356699788562,-1.826108885761716
4.496598065410401,1.909115070868914,2.116403661390588,-3.0060337449365955,5.872105552217788,-1.6118899568481344
4.515689216119091,1.967836126391092,2.086343323941222,-3.022152644505077,6.106808878490681,-1.3732722631730252
4.535367577383002,2.0289042151759986,2.0561217974961714,-3.035885367136807,6.375454403460255,-1.1094638411327462
4.555656619534762,2.092658759210601,2.0257629438248035,-3.0469800055481344,6.677995761991085,-0.8211956203452841
4.576583207126868,2.159438716830512,1.9952931437693222,-3.0551919617515875,7.012844222375349,-0.5114611424890696
4.598177594295173,2.2295671590542656,1.9647412241518063,-3.060306573176478,7.376255603265788,-0.1864140830693297
4.620473265885716,2.3033297150869236,1.9341381584200414,-3.0621707140071712,7.761652290584833,0.14362923890540494
4.643506563036585,2.380946237992772,1.9035164512799698,-3.0607344216181174,8.158969273208317,0.46320469839180806
4.667316025416513,2.4625359307248553,1.8729091070637887,-3.0561023746341993,8.554177643646158,0.7509475194428231
4.691941384723761,2.5480777071613168,1.8423480833174466,-3.0485928994397713,8.929207302980387,0.9793863841393201
4.717422161795374,2.6373697801911207,1.8118621543230489,-3.038799035598378,9.26253585545638,1.1156680814696465
4.743795859597285,2.7299951387456844,1.781474163967065,-3.0276423547836817,9.530690675879185,1.1235740881191283
4.771095810984742,2.8253020455044764,1.7511977404192283,-3.0164066139024905,9.710779752463875,0.967009680830637
4.799348831439787,2.922409843029115,1.7210336742802033,-3.006736517094184,9.783902119501644,0.614771958047396
4.828572929870078,3.0202488642241314,1.6909663091092615,-3.00058879751371,9.738930404945217,0.04588807507892657
4.8587754185123195,3.1176381682735834,1.6609604211341245,-3.000129916762921,9.575830059585673,-0.7456670966332076
4.889951800195055,3.21339646886944,1.6309591219664952,-3.007586587729253,9.307560499790922,-1.7482574120515573
4.922085764883749,3.3064720738673494,1.6008832560892026,-3.025069161849769,8.95983203151175,-2.93295568731804
4.955150485622423,3.396070394182467,1.5706325644707049,-3.0543987187229495,8.568557441266805,-4.257281831744903
4.989111189564247,3.481755968595135,1.5400885772834754,-3.0969715370403987,8.175536107511398,-5.671586924437614
5.0239287492501985,3.563511329670249,1.5091188619130713,-3.153687406284775,7.823439194835099,-7.126579279298571
5.059563862546901,3.6417457216185998,1.4775819878502237,-3.2249531990777607,7.551300020452315,-8.580268210560435
5.095981319763087,3.717258721823123,1.445332455859446,-3.310755881183365,7.391432715224258,-10.002988922982428
5.133153906981319,3.7911730489753652,1.4122248970476123,-3.410785770413189,7.368179863871514,-11.379926191997045
5.171065637471072,3.8648548476140805,1.3781170393434805,-3.5245850323331593,7.498371490668879,-12.711321826649359
5.209714185947213,3.9398385625207695,1.342871189020149,-3.6516982505996527,7.793043138415294,-14.011065439119648
5.249112571572421,4.017768993904922,1.3063542065141525,-3.791808904990849,8.259862366590031,-15.304546376574695
5.28929026151147,4.100367617570822,1.268436117464244,-3.944854368756596,8.905799757852499,-16.62655726123237
5.330293937687178,4.189425615149347,1.228987573776678,-4.111119941368919,9.739760294380883,-18.019822032055355
5.372188193838672,4.286823218093156,1.1878763743629888,-4.291318161689473,10.7750833854438,-19.534496029125474
5.4150564260196035,4.394574051947594,1.144963192746094,-4.486663121980728,12.031979448509807,-21.22882516005509
5.459002166539079,4.514893846432693,1.1000965615262865,-4.698951373581279,13.540084800669979,-23.171078220776856
5.504151105003406,4.650294694439393,1.0531070477904738,-4.930662155789047,15.341389059798022,-25.442868449312808
5.5506540519478005,4.803708585037373,1.0038004262325833,-5.185090840282175,17.49382240666112,-28.14401924223753
5.598691137798174,4.978646809103984,0.9519495178297614,-5.46653103270455,20.075757571384546,-31.39912858589097
5.648477605889214,5.17940438481783,0.897284207502716,-5.7805223185634595,23.191477152867225,-35.36577243854759
5.700271649737393,5.411319156346503,0.8394789843170813,-6.134180042948936,26.976967193889745,-40.243409785047696
5.754384841300857,5.6810888282854,0.778137183887592,-6.536614140799412,31.603361844153266,-46.27931179622371
5.811195729583711,5.997122446726933,0.7127710424795979,-6.999407258761649,37.2696648015006,-53.76001207124473
5.871166954050981,6.369819094741938,0.6427769698919814,-7.537007379474097,44.160876508667585,-62.95530526761378
5.9348651449984,6.811427859828615,0.5674068960972405,-8.166560432150234,52.30685796633217,-73.92499753253007
6.0029794235966865,7.334496439491936,0.48574129177573816,-8.905810407475535,61.17757972521589,-85.9592003900183
6.076324387991606,7.946272236744095,0.3966831877009828,-9.765402411375717,68.65746147448294,-96.15186962550196
6.1557871103590465,8.632846851488925,0.29902916358722564,-10.726921107630737,68.97708440564486,-96.5126617979959
6.2421155788739355,9.322617695545373,0.19175995251091826,-11.692047725610696,50.963009644869345,-71.50882165521345
6.335341755829389,9.832247791994067,0.0748394752548113,-12.40713594216283,5.3915218355307,-8.315527659508344
6.4336642337493295,9.886163010349375,-0.049231884166816994,-12.490291218757914,-51.34398217403805,70.19523381627138
6.532525863852824,9.372723188608994,-0.17413479635439613,-11.7883388805952,-82.4733971521931,112.98559523837568
6.626253095738914,8.547989217087062,-0.29201818516034816,-10.658482928211443,-82.21843121387484,112.35623999037786
6.711732987909785,7.725804904948314,-0.3986030144424626,-9.534920528307664,-69.64601923816439,94.88308118666588
6.788991036959268,7.02934471256667,-0.49395221972553927,-8.586089716441005,-56.5049130008599,76.75955231471436
6.8592844840849345,6.464295582558071,-0.5798131168899493,-7.818494193293862,-45.8220233094251,62.08124469482077
6.923927439910515,6.00607534946382,-0.657998058822888,-7.197681746345655,-37.6414946053553,50.853968527642955
6.983988193405153,5.629660403410266,-0.7299748762863445,-6.689142061069226,-31.424696967632624,42.303725682562686
7.040284797439256,5.31541343373394,-0.7968662968970368,-6.266104804243598,-26.660522129621633,35.706967339001714
7.093438931776595,5.048808212437724,-0.8595273449394728,-5.909035130853582,-22.964572824331878,30.52009337710025
7.1439270139009725,4.819162484194405,-0.9186176962480086,-5.603834197082579,-20.064325092446786,26.35531928173533
7.192118638742916,4.618519233269937,-0.9746560382188344,-5.340281004265226,-17.768996799824208,22.937464546921852
7.238303831075616,4.440829265271694,-1.0280588482614867,-5.110906358796007,-15.94459348708359,20.068995461888523
7.2827121237283325,4.281383330400859,-1.0791679118494468,-4.910216404177122,-14.496099331593587,17.60566768742576
7.325525957032341,4.136422337084923,-1.128270075891218,-4.734159727302864,-13.355170439940668,15.440419136994409
7.366890180403191,4.002870632685516,-1.1756116731642468,-4.57975553593292,-12.471514612469754,13.493062542591819
7.406918886730046,3.8781554865608188,-1.221409228523576,-4.444824910507002,-11.806595449492537,11.703991770342192
7.445700441595654,3.7600895320658934,-1.265857477628646,-4.32778499280358,-11.328756076212601,10.030687360123299
7.483301336916313,3.646801971303767,-1.3091353275566817,-4.227478119202347,-11.009233925637469,8.446141658336613
7.51976935662935,3.5367096320473923,-1.3514101087487052,-4.143016702618981,-10.8188617397723,6.93843685134315
7.555136452949824,3.4285210146496694,-1.392840275774895,-4.073632334105549,-10.725548174979062,5.5106554063564
7.589421663096321,3.321265532899879,-1.4335765991159506,-4.018525780041985,-10.692888276781876,4.180178001751995
7.62263431842532,3.21433665013206,-1.4737618569163704,-3.9767240000244652,-10.680394046272575,2.9763851155044594
7.65477768492664,3.1075327096693344,-1.513529096916615,-3.9469601488694206,-10.645738238325679,1.936024313257896
7.685853012023333,3.0010753272860775,-1.5529986984053092,-3.927599905736842,-10.548975599645322,1.0961842021216088
7.715863765296194,2.895585571289624,-1.5922746974626776,-3.9166380637156255,-10.357993077408407,0.4858638480441189
7.74481962100909,2.7920056405155402,-1.6314410780998339,-3.9117794252351845,-10.053722630224081,0.11815030406337593
7.772739677414245,2.6914684142132996,-1.6705588723521858,-3.9105979221945506,-9.633366054058643,-0.014596575731969132
7.799654361556378,2.5951347536727134,-1.7096648515741313,-3.9107438879518703,-9.110355523843324,0.059155781055384084
7.8256057090931055,2.50403119843428,-1.74877229045365,-3.9101523301413166,-8.510909326142919,0.2948274906976427
7.8506460210774485,2.4189221051728507,-1.7878738137550632,-3.9072040552343403,-7.868286934454239,0.6396258153709146
7.874835242129177,2.3402392358283084,-1.8269458543074066,-3.900807797080631,-7.2165474276830395,1.041062792880903
7.89823763448746,2.268073761551478,-1.865953932278213,-3.890397169151822,-6.585477266553763,1.4537692774061273
7.920918372102975,2.2022189888859405,-1.9048579039697313,-3.8758594763777605,-5.997601976434599,1.8433703891601143
7.942940561991834,2.1422429691215945,-1.943616498733509,-3.8574257724861596,-5.4673268302710785,2.187410014850198
7.96436299168305,2.0875697008188836,-1.9821907564583705,-3.8355516723376577,-5.001662591445459,2.4741196319369583
7.985238688691239,2.037553074904429,-2.020546273181747,-3.810810476018288,-4.60180258867797,2.7000683785922064
8.005614219440282,1.991535049017649,-2.05865437794193,-3.7838097922323657,-4.264923077535606,2.867564614964082
8.025529569930459,1.948885818242293,-2.096492475864254,-3.755134146082725,-3.985807006065195,2.982350922640861
8.045018428112883,1.9090277481816411,-2.134043817325081,-3.7253106368563165,-3.7581108364550158,3.0518265392138693
8.064108705594698,1.871446639817091,-2.171296923693644,-3.6947923714641777,-3.575246521603049,3.08382166241794
8.08282317199287,1.8356941746010604,-2.208244847408286,-3.6639541548399985,-3.430931344036098,3.085840245301572
8.101180113738879,1.8013848611606995,-2.244884388956686,-3.633095752386983,-3.319486367487868,3.0646530005595576
8.119193962350487,1.7681899974858208,-2.281215346480556,-3.6024492223813875,-3.2359623779016413,3.026127999508333
8.136875862325345,1.7358303737068044,-2.31723983870437,-3.572187942386304,-3.176157495244014,2.975208624165339
8.154234166062412,1.7040687987543643,-2.352961718128233,-3.5424358561446505,-3.1365732264264006,2.915973888187488
8.171274854049956,1.6727030664901004,-2.3883860766896796,-3.5132761172627758,-3.114340357474446,2.851737970246454
8.188001884714858,1.641559662915356,-2.423518837862307,-3.4847587375603113,-3.107134280771297,2.785162322162029
8.204417481344011,1.610488320107643,-2.45836642523791,-3.456907114338691,-3.113091058606786,2.718365182255
8.220522364545088,1.5793574095215752,-2.492935496381297,-3.429723462516141,-3.1307300712528843,2.653020772519686
8.236315938640304,1.5480501088090464,-2.5272327310064586,-3.4031932547909443,-3.158885718463629,2.5904450103867718
8.251796439728395,1.51646125162441,-2.561264663554368,-3.3772888046870766,-3.1966486754050147,2.531667169339592
8.266961052244639,1.48449476487036,-2.5950375516012385,-3.3519721329936805,-3.2433161463368827,2.4774882842194845
8.281805999893344,1.452061603406991,-2.6285572729311752,-3.3271972501514857,-3.298350061132658,2.428527706124859
8.296326615927413,1.4190781027956645,-2.66182924543269,-3.302911973090237,-3.361341988713104,2.385259389769687
8.310517396955369,1.3854646829085335,-2.6948583651635927,-3.27905937919254,-3.431983550761351,2.3480394452722564
8.324372043784454,1.35114484740092,-2.727648958955518,-3.2555789847398175,-3.510041219655291,2.3171263290708466
8.337883492258463,1.316044435204367,-2.760204748802916,-3.232407721449109,-3.595334525058361,2.292694856350649
8.351043936610507,1.2800910899537834,-2.7925288260174073,-3.2094807728856027,-3.6877168463965715,2.274845029775617
8.363844847510045,1.2432139214898177,-2.8246236337462634,-3.1867323225878468,-3.787058120271093,2.26360651738883
8.376276986724942,1.2053433402871068,-2.856490956972142,-3.1640962574139584,-3.8932289378880904,2.258939486380548
8.388330420127813,1.166411050908226,-2.8881319195462813,-3.1415068625501528,-4.006085647628697,2.2607324130826227
8.399994530636896,1.126350194431939,-2.919546988171783,-3.1188995384193263,-4.125456213920739,2.2687974437057514
8.411258032581214,1.0850956322927316,-2.950735983555976,-3.0962115639822687,-4.251126718180915,2.282863873566453
8.422108988904142,1.0425843651109226,-2.981698099195799,-3.0733829252466043,-4.382828522777333,2.3025703417074546
8.432534832555252,0.9987560798831492,-3.012431928448265,-3.05035722182953,-4.520226255253693,2.327456397826442
