th1 (rad),w1 (rad/s),th2 (rad),w2 (rad/s)
5.694678404201632,0.2643060128919242,4.541619514827823,0.9541900630683453
5.697321464330551,0.2975644255262074,4.551161415458506,1.0379103679989279
5.700297108585813,0.32945741418393015,4.561540519138496,1.1223066379762752
5.7035916827276525,0.3598550837207675,4.572763585518258,1.207451196059634
5.7071902335648605,0.38862615755380403,4.584838097478855,1.2934152027561387
5.711076495140398,0.41563795012903754,4.597772249506416,1.3802687159911249
5.715232874641688,0.44075637178197424,4.611574936666328,1.468080806897312
5.719640438359508,0.46384596978560894,4.6262557447353005,1.5569197341196421
5.724278898057364,0.4847700100275968,4.6418249420764965,1.6468531782923996
5.72912659815764,0.5033906046627379,4.658293473859421,1.737948536874082
5.734160504204267,0.5195688923474611,4.675672959228161,1.8302732774830404
5.739356193127741,0.5331652794148174,4.693975692002992,1.923895345079214
5.74468784592189,0.5440397527735793,4.7132146454537835,2.018883614542042
5.750128243449626,0.5520522786572635,4.733403481599204,2.1153083750814377
5.755648766236199,0.5570633059332875,4.754556565350018,2.213241826062802
5.761219399295531,0.5589343989400491,4.776688983610646,2.312758554664857
5.7668087432849315,0.5575290333188904,4.7998165691572945,2.4139359535733163
5.7723840336181205,0.5527135997935827,4.823955928693028,2.5168545206560666
5.777911169616056,0.5443586762904077,4.849124473899589,2.6215979609672218
5.78335475637896,0.5323406494319559,4.875340453509261,2.728252982794422
5.788678162873279,0.5165437938531123,4.9026229833372055,2.8369086416174625
5.793843600811811,0.49686295392742996,4.93099206975338,2.9476550360408256
5.798812230351085,0.4732070196831532,4.960468620113788,3.0605810946428296
5.803544300547916,0.4455034495501067,4.991074431060217,3.1757711083502667
5.807999335043417,0.4137041697539682,5.02283214214372,3.293299555251982
5.812136376740956,0.377793275706398,5.05576513769624,3.413223630063241
5.81591430949802,0.3377970748132943,5.089897373996872,3.5355727271946726
5.819292280246153,0.29379713870935387,5.125253101268819,3.6603339381706217
5.822230251633247,0.24594716362469823,5.161856440650525,3.787432425246833
5.824689723269494,0.1944945427047769,5.199730764902993,3.9167053577285236
5.826634668696542,0.1398075798517467,5.238897818480279,4.047868014602862
5.82803274449506,0.08240912576813349,5.279376498626307,4.180470791542635
5.828856835752741,0.023016937798470423,5.321181206541734,4.313846409457931
5.8290870051307255,-0.03740997596669462,5.364319670636314,4.447047919053716
5.8287129053710585,-0.09762167507969799,5.408790149826851,4.578780548628268
5.827736688620261,-0.15603000338055592,5.454577955313134,4.707334494221534
5.826176388586456,-0.21067386044939884,5.501651300255349,4.830531636277206
5.824069649981961,-0.2592125586110015,5.549956616618122,4.94570642029507
5.821477524395851,-0.29896766471014524,5.599413680821073,5.049747843163202
5.81848784774875,-0.32703503007467,5.649911159252705,5.139231554215264
5.815217497448003,-0.3404819644680944,5.701303474794857,5.210662461062025
5.811812677803323,-0.33662568205941823,5.753410099405477,5.260823455444461
5.808446420982729,-0.31335877873045487,5.806018333959922,5.287185622132314
5.8053128331954245,-0.26945513950205363,5.858890190181245,5.288292412199528
5.802618281800404,-0.20477347167310447,5.91177311430324,5.26400916915337
5.800570547083673,-0.12029244139792823,5.964413205994774,5.215552551848931
5.799367622669694,-0.017961323643064797,6.016568731513263,5.145281545654194
5.799188009433263,0.09958945250045134,6.0680215469698044,5.056311966026651
5.800183903958268,0.22939412882030416,6.118584666630071,4.952067079114842
5.802477845246471,0.368469149420558,6.16810533742122,4.835875738988842
5.806162536740676,0.5140476458991613,6.216464094811108,4.710687576826303
5.811303013199668,0.663714923838951,6.26357097057937,4.578922389146217
5.817940162438057,0.8154581107089734,6.309360194470832,4.442432710855798
5.826094743545147,0.9676561541524342,6.35378452157939,4.302542521349878
5.835771305086671,1.1190365818814267,6.39680994679289,4.1601260660914
5.846961670905485,1.268619265311359,6.438411207453804,4.015699940748862
5.859647863558599,1.4156599722450487,6.478568206861293,3.869512004300315
5.873804463281049,1.5596003463053647,6.517263326904295,3.721619005657609
5.889400466744102,1.7000268083410743,6.554479516960871,3.5719502470704065
5.906400734827513,1.836638487011285,6.590199019431576,3.4203576226199037
5.924767119697626,1.9692231243984524,6.624402595657775,3.2666537407688603
5.944459350941611,2.0976394824410396,6.657069133065463,3.1106402506195896
5.965435745766022,2.2218047497155244,6.688175535571659,2.952128418427721
5.987653793263177,2.34168559985221,6.717696819755936,2.7909537316770394
6.011070649261699,2.4572917623652057,6.745606357072707,2.6269859973521377
6.0356435668853505,2.568671173606098,6.771876217046228,2.460136122012424
6.061330278621411,2.675905953576008,6.7964775782663525,2.290360541705742
6.088089338157172,2.779108594597185,6.81938118368341,2.1176641148788042
6.1158804241031435,2.878417849493051,6.840557824832198,1.9421021966163792
6.144664602598074,2.973993872119027,6.859978846798361,1.763782569867713
6.174404541319264,3.066012194781119,6.877616672497038,1.5828679105011045
6.205064663267075,3.15465612845575,6.8934453516020495,1.3995795000433553
6.236611224551632,3.2401071467730787,6.907441146602483,1.2142029641848537
6.269012296019363,3.32253276987264,6.919583176244332,1.0270968950296846
6.3022376237180895,3.402071411211073,6.929854145194629,0.8387052921574076
6.3362583378302,3.4788136107515895,6.938241198116203,0.6495748000183762
6.371046473937716,3.552779089763106,6.944736946116387,0.46037767245358807
6.406574264835347,3.6238891893398577,6.9493407228409225,0.2719411692815428
6.442813156728746,3.6919345964033763,6.952060134533738,0.08528354516447886
6.479732502692779,3.7565389611926134,6.952912969985383,-0.0983442729571066
6.517297892304706,3.8171202530800663,6.951929527255812,-0.27741406065833807
6.555469094835506,3.8728536756244725,6.949155386649228,-0.45007832955902705
6.594197631591751,3.9226427618301636,6.944654603353638,-0.6141406355330118
6.633424059210053,3.965108699857645,6.938513196998308,-0.7670526237898557
6.673075146208629,3.9986112057745418,6.930842670760409,-0.9059567974599598
6.713061258266374,4.021315663790865,6.92178310278581,-1.0277957532179147
6.753274414904283,4.03131817655582,6.9115051452536305,-1.129503883057651
6.793587596669841,4.026829889524995,6.900210106423054,-1.2082824628510305
6.833855895565091,4.0064037280935745,6.888127281794543,-1.2619326721827149
6.873919932846027,3.96916451142939,6.875507955072716,-1.2891892616659184
6.913611577960321,3.914987148867177,6.862616062456056,-1.2899745198750272
6.952761449448992,3.844569342452555,6.849716317257306,-1.2654951712633833
6.991207142873518,3.759370550878835,6.837061365544672,-1.2181418565666984
7.028800848382306,3.6614297750925897,6.824879946979006,-1.1512101103407473
7.065415146133232,3.5531115715140293,6.813367845875598,-1.0685152489146592
7.100946261848373,3.4368447393761588,6.802682693386452,-0.973995570933297
7.1353147092421345,3.3149073788595382,6.792942737677119,-0.8713829072724427
7.16846378303073,3.18928593188877,6.784228908604395,-0.7639818048439713
7.200356642349618,3.0616094456003924,6.776589090555955,-0.6545601880762485
7.230972736805622,2.9331434123488935,6.770043488675193,-0.5453294357554632
7.260304170929111,2.8048218224222103,6.7645901943176385,-0.437983041450889
7.288352389153333,2.6772981075874243,6.76021036390313,-0.33376559927363936
7.315125370229207,2.5510010357813706,6.756872707910393,-0.2335514330206421
7.340635380587021,2.4261872081376152,6.754537193580187,-0.13792021660900722
7.364897252668397,2.3029861598505836,6.7531579914140965,-0.04722326902773834
7.387927114266903,2.1814368936131006,6.752685758723819,0.038361612602422976
7.409741483203034,2.0615162426249607,6.753069374849844,0.11878654787436428
7.430356645629284,1.9431601705866728,6.754257240328587,0.1940998417939751
7.44978824733515,1.8262793180428045,6.756198238746527,0.2644204064512973
7.468051040515578,1.7107700435655064,6.75884244281104,0.3299186468297316
7.485158740951234,1.5965220356510212,6.762141629279337,0.39080233182031154
7.501123961307744,1.4834233699684647,6.76604965259754,0.4473062354337819
7.515958195007429,1.3713636971285261,6.770522714951878,0.4996845892795116
7.529671831978715,1.2602360844428666,6.775519560844673,0.5482056095745191
7.542274192823143,1.1499379046070832,6.781001616940419,0.5931475431915917
7.553773571869214,1.0403710624535294,6.786933092372334,0.6347958194917709
7.564177282493749,0.9314417733669419,6.793281050567252,0.6734410034058068
7.573491700227419,0.8230600488247595,6.80001546060131,0.7093773267193223
7.581722300715667,0.7151390015017559,6.807109233868504,0.7429016346079722
7.588873690730685,0.6075940509108887,6.814538250214583,0.7743126280717917
7.5949496312397935,0.5003420878567132,6.822281376495301,0.8039103139408915
7.5999530521183605,0.39330063995542647,6.83032047963471,0.8319955955589297
7.603886058517915,0.2863870695953329,6.8386404355903,0.858869951307539
7.606749929213868,0.17951782890003015,6.847229135103375,0.8848351563839131
7.608545107502868,0.07260779280829578,6.856077486667214,0.9101930067315946
7.609271185430951,-0.034430309106458806,6.86517941673453,0.9352450033654487
7.608926882339887,-0.14168633914136355,6.8745318667681845,0.9602919507719091
7.6075100189484735,-0.24925304817025573,6.8841347862759035,0.9856334145232362
7.605017488466771,-0.35722618608433154,6.893991120421136,1.0115669703326176
7.601445226605928,-0.465704377519298,6.904106790124462,1.0383871588135942
7.596788182830735,-0.5747886981179633,6.914490661712598,1.0663840362252615
7.591040295849555,-0.6845818650837027,6.925154502074851,1.0958411802555583
7.584194477198718,-0.7951869280831734,6.936112913877406,1.1270329699948256
7.576242607917886,-0.906705311598909,6.947383243577354,1.1602209092126574
7.5671755548018975,-1.019234016722546,6.958985452669481,1.1956487006705965
7.5569832146346725,-1.132861738791025,6.9709419396761865,1.233535706128247
7.545654597246762,-1.2476635981521447,6.9832772967374686,1.2740683434600324
7.533177961265241,-1.363694118133387,6.996017980172069,1.3173888840417127
7.519541020083907,-1.4809780248174036,7.009191869012486,1.3635810318281518
7.504731239835733,-1.5994984026570496,7.022827679330768,1.4126516124330524
7.488736255809163,-1.7191817448473672,7.036954195455099,1.464507714546613
7.471544438360689,-1.8398795307390825,7.051599272600565,1.5189287693469036
7.453145643053298,-1.9613462089400138,7.066788560294034,1.5755334191164665
7.433532180963898,-2.083213952128569,7.082543894485199,1.633741740629793
7.412700041442612,-2.204965382403845,7.098881311891497,1.6927346019603393
7.390650387618574,-2.325906738083695,7.1158086579111,1.7514137779184442
7.367391320237736,-2.445145686352162,7.133322795690285,1.8083689614541243
7.342939863374215,-2.561580024221966,7.151406485304826,1.8618607622550711
7.317324063131996,-2.673905373186636,7.170025092927377,1.9098314938735816
7.29058500940013,-2.780650739672063,7.189123407866113,1.9499566994988986
7.2627785020034095,-2.880249174870414,7.208622974861102,1.9797480776772403
7.233976010254706,-2.9711454578645515,7.228420455637875,1.9967109187707353
7.20426455567606,-3.051933440592961,7.248387564825582,1.9985458847474815
7.1737452212701305,-3.12150420220435,7.268373023673057,1.9833684419985325
7.142530179248087,-3.1791767225576417,7.288206708093042,1.9499055303308812
7.110738412022511,-3.22478078049886,7.307705763396351,1.8976258049442742
7.078490604217522,-3.2586705136177927,7.3266820214457935,1.826771816138974
7.045903899081344,-3.281664693635355,7.344949739607183,1.7382873100052996
7.01308725214499,-3.2949292559871957,7.362332612707236,1.6336605832152145
6.980137959585118,-3.2998306880770363,7.378669218539389,1.5147237435367202
6.947139652704347,-3.297791002171219,7.393816455974756,1.383451268057531
6.914161742682635,-3.2901675500351,7.407650968655331,1.2417911541185183
6.881260067182285,-3.2781691094588643,7.420068880196516,1.091545504379963
6.848478376087696,-3.2628088335417527,7.430984335240316,0.9343021130772942
6.815850287752278,-3.2448877475933227,7.440327356371089,0.7714087436579861
6.783401410276345,-3.224999807387825,7.448041443807669,0.6039778178190874
6.751151412202467,-3.2035498766733594,7.454081221985859,0.4329095197430819
6.719115913435734,-3.18077781695838,7.45841031718329,0.2589237446576317
6.68730813526615,-3.156784058390158,7.460999554629867,0.08259427681034945
6.655740294682248,-3.1315539133219152,7.46182549739797,-0.09561881533357225
6.624424755549029,-3.104979287446238,7.460869309244634,-0.27534064518756474
6.593374962674567,-3.07687734981775,7.458115902792758,-0.4562576422083666
6.562606189176389,-3.047006247144704,7.453553326370675,-0.6380984122593201
6.532136126704942,-3.015078207554485,7.4471723422480816,-0.8206189958047793
6.501985344629397,-2.9807704731690854,7.438966152290034,-1.0035920356329688
6.472177639897707,-2.9437345001276305,7.428930231933704,-1.1867993343188317
6.4427402948964305,-2.903603815430231,7.417062238590515,-1.3700273143189228
6.413704256742128,-2.860000850147566,7.403361965447326,-1.5530649515929864
6.385104248240652,-2.8125429939418445,7.387831315931396,-1.7357038153700182
6.356978818301234,-2.760848044756866,7.370474277777696,-1.9177399013868417
6.329370337853665,-2.704539163939546,7.3512968787638275,-2.098976989334251
6.302324946214269,-2.6432493926918212,7.330307108870485,-2.2792312866368194
6.275892452287351,-2.576625741355337,7.307514796004117,-2.458337141152709
6.250126194873798,-2.5043328290434856,7.28293142459259,-2.636153616701413
6.225082866583363,-2.4260560281022747,7.256569888425576,-2.8125717293155588
6.20082230630234,-2.341504056688388,7.22844417113242,-2.9875221400870196
6.177407265735456,-2.2504109648046366,7.198568949731549,-3.160983092826626
6.15490315608741,-2.1525374765670953,7.166959118803283,-3.332988370442812
6.133377781321739,-2.0476716874902356,7.133629235098855,-3.5036350198577457
6.112901064446837,-1.9356291749498253,7.0985928849002775,-3.6730905553360165
6.093544772697339,-1.8162526699338624,7.061861979346918,-3.8415992839439035
6.075382245998,-1.6894115696679481,7.023445986507479,-4.009487287970104
6.0584881303013205,-1.555001760315234,6.983351113627778,-4.1771654221218455
6.0429381126981685,-1.4129464917202297,6.94157945940656,-4.345129400031415
6.028808647780966,-1.2631994391733727,6.898128165406246,-4.513955599003342
6.016176653389232,-1.105751653932153,6.8529886094162125,-4.684290523608275
6.005119136849911,-0.9406449186297161,6.80614570418013,-4.856830826692569
5.995712687663613,-0.7679951800908664,6.757577395913205,-5.032289247260837
5.988032735862705,-0.5880313328591567,6.707254503440597,-5.2113396270258034
5.982152422534113,-0.4011567374696224,6.655141107170339,-5.394531188880252
5.978140855159417,-0.20804338760354404,6.601195795281536,-5.5821585758377905
5.976060421283381,-0.009771069901411661,6.545374209523159,-5.774070398941669
5.9759627105843665,0.1919753135657865,6.487633505533742,-5.969397193864825
5.977882463720024,0.3946413195059485,6.427939533595094,-6.166184374229523
5.981828876915084,0.5944784564896125,6.366277689852798,-6.3609361119230945
5.98777366147998,0.7862047371673765,6.302668328733567,-6.5481265135385325
5.995635708851654,0.962766091706983,6.237187063598181,-6.719829798327401
6.005263369768723,1.115412807914145,6.1699887656149075,-6.865755918261005
6.016417497847865,1.2343793371206344,6.101331206432297,-6.974082630299886
6.028761291219071,1.3103796049771308,6.031590380129298,-7.033377704187575
6.041865087268842,1.3367614212712722,5.961256603087422,-7.035410992097641
6.055232701481555,1.3115697954535777,5.890902493166446,-6.9778554241386415
6.068348399436091,1.2384296797380707,5.8211239389250595,-6.865421229235011
6.080732696233471,1.1256276663521643,5.752469726632709,-6.708607887768056
6.091988972896993,0.9838557305391993,5.685383647755029,-6.5207183557994295
6.101827530202385,0.823798548577686,5.620176464197034,-6.314725556917134
6.110065515688162,0.6545140118118622,5.557029208627863,-6.10123841139185
6.116610655806281,0.4828265601515168,5.496016824513945,-5.887821553429517
6.121438921407796,0.3134366387579005,5.43713860897965,-5.679242538672594
6.124573287795375,0.14934983238584776,5.380346183592924,-5.478107751201923
6.1260667861192335,-0.007645666294317233,5.325565106080905,-5.2855302500025125
6.1259903294562905,-0.1565767964601782,5.27270980358088,-5.101675333725137
6.124424561491689,-0.29698864554098214,5.221693050243629,-4.926153424519971
6.121454675036279,-0.4287413865369788,5.172431515998429,-4.758282177117536
6.117167261170909,-0.5518782805256751,5.1248486942272535,-4.597252257996894
6.111648478365653,-0.6665431129719809,5.078876171647285,-4.442227627869524
6.104983047235933,-0.7729303590293466,5.03445389536859,-4.292403393269606
6.0972537436456395,-0.8712563237325279,4.991529861435894,-4.147037045515006
6.088541180408314,-0.9617433898939489,4.950059490980744,-4.005463415172455
6.078923746509375,-1.0446122587796576,4.910004856829019,-3.8670998832308072
6.068477623921578,-1.1200789176071497,4.871333857996711,-3.7314459069178207
6.057276834745506,-1.1883542750236147,4.834019398927532,-3.598079338141355
6.04539329199527,-1.249645181709303,4.798038605546119,-3.4666510270133433
6.032896840178178,-1.3041560482572239,4.763372095275986,-3.336878597181604
6.019855279695605,-1.3520905872917244,4.73000330930417,-3.2085399122122733
6.006334373822688,-1.3936534069070365,4.697917910182047,-3.0814665323437733
5.992397839753618,-1.4290513097456075,4.66710324485861,-2.9555373314079176
5.978107326656162,-1.4584942328288022,4.63754787154453,-2.830672368907843
5.963522384327874,-1.4821958142396714,4.609241147855452,-2.7068270700430648
5.948700426185477,-1.5003736044142892,4.582172877155021,-2.5839867432647865
5.933696690141334,-1.5132489587470275,4.5563330097223735,-2.462161452423925
5.918564200553863,-1.521046658681378,4.531711395198134,-2.3413812537469174
5.90335373396705,-1.5239943131794549,4.508297582660665,-2.221691803811998
5.888113790835256,-1.5223215932549088,4.486080664622545,-2.1031503417563737
5.872890574902707,-1.5162593503551547,4.465049161204981,-1.9858220462683238
5.857727981399155,-1.5060386656660887,4.4451909407422985,-1.8697767651320412
5.842667594742495,-1.4918898725279772,4.426493173090978,-1.7550861121008772
5.827748696017215,-1.4740415885796534,4.408942311969969,-1.6418209227330485
5.8130082801314185,-1.4527197883626715,4.392524102742638,-1.5300490576611503
5.7984810822477915,-1.4281469412065892,4.377223612166027,-1.4198335387330274
5.784199612835725,-1.4005412335027152,4.363025276778697,-1.3112310006980945
5.770194200500698,-1.3701158891219234,4.349912966771717,-1.2042904387362219
5.756493041609478,-1.3370785968598693,4.337870062384354,-1.0990522302189862
5.74312225564088,-1.301631049476206,4.326879540082165,-0.9955474077038509
5.730105945146118,-1.2639685951740078,4.316924066005126,-0.8937971593064449
5.717466259194378,-1.224279999252973,4.307986094412062,-0.7938125322619463
5.705223459201848,-1.18274731115267,4.300047969089443,-0.6955943156381058
5.693395986090321,-1.1395458301491566,4.293092025933062,-0.5991330787471091
5.68200052778883,-1.0948441615351907,4.287100695145591,-0.5044093427572871
5.671052086173478,-1.048804354147291,4.2820566017180175,-0.4113938642584868
5.6605640426320045,-1.0015821095430861,4.277942663075432,-0.3200480110147287
5.650548221536574,-0.9533270529188005,4.2747421829652845,-0.23032421177449752
5.641014951007386,-0.9041830559289905,4.27243894084754,-0.14216646373711603
5.631973120448096,-0.8542886018711796,4.271017276210168,-0.05551088303420211
5.623430234429384,-0.8037771841733372,4.270462167379826,0.029713714672900626
5.615392462587651,-0.7527777297239021,4.270759304526555,0.11358521469826931
5.607864685290412,-0.7014150392696059,4.271895156673538,0.19618759457253748
