th1 (rad),w1 (rad/s),th2 (rad),w2 (rad/s),a1 (rad/s^2),a2 (rad/s^2)
2.478347677064045,-1.4134328894795005,0.6126401915680784,2.9262773587874986,-11.142150283319705,-6.962265187769809
2.4642133481692503,-1.5248543923126976,0.6419029651559534,2.8566547069098007,-10.880891892362861,-6.323374711942248
2.448964804246123,-1.6336633112363261,0.6704695122250514,2.793420959790378,-10.660887118530686,-5.676141228313324
2.43262817113376,-1.740272182421633,0.6984037218229552,2.736659547507245,-10.483313040841267,-5.0188194226427
2.4152254493095433,-1.8451053128300456,0.7257703172980277,2.686471353280818,-10.349362246268491,-4.349064309926154
2.3967743961812427,-1.9485989352927306,0.7526350308308358,2.6429807101815563,-10.260340452690427,-3.66395144897326
2.3772884068283155,-2.051202339819635,0.7790648379326514,2.6063411956918237,-10.217759032624226,-2.959981271230685
2.356776383430119,-2.1533799301458774,0.8051282498895695,2.5767413829795167,-10.223424152644435,-2.233068184895747
2.3352425841286606,-2.2556141716723217,0.8308956637193647,2.5544107011305592,-10.279523915445703,-1.478515787414789
2.3126864424119375,-2.358409410826779,0.8564397707306703,2.5396255432564114,-10.388714178213554,-0.6909805890441546
2.2891023483036697,-2.4622965526089144,0.8818360261632344,2.5327157373659697,-10.554202425092306,0.13557152410550236
2.2644793827775804,-2.5678385768598373,0.9071631835368941,2.5340714526070247,-10.779826838555046,1.0079087130819993
2.238800997008982,-2.675636845245388,0.9325038980629643,2.5441505397378448,-11.070123937255694,1.9335637455568488
2.2120446285565283,-2.786338084617945,0.9579454034603427,2.5634861771934134,-11.430371809465582,2.9208298583455234
2.184181247710349,-2.9006418027126006,0.9835802652322769,2.592694475776869,-11.866585389236027,3.9786848837581132
2.1551748296832227,-3.019307656604961,1.0095072099900455,2.63248132461445,-12.385422645621924,5.116581355160862
2.124981753117173,-3.1431618830611803,1.03583202323619,2.6836471381660583,-12.99393155222493,6.34399874282291
2.0935501342865614,-3.2731011985834297,1.0626684946178506,2.7470871255942875,-13.69902031611461,7.669586264776662
2.0608191223007273,-3.410091401744576,1.0901393658737935,2.823782988242054,-14.506457127961617,9.099616182979206
2.0267182082832815,-3.555155973024192,1.118377195756214,2.914779150071846,-15.419086300611315,10.635298059615229
1.9911666485530397,-3.709346836030305,1.1475249872569326,3.0211321306679984,-16.43376908860951,12.268251962903365
1.9540731801927367,-3.8736845269164,1.1777363085636126,3.143814650297032,-17.536312894547585,13.973094385534274
1.9153363349235726,-4.049047655861876,1.2091744550665828,3.283545594152375,-18.693378191122434,15.69570771926446
1.8748458583649539,-4.2359814377731,1.2420099110081066,3.4405026713450195,-19.840215307942685,17.335581852415697
1.8324860439872228,-4.434383590852527,1.2764149377215568,3.6138584898691763,-20.863572776014394,18.721332163723172
1.7881422080786975,-4.643019318612671,1.3125535226202485,3.801071811506408,-21.581370167687105,19.58172384400118
1.7417120148925709,-4.858833020289542,1.3505642407353127,3.99688904994642,-21.726755020149522,19.52312262628033
1.6931236846896756,-5.076100570491038,1.3905331312347768,4.192120276209224,-20.95587716488881,18.040950394023845
1.6423626789847652,-5.285659342139926,1.4324543339968692,4.372529780149462,-18.912890894524214,14.61287129610289
1.5895060855633658,-5.474788251085168,1.4761796317983638,4.5186584931104905,-15.383008116985803,8.917668806182997
1.5347582030525142,-5.628618332255026,1.5213662167294686,4.60783518117232,-10.50679454575756,1.142085743653068
1.478472019729964,-5.733686277712601,1.5674445685411917,4.619256038608851,-4.911045519607722,-7.829453880416033
1.4211351569528379,-5.782796732908678,1.6136371289272802,4.540961499804691,0.4377601754627337,-16.618405494461765
1.3633071896237512,-5.778419131154051,1.6590467439253271,4.374777444860073,4.650365191428389,-23.941806289170863
1.3055229983122107,-5.731915479239767,1.702794518373928,4.135359381968365,7.290595928859823,-29.14922181535965
1.248203843519813,-5.6590095199511685,1.7441481121936115,3.8438671638147683,8.42706888086252,-32.30409426143163
1.1916137483203013,-5.574738831142543,1.7825867838317593,3.520826221200452,8.42002465962991,-33.88855674396303
1.1358663600088759,-5.490538584546244,1.8177950460437637,3.181940653760822,7.682947536873999,-34.46807536019285
1.0809609741634134,-5.413709109177504,1.849614452581372,2.8372599001588936,6.552764719352594,-34.50612811421984
1.0268238830716383,-5.3481814619839785,1.8779870515829609,2.4921986190166954,5.260020953142065,-34.319007363298056
0.9733420684517985,-5.295581252452558,1.902909037773128,2.149008545383715,3.9464418311450515,-34.09788283404434
0.9203862559272729,-5.256116834141108,1.924399123226965,1.8080297170432715,2.6930012678180733,-33.94644805548864
0.8678250875858617,-5.229186821462927,1.9424794203973978,1.4685652364883852,1.543565027128741,-33.912985632859346
0.8155332193712325,-5.21375117119164,1.9571650727622818,1.1294353801597916,0.5211686096916889,-34.01250097309804
0.7633957076593161,-5.208539485094723,1.9684594265638797,0.7893103704288111,-0.36182938815689025,-34.240522717574834
0.7113103128083689,-5.212157778976292,1.976352530268168,0.4469051432530628,-1.0977858410705985,-34.581215747585716
0.659188735018606,-5.2231356373869975,1.9808215817006987,0.1010929857772056,-1.680450010276007,-35.01197553354152
0.606957378644736,-5.239940137489757,1.9818325115584707,-0.24902676955820963,-2.1032433562578823,-35.505979360264185
0.5545579772698384,-5.260972571052336,1.9793422438628887,-0.6040865631608514,-2.3585091504644264,-36.033623421695424
0.501948251559315,-5.28455766255698,1.9733013782312803,-0.9644227973778057,-2.437362375819838,-36.56341088414637
0.44910267493374517,-5.308931286315179,1.9636571502575022,-1.3300569062192693,-2.3299289940730192,-37.06262918379374
0.3960133620705934,-5.332230576255909,1.9503565811953094,-1.7006831980572068,-2.025853084683531,-37.498015531835385
0.3426910563080343,-5.352489107102744,1.9333497492147373,-2.075663353375561,-1.5149967513647733,-37.836521865101766
0.2891661652370069,-5.367639074616392,1.9125931156809817,-2.4540285720265786,-0.7882780712188857,-38.04623171084454
0.23548977449084296,-5.37552185532858,1.8880528299607158,-2.834490889135024,0.16140246985268822,-38.09743877737416
0.18173455593755716,-5.373907830630054,1.8597079210693654,-3.2154652769087657,1.3381996576852278,-37.963864037845546
0.12799547763125663,-5.360525834053202,1.8275532683002778,-3.5951039172872212,2.742384503875446,-37.62396199332182
0.07439021929072462,-5.333101989014447,1.7916022291274056,-3.9713435372204393,4.369494467436567,-37.06224709336401
0.021059199400580146,-5.289407044340082,1.7518887937552012,-4.341966008154079,6.209643894878015,-36.270558169198765
-0.03183487104282067,-5.227310605391302,1.7084691336736604,-4.704671589846067,8.247067338696004,-35.24917242387635
-0.08410797709673369,-5.144839932004341,1.6614224177751997,-5.057163314084831,10.459965995305481,-34.00768096940796
-0.1355563764167771,-5.040240272051286,1.6108507846343514,-5.397240123778911,12.820720189785098,-32.565544910483204
-0.18595877913728995,-4.912033070153435,1.5568783833965623,-5.7228955728837425,15.296517655723376,-30.95226464045559
-0.2350791098388243,-4.759067893596201,1.4996494276677248,-6.0324182192882985,17.850427098691373,-29.207116075827283
-0.2826697887747863,-4.580563622609287,1.4393252454748418,-6.324489380046571,20.442918171810007,-27.37843731319469
-0.32847542500087923,-4.376134440891187,1.376080351674376,-6.598273753178518,23.033792644235543,-25.522488756163614
-0.3722367694097911,-4.145796514448832,1.3100976141425908,-6.8534986407401535,25.58444959074076,-23.701958711869416
-0.4136947345542794,-3.889952018541424,1.2415626277351892,-7.090518227858848,28.060365269679213,-21.984241459294275
-0.45259425473969367,-3.6093483658446317,1.1706574454566008,-7.310360642451791,30.433634059951462,-20.439668870201867
-0.48868773839814,-3.305012025245117,1.097553839032083,-7.51475733115381,32.68539927404588,-19.13991974751794
-0.5217378586505912,-2.978158032504658,1.0224062657205448,-7.7061565286289895,34.8080082194843,-18.1568516846314
-0.5515194389756378,-2.6300779503098153,0.9453447004342549,-7.887725045475303,36.806754223077604,-17.56198741711462
-0.577820218478736,-2.262010408079039,0.8664674499795019,-8.063344919646449,38.70110802596975,-17.426830433614093
-0.6004403225595264,-1.8749993278193415,0.7858340007830373,-8.23761322398259,40.52536434381374,-17.824066491485468
-0.6191903158377198,-1.4697456843812042,0.7034578685432115,-8.415853888897445,42.328583763732745,-18.82949003942419
-0.6338877726815318,-1.0464598467438768,0.6192993296542371,-8.604148789291687,44.173497328630475,-20.524080021331145
-0.6443523711489706,-0.6047248734575721,0.5332578417613202,-8.809389589504997,46.1334686263827,-22.994804630200566
-0.6503996198835463,-0.14339018719374508,0.4451639458662702,-9.039337635807003,48.28527929380903,-26.33092845568065
-0.6518335217554838,0.3394626057443453,0.3547705695082002,-9.30264692036381,50.69259143609352,-30.608675543209387
-0.6484388956980404,0.8463885201052805,0.2617441003045621,-9.608733675795904,53.36879203163726,-35.84872151508023
-0.6399750104969876,1.3800764404216532,0.16565676354660303,-9.967220890946706,56.19569446872436,-41.914024845320526
-0.6261742460927711,1.942033385108897,0.06598455463713597,-10.386361139399911,58.75359815056219,-48.28578550350764
-0.6067539122416821,2.5295693666145187,-0.03787905675686315,-10.869218994434988,59.997390006717524,-53.62402302101155
-0.5814582185755369,3.129543266681694,-0.14657124670121302,-11.405459224645103,57.76217155780127,-55.080580068060705
-0.55016278590872,3.7071649822597066,-0.26062583894766406,-11.95626502532571,48.452134220116655,-47.833819104161286
-0.513091136086123,4.191686324460873,-0.3801884892009212,-12.434603216367323,28.31584279849832,-26.757664164083266
-0.47117427284151425,4.474844752445856,-0.5045345213645944,-12.702179858008156,-1.8845439412845533,7.288705080262611
-0.4264258253170557,4.4559993130330104,-0.631556319944676,-12.62929280720553,-32.65181350949105,41.797736701599106
-0.3818658321867256,4.1294811779381,-0.7578492480167313,-12.211315440189539,-52.46557542082921,61.79833889405074
-0.3405710204073446,3.6048254237298076,-0.8799624024186267,-11.593332051249032,-59.10185821402991,64.93795978697587
-0.30452276617004653,3.0138068415895085,-0.995895722931117,-10.943952453379273,-57.791601966429354,58.53690855446179
-0.2743846977541514,2.435890821925215,-1.1053352474649096,-10.358583367834655,-53.57319943640982,49.25745063979644
-0.2500257895348993,1.9001588275611168,-1.2089210811432562,-9.86600886143669,-48.97481752943086,40.25312563251318
-0.23102420125928813,1.4104106522668083,-1.3075811697576232,-9.463477605111558,-44.88584157222126,32.50582121180245
-0.21692009473662005,0.9615522365445957,-1.4022159458087389,-9.138419392993534,-41.49261452627752,26.119977082075476
-0.20730457237117408,0.5466260912818204,-1.4936001397386742,-8.87721962217278,-38.73895206345642,20.93078681504533
-0.20183831145835587,0.15923657064725616,-1.582372335960402,-8.667911754022326,-36.50561254976446,16.72805470713757
-0.20024594575188331,-0.20581955485038844,-1.6690514535006253,-8.500631206950949,-34.671623405047896,13.324934468065932
-0.2023041413003872,-0.5525357889008674,-1.7540577655701348,-8.367381862270289,-33.13176174942567,10.572015357819947
-0.2078294991893959,-0.8838534063951241,-1.8377315841928377,-8.26166170869209,-31.799082675039006,8.354339502059235
-0.21666803325334713,-1.2018442331455141,-1.9203482012797586,-8.178118313671497,-30.603029383955608,6.584362469024267
-0.22868647558480226,-1.5078745269850702,-2.0021293844164734,-8.112274688981255,-29.4867644379667,5.194991701436677
-0.24376522085465296,-1.8027421713647371,-2.0832521313062857,-8.060324771966888,-28.40484877450359,4.133779625535391
-0.2617926425683003,-2.086790659109773,-2.1638553790259545,-8.018986975711535,-27.321504682194526,3.3583680725426754
-0.28266054915939803,-2.3600057059317185,-2.24404524878307,-7.985403294986108,-26.20940118028862,2.83301971019165
-0.3062606062187152,-2.6220997177346046,-2.323899281732931,-7.957073097884192,-25.048816243989467,2.526044742952694
-0.33248160339606125,-2.8725878801744993,-2.403470012711773,-7.931812650454665,-23.827022089978723,2.4079659361113688
-0.36120748219780624,-3.1108581010742866,-2.4827881392163196,-7.907732991093551,-22.53775837915362,2.4503039546344385
-0.3923160632085491,-3.336235684865823,-2.561865469127255,-7.883229951547207,-21.18068718287284,2.6248908807641125
-0.42567842005720735,-3.5480425566945515,-2.640697768642727,-7.856981042739566,-19.760757289722502,2.903630398400772
-0.4611588456241529,-3.7456501295917763,-2.719267579070123,-7.8279447387555585,-18.287441086571476,3.25862202841552
-0.49861534692007065,-3.928524540457491,-2.7975470264576785,-7.795358518471403,-16.773841989161376,3.6625596056544887
-0.5379005923246456,-4.0962629603491045,-2.8755006116423925,-7.7587329224148585,-15.235700840555277,4.0893068780615405
-0.5788632219281367,-4.2486199687546575,-2.953087940866541,-7.717839853634243,-13.69035243674756,4.514550735111266
-0.6213494216156832,-4.385523493122133,-3.0302663394028837,-7.67269434628313,-12.155695827294247,4.91643831771499
-0.6652046565469045,-4.507080451395076,-3.106993282865715,-7.62352996310598,-10.649243331782207,5.276118906228445
-0.7102754610608553,-4.613572884712898,-3.183228582496775,-7.570768774043696,-9.187304294580851,5.578133458820245
-0.7564111899079843,-4.705445927658706,-3.258936270237212,-7.514987439455494,-7.784343153941022,5.810620683438064
-0.8034656491845713,-4.7832893591981165,-3.334086144631767,-7.456881232621114,-6.45253112743366,5.965334546521405
-0.8512985427765525,-4.847814670472453,-3.408654956957978,-7.3972278871559,-5.201490542448529,6.037490448990443
-0.899776689481277,-4.899829575896939,-3.482627235829537,-7.336852982665995,-4.0382137175297945,6.0254733660034026
-0.9487749852402464,-4.9402117130722365,-3.555995765656197,-7.2765982490059615,-2.967126290086694,5.930449990756782
-0.9981771023709688,-4.969882975973103,-3.6287617481462564,-7.217293749098394,-1.9902586359252032,5.75592871946259
-1.0478759321306998,-4.989785562332355,-3.7009346856372405,-7.159734461903768,-1.1074880681627572,5.507307580040188
-1.0977737877540235,-5.000860443013983,-3.7725320302562784,-7.104661386103366,-0.3168176450171993,5.191442864922654
-1.1477823921841632,-5.0040286194641554,-3.843578644117312,-7.05274695745414,0.38533682821899007,4.816262216500317
-1.1978226783788049,-5.0001752511819655,-3.914106113691853,-7.004584335289136,1.0038730713606898,4.390436835157261
-1.2478244308906246,-4.990136520468359,-3.9841519570447446,-6.960679966937564,1.544756342948544,3.923119433460197
-1.2977257960953081,-4.9746889570388735,-4.05375875671412,-6.921448772602962,2.0148093640007314,3.4237481255631987
-1.347472685665697,-4.954540863398866,-4.12297324444015,-6.88721129134733,2.4215411150720803,2.90191176493725
-1.3970180942996855,-4.9303254522481454,-4.191845357353623,-6.858192173697957,2.773013453896701,2.3672691703794237
-1.446321348822167,-4.902595317709179,-4.260427279090602,-6.834519481994163,3.0777415719616443,1.8295128838850214
-1.4953473019992587,-4.871817901989562,-4.3287724739105435,-6.816224353155313,3.3446222550912843,1.2983671965778831
-1.5440654810191543,-4.83837167943865,-4.396934717442097,-6.803240681189534,3.582882488375217,0.7836097870834315
-1.5924491978135409,-4.802542854554898,-4.464967124253992,-6.7954045833187,3.8020399183018605,0.29510612763361466
-1.64047462635909,-4.764522455371879,-4.532921170087179,-6.792453522042363,4.011865872940691,-0.15715440147594062
-1.6881198509128088,-4.724403796642473,-4.600845705307602,-6.794025066057123,4.222340932895382,-0.5630321212323184
-1.7353638888792335,-4.682180387313519,-4.668785955968174,-6.799655387269446,4.443592414056441,-0.9122323804750508
-1.7821856927523687,-4.637744463172955,-4.736782509840868,-6.808777711074197,4.6858026352821955,-1.1943352640748077
-1.8285631373840983,-4.590886436820133,-4.80487028695161,-6.820721063714945,4.959076671402999,-1.3988729301809402
-1.8744720017522996,-4.541295670106103,-4.87307749758876,-6.834709793016755,5.2732587153421475,-1.5154679925000463
-1.9198849584533606,-4.488563082952681,-4.941424595518927,-6.849864472941755,5.637687579514822,-1.5340456574175432
-1.9647705892828875,-4.432186207157533,-5.0099232402483445,-6.86520492951593,6.0608847257460186,-1.445130164782278
-2.009092451354463,-4.371577359900073,-5.078575289543504,-6.879656231163753,6.550173022029459,-1.2402318123252958
-2.0528082249534636,-4.306075629679778,-5.147371851855141,-6.892058549287006,7.111231606618666,-0.9123238412022938
-2.0958689812502613,-4.234963313613592,-5.216292437348011,-6.901181787699029,7.7476019866964645,-0.4563982939256438
-2.138218614386397,-4.157487293746627,-5.285304255225002,-6.905745770638285,8.460172561608552,0.12992336948287478
-2.179793487323863,-4.072885568130541,-5.354361712931385,-6.904446536943457,9.246682220951314,0.8457648725720904
-2.2205223430051686,-3.980418745921028,-5.423406178300819,-6.895988888217736,10.101296752361167,1.6864114089922673
-2.2603265304643787,-3.879405778397416,-5.492366067182997,-6.879124774127813,11.014321837224863,2.6428384963951665
-2.299120588248353,-3.7692625600251675,-5.561157314924275,-6.852696389163862,11.972120090248689,3.70143285694937
-2.336813213848605,-3.6495413591226806,-5.629684278815914,-6.815682060594368,12.957293526515281,4.843983396689971
-2.373308627439832,-3.5199684238575277,-5.697841099421857,-6.767242226627468,13.94917453609637,6.048005534623914
-2.408508311678407,-3.380476678496564,-5.765513521688131,-6.7067621712812295,14.92463748903446,7.287432397057409
-2.4423130784633726,-3.2312303036062193,-5.832581143400944,-6.633887847310655,15.859202101776795,8.533663508385203
-2.474625381499435,-3.0726382825884513,-5.8989200218740505,-6.548551212226803,16.728354656245266,9.756911217382573
-2.505351764325319,-2.905354736025999,-5.9644055339963185,-6.450982100052977,17.50897268392616,10.927736202893085
-2.534405311685579,-2.7302650091867373,-6.028915354996848,-6.341704738024046,18.180712142216073,12.018626525472666
-2.5617079617774463,-2.5484578877645765,-6.092332402377089,-6.221518472769319,18.727210838250752,13.005459037595873
-2.587192540655092,-2.361185779382069,-6.154547587104782,-6.09146388239336,19.136980907413907,13.868692513945025
-2.610804398448913,-2.16981597030793,-6.215462225928715,-5.95277695725391,19.40390378673719,14.594177508490572
-2.6325025581519923,-1.9757769324405579,-6.2749899955012545,-5.806835182169004,19.52729530617164,15.173521520094328
-2.652260327476398,-1.7805039793788415,-6.333058347322945,-5.65509996696806,19.511565147952556,15.60400833274266
-2.6700653672701864,-1.585388327899316,-6.389609346992626,-5.4990598836406335,19.3655429753254,15.888125362215105
-2.6859192505491793,-1.391732898146062,-6.444599945829032,-5.340178630018483,19.101574995311662,16.03279291208919
-2.69983657953064,-1.2007171481929453,-6.498001732129217,-5.179850700897591,18.734506285054692,16.048409432988226
-2.7118437510125695,-1.0133720853423984,-6.549800239138193,-5.019366606567709,18.280657325571752,15.947827256252072
-2.7219774718659933,-0.8305655120866808,-6.5999939052038705,-4.859888334005188,17.7568827608981,15.745357904996107
-2.73028312698686,-0.6529966844776998,-6.648592788543922,-4.702434754955227,17.179772864014552,15.455881152379144
-2.7368130938316373,-0.48119895583755423,-6.695617136093475,-4.5478759434314355,16.565029656191456,15.094103852365999
-2.7416250833900127,-0.3155486592756397,-6.741095895527789,-4.396934904907775,15.927024664774143,14.673988326631752
-2.744780569982769,-0.15627841262789827,-6.785065244576867,-4.250195021641458,15.278526480654948,14.208348965589225
-2.746343354109048,-0.0034931478213487688,-6.827567194793281,-4.108111531985566,14.630574306222881,13.708601007714819
