th1 (rad),w1 (rad/s),th2 (rad),w2 (rad/s),a1 (rad/s^2),a2 (rad/s^2)
2.6187801532225783,2.0674756704996584,0.4013408006603977,-1.3900438131388715,-7.073979522981296,-4.679056678219018
2.639454909927575,1.9967358752698454,0.387440362529009,-1.4368343799210617,-7.121327937774253,-5.090126733164686
2.6594222686802733,1.925522595892103,0.3730720187297984,-1.4877356472527086,-7.177922131112313,-5.482590278569079
2.6786774946391945,1.8537433745809797,0.3581946622572713,-1.5425615500383993,-7.24202053206703,-5.855420322041816
2.697214928385004,1.7813231692603093,0.3427690467568873,-1.6011157532588176,-7.311647350859879,-6.2071620181922285
2.7150281600776074,1.7082066957517106,0.3267578892242991,-1.6631873734407399,-7.3845435785531315,-6.535897785423916
2.7321102270351245,1.6343612599661792,0.3101260154898917,-1.728546351294979,-7.458120468154692,-6.839213395268613
2.748453839634786,1.5597800552846324,0.2928405519769419,-1.796938485247665,-7.5294178260583875,-7.114168514575202
2.7640516401876325,1.4844858770240486,0.27487116712446524,-1.8680801703934171,-7.595070302084047,-7.3572761099774135
2.778896498957873,1.4085351740032082,0.2561903654205311,-1.9416529314931912,-7.651285802195087,-7.564496143261633
2.7929818506979047,1.3320223159812572,0.23677383610559918,-2.0172978929258076,-7.693841094014974,-7.731250007256653
2.8063020738577173,1.2550839050411073,0.21660085717634112,-2.094610392998374,-7.718100520576942,-7.8524630330476395
2.8188529129081283,1.1779028998353378,0.19565475324635737,-2.1731350233288507,-7.7190643178265494,-7.922642935785716
2.8306319419064816,1.1007122566570724,0.17392340301306886,-2.2523614526867077,-7.691453125222338,-7.936001987545774
2.8416390644730525,1.023797725404849,0.15139978848620178,-2.3317214725621653,-7.6298346172482745,-7.8866296873
2.851877041727101,0.9474993792323662,0.12808257376058013,-2.4105877694351654,-7.528796476321889,-7.768720396635939
2.8613520355194244,0.8722114144691473,0.10397669606622847,-2.488274973401525,-7.383166914018606,-7.5768565270716
2.870074149664116,0.7983797453289613,0.07909394633221323,-2.564043538672241,-7.188279476225605,-7.3063422448931545
2.8780579471174055,0.7264969505667053,0.05345351094549082,-2.6371069611211726,-6.940272997902442,-6.95357541234703
2.8853229166230725,0.6570942205876809,0.027082441334279093,-2.706642715244643,-6.636410681519048,-6.51643711275092
2.8918938588289493,0.5907301137724904,1.6014181832661734e-05,-2.7718070863721525,-6.27539513492389,-5.994669598046707
2.8978011599666744,0.5279761624232515,-0.027702056681888864,-2.8317537823526195,-5.857649999926963,-5.390206318219744
2.903080921590907,0.4693996624239819,-0.05601959450541506,-2.885655845534817,-5.385535006258742,-4.707413641050236
2.9077749182151464,0.4155443123613945,-0.08487615296076323,-2.9327299819453194,-4.8634614041833775,-3.953204746106714
2.9119303613387606,0.3669096983195607,-0.11420345278021643,-2.9722620294063864,-4.297879912852726,-3.1369932932728903
2.915599458321956,0.32393089919103346,-0.1439260730742803,-3.0036319623391154,-3.6971239226010892,-2.270468122204154
2.9188387673138667,0.2869596599650226,-0.17396239269767144,-3.026336643561157,-3.0711059136893955,-1.3671893143230294
2.921708363913517,0.2562486008281286,-0.204225759133283,-3.0400085367043874,-2.430882867606476,-0.44202782521486056
2.924270849921798,0.23193977215206385,-0.23462584450032686,-3.044428814956536,-1.7881238522580578,0.4895081639524568
2.9265902476433188,0.21405853362948327,-0.2650701326498922,-3.039533733317011,-1.1545266380963894,1.4120010620661434
2.9287308329796136,0.20251326724851937,-0.29546546998306233,-3.02541372269635,-0.54123735012902,2.310839047719505
2.9307559656520987,0.19710089374722917,-0.32571960721002585,-3.0023053322191546,0.041673715101046505,3.17285402872119
2.932726974589571,0.19751763089823962,-0.3557426605322174,-2.9705767919319426,0.58563563914643,3.9868294091868224
2.9347021508985534,0.20337398728970393,-0.3854484284515369,-2.930708497840074,1.08386987949966,4.7438431913130925
2.9367358907714505,0.21421268608470054,-0.4147555134299376,-2.883270065926943,1.5315402419026691,5.437433560325992
2.9388780176322973,0.22952808850372722,-0.443588214089207,-2.828895730323683,1.9257644243276975,6.063594848761909
2.9411732985173344,0.2487857327470042,-0.47187717139244384,-2.768259781836064,2.2655056879266233,6.620628392586691
2.9436611558448047,0.27144078962627044,-0.49955976921080447,-2.702053497910197,2.5513723805778,7.1088833736931125
2.9463755637410673,0.29695451343204843,-0.5265803041899064,-2.630964664173266,2.7853569677643955,7.530426888861511
2.949345108875388,0.3248080831096924,-0.552889950831639,-2.555660395284651,2.970545498965592,7.888681032092496
2.952593189706485,0.3545135380993483,-0.5784465547844856,-2.476773584963726,3.1108242953716436,8.188059312392065
2.9561383250874784,0.38562178105306477,-0.6032142906341229,-2.3948929918398054,3.210604553967513,8.43362706577635
2.9599945428980092,0.4177278265927399,-0.6271632205525209,-2.310556721182042,3.2745788729511194,8.630802286690551
2.9641718211639367,0.45047361532225105,-0.6502687877643414,-2.2242486983151366,3.307517437886352,8.785105708099687
2.9686765573171594,0.4835487897011146,-0.6725112747474927,-2.1363976412341397,3.314106396963727,8.90196272162643
2.9735120452141706,0.5166898536707518,-0.6938752511598342,-2.0473780140178754,3.2988270669449453,8.986555134999175
2.9786789437508783,0.5496781243402012,-0.7143490313000129,-1.9575124626678837,3.2658720464401,9.043717778735333
2.98417572499428,0.5823368448046022,-0.7339241559266918,-1.8670752848805303,3.2190928982121565,9.077873368269676
2.9899990934423264,0.6145277737867239,-0.7525949087754971,-1.7762965511978335,3.1619735462059175,9.09299848700449
2.996144371180194,0.6461475092487831,-0.7703578742874754,-1.6853665663277886,3.0976236520857574,9.092613757674453
3.0026058462726817,0.6771237457696406,-0.7872115399507532,-1.594440428751044,3.0287867540777835,9.079791930238109
3.009377083730378,0.7074116133104185,-0.8031559442382636,-1.503642509448663,2.9578586785784253,9.057178509809953
3.016451199863482,0.7369902000962028,-0.8181923693327503,-1.4130707243505634,2.8869125341239155,9.027020516096364
3.0238211018644443,0.765859325437442,-0.8323230765762559,-1.3228005191895997,2.817727376122173,8.991199900348391
3.0314796951188185,0.7940365991986637,-0.845551081768152,-1.2328885201861157,2.7518183350568806,8.951268985556808
3.039420061110805,0.8215547825492324,-0.8578799669700131,-1.1433758303305477,2.6904666044148096,8.9084860117373
3.0476356089362975,0.8484594485933805,-0.8693137252733186,-1.0542909702131746,2.634748180152691,8.863849453986525
3.0561202034222315,0.8748069303949074,-0.8798566349754504,-0.9656524756733094,2.585560635772347,8.818130243368614
3.0648682727261805,0.9006625367526309,-0.8895131597321835,-0.8774711732396232,2.5436475171828765,8.771901373709955
3.073874898093707,0.9260990119244596,-0.8982878714645797,-0.7897521595025236,2.5096201634622632,8.72556463809422
3.0831358882129516,0.9511952135590823,-0.9061853930596049,-0.7024965131215815,2.483976917765996,8.679374424559107
3.0926478403485422,0.9760349827367423,-0.9132103581908207,-0.6157027688759904,2.467119800373902,8.633458627188608
3.1024081901759097,1.0007061807404813,-0.9193673858795807,-0.5293681826041043,2.459368784958938,8.587836810389412
3.1124152519833146,1.0252998685900707,-0.9246610677056217,-0.4434898145002102,2.460973859438615,8.542435812249874
3.122668250669215,1.049909607184457,-0.9290959658506238,-0.3580654563777115,2.472125072188994,8.49710299687389
3.1331673467410597,1.0746308579063468,-0.9326766204144009,-0.2730944264089726,2.492960769223882,8.451617372815736
3.143913655320123,1.0995604655985856,-0.9354075646784906,-0.1885782526808152,2.5235742229718388,8.405698790850318
3.154909259976109,1.124796207828304,-0.9372933472052988,-0.10452126477231204,2.5640188421243852,8.359015423516496
3.166157222054392,1.1504363962495479,-0.938338559853022,-0.02093111053714708,2.614312137325725,8.311189714261488
3.1776615860168875,1.176579517622805,-0.9385478709583934,0.0621807866054678,2.674438601125407,8.261802967802026
3.1894273811931155,1.2033239036340593,-0.9379260630923387,0.14479881628348806,2.744351643952844,8.21039873704428
3.201460620229456,1.2307674200735876,-0.9364780749295039,0.22690280365393084,2.8239747118065157,8.15648514660605
3.213768294430192,1.2590071671916527,-0.9342090468929646,0.30846765511999136,2.913201696486018,8.099536279332757
3.226358366102109,1.2881391841565129,-0.9311243703417647,0.38946301791331894,3.011896735919689,8.038992740596367
3.239239757943674,1.3182581515157097,-0.9272297401626315,0.4698529453192826,3.1198934906939413,7.97426150583287
3.252422339458831,1.3494570864226492,-0.9225312107094387,0.5495955603776114,3.236993973412423,7.90471514979697
3.2659169103230576,1.3818270261567733,-0.9170352551056625,0.6286427118755811,3.362967000080952,7.829690551394877
3.2797351805846255,1.415456696157583,-0.9107488279869067,0.7069396173895298,3.497546327366393,7.748487165640556
3.2938897475462015,1.4504321594312468,-0.9036794318130114,0.7844244890459354,3.6404285363315627,7.660364954172959
3.308394069140514,1.4868364447945623,-0.895835186922552,0.861028138587665,3.7912707221087216,7.564542067749603
3.3232624335884595,1.5247491520156495,-0.8872249055366754,0.936673559265161,3.949688049940154,7.460192378052461
3.338509925108616,1.5642460325150511,-0.8778581699440238,1.0112754830456856,4.115251241077093,7.346442961840987
3.3541523854337667,1.6053985449258221,-0.867745415113567,1.0847399126640955,4.287484057172383,7.222371647777499
3.3702063708830248,1.648273385497546,-0.8568980159869259,1.1569636291418706,4.465860858998322,7.087004744913067
3.386689104738,1.6929319940875291,-0.8453283796955072,1.2278336765910012,4.649804324519669,6.9393150815996645
3.4036184246788754,1.7394300373327258,-0.8330500429295972,1.2972268274069978,4.838683422475764,6.778220494175697
3.421012725052203,1.7878168715574834,-0.8200777746555272,1.3650090323487547,5.031811750558369,6.602582915778823
3.438890893767778,1.8381349890630672,-0.8064276843320397,1.431034861506543,5.228446361846874,6.411208226609309
3.4572722436584087,1.8904194526815359,-0.7921173357169743,1.495146943772636,5.427787219150442,6.202847037331278
3.4761764381852243,1.9446973248730404,-0.7771658662792479,1.5571754141459486,5.628977434000701,5.976196586363562
3.4956234114339546,2.0009870992130474,-0.7615941121377884,1.6169373800095843,5.831104464840542,5.729903938731514
3.515633282426085,2.0592981438614526,-0.7454247383376925,1.6742364193968995,6.033202466957381,5.462570677902679
3.5362262638646995,2.1196301685310264,-0.7286823741437235,1.7288621261759263,6.234256004282483,5.172759281385918
3.55742256555001,2.181972728573851,-0.7113937528819643,1.7805897189897855,6.433205349550001,4.859001364375096
3.5792422928357484,2.246304782069351,-0.6935878556920664,1.8291797326335364,6.628953613552833,4.519807961645956
3.6017053406564417,2.312594318204879,-0.675296058365731,1.874377812249996,6.820375955251301,4.1536819942688075
3.6248312838384904,2.380798077757392,-0.6565522802432311,1.9159146321926839,7.0063311310132095,3.7591330321860528
3.6486392646160644,2.450861389067524,-0.6373931339213043,1.9535059625145443,7.185675641843989,3.334694413735825
3.6731478785067395,2.522718145485964,-0.6178580742961588,1.9868529066519025,7.35728073050062,2.878942715927569
3.698375059961599,2.5962909527909703,-0.5979895452296398,2.0156423338111784,7.520052464153456,2.390519481631576
3.724337969489509,2.6714914774325047,-0.577833121891528,2.039547528627494,7.672955111005138,1.8681549986759776
3.7510528842638338,2.748221028542556,-0.5574376466052531,2.0582290786142536,7.815037979316243,1.3106937880730967
3.7785350945492593,2.8263714083357185,-0.5368553558191106,2.0713360164949846,7.945465833213504,0.7171212914827324
3.8067988086326165,2.9058260666678537,-0.5161419956541607,2.0785072294098117,8.063552930597933,0.08659104951237981
3.835857069299295,2.986461595973833,-0.49535692336006265,2.0793731399049356,8.168800644463762,-0.581548568352868
3.8657216852590333,3.0681496024184707,-0.4745631919610133,2.073557654221407,8.260938531406511,-1.2877292837181786
3.896403181283218,3.150758987732536,-0.45382761541879924,2.0606803613842253,8.339968603431759,-2.032140971428651
3.927910771160543,3.2341586737668537,-0.433220811804957,2.0403589516699387,8.406212447418067,-2.8147146694099683
3.9602523578982116,3.3182207982410343,-0.41281722228825757,2.012211804975839,8.460360730159568,-3.6351126680711916
3.993434565880622,3.40282440554263,-0.3926951042384992,1.9758606782951271,8.50352453932283,-4.492728137743692
4.027462809936049,3.4878596509358584,-0.3729364974555479,1.9309333969176903,8.537287960070296,-5.386697063283107
4.062341406445407,3.5732325305365613,-0.353627163486371,1.8770664262848593,8.563761296673658,-6.315925531156444
4.098073731750772,3.658870143503298,-0.33485649922352245,1.8139071709732948,8.585634446174867,-7.279135637131539
4.134662433185805,3.7447264879650466,-0.3167174275137895,1.7411158146019794,8.60623014923663,-8.274933435658474
4.172109698065456,3.830788789457413,-0.2993062693677697,1.6583664802453946,8.62955721673951,-9.301902425271853
4.21041758596003,3.917084361624808,-0.2827226045653158,1.565347455992676,8.660364395055831,-10.358726059223988
4.249588429576279,4.003688005575366,-0.267069130005389,1.4617601954004362,8.704196321615475,-11.444342704612255
4.289625309632032,4.090729968791521,-0.25245152805138465,1.3473167683543137,8.767454062751879,-12.558136383890215
4.330532609319947,4.17840450941904,-0.2389783603678415,1.2217354045154116,8.857464034599573,-13.700166577646925
4.372316654414138,4.266979149765036,-0.2267610063226874,1.0847337387389424,8.98256068463551,-14.871440419153128
4.414986445911788,4.356804756611391,-0.21591366893529795,0.9360193345474112,9.152190128479765,-16.074230838439092
4.4585544934779024,4.448326657896189,-0.20655347558982384,0.7752770261630202,9.377043919082594,-17.312444643994812
4.5030377600568645,4.542097097087015,-0.19880070532819363,0.602152579723072,9.669234112427633,-18.59204507388075
4.5484587310277345,4.638789438211291,-0.1927791795309629,0.41623212898426454,10.04252245631068,-19.921533654642186
4.594846625409847,4.7392146627743985,-0.18861685824112026,0.21701679243784266,10.512617200513457,-21.312495391449822
4.642238772037591,4.844340834779533,-0.18644669031674183,0.003891838523344432,11.097549359260565,-22.780207432313247
4.690682180385386,4.955316328372139,-0.18640777193150837,-0.22391023579978805,11.818133519228766,-24.344300374152894
4.740235343669108,5.073497663564427,-0.18864687428950624,-0.467353239541317,12.698500952411875,-26.029435169993857
4.790970320304752,5.200482673088546,-0.19332040668491943,-0.7276475912412557,13.766653695026655,-27.865900869903413
4.842975147035638,5.338149210038813,-0.200596882597332,-1.0063065999402898,15.054904854069873,-29.88991668026378
4.896356639136026,5.488698258579511,-0.2106599485967349,-1.3052057667429278,16.599897329399123,-32.14317123400283
4.9512436217218205,5.654697231873502,-0.22371200626416418,-1.626637479082956,18.44153958428289,-34.670623753144085
5.007790594040555,5.839112627716331,-0.23997838105499375,-1.973343716614397,20.619483948587437,-37.514573438607925
5.066181720317719,6.045307467202206,-0.2597118182211377,-2.3484894510004763,23.164358610654695,-40.70099586221771
5.126634794989741,6.276951053308753,-0.28319671273114244,-2.7554994096226535,26.078246489506704,-44.21030842063737
5.189404305522828,6.5377335182038205,-0.31075170682736897,-3.1976024938290273,29.294019167346303,-47.917870895361496
5.254781640704866,6.830673709877283,-0.34272773176565924,-3.6767812027826423,32.595667773878375,-51.47913749842843
5.323088377803639,7.156630387616067,-0.37949554379348566,-4.191572577766927,35.47543514522024,-54.125847794787916
5.3946546816798,7.511384739068269,-0.42141126957115493,-4.732831055714806,36.91893187213733,-54.36234100072045
5.469768529070483,7.880574057789643,-0.46873958012830297,-5.2764544657220105,35.21236811011438,-49.69838100260292
5.5485742696483795,8.232697738890787,-0.5215041247855231,-5.77343827574804,28.166389237323145,-36.98174735481384
5.630901247037287,8.514361631264018,-0.5792385075430035,-6.143255749296179,14.50077429431201,-14.388397471122136
5.716044863349928,8.659369374207138,-0.6406710650359654,-6.2871397240074005,-3.6902120530650993,15.046732241965799
5.802638557091999,8.622467253676486,-0.7035424622760393,-6.1366724015877425,-20.483845832190454,42.758483642049924
5.888863229628764,8.417628795354581,-0.7649091862919167,-5.709087565167243,-30.516690049807956,60.89285682014516
5.973039517582309,8.112461894856501,-0.8220000619435892,-5.100158996965791,-33.16416106354037,68.32674401176175
6.054164136530875,7.780820284221098,-0.8730016519132471,-4.4168915568481735,-31.119144141286835,68.74363182276717
6.131972339373085,7.46962884280823,-0.9171705674817288,-3.7294552386205018,-27.133794680359543,66.01477681529016
6.206668627801168,7.198290896004634,-0.9544651198679338,-3.0693074704676,-22.81577672873417,62.43831244277108
6.278651536761214,6.9701331287172925,-0.9851581945726098,-2.4449243460398895,-18.863891963886704,59.02949317662236
6.348352868048387,6.781494209078425,-1.0096074380330087,-1.854629414273666,-15.506049901193315,56.12295377787855
6.4161678101391715,6.626433710066492,-1.0281537321757452,-1.2933998764948804,-12.771990659578686,53.75563100810627
6.4824321472398365,6.4987138034707055,-1.041087730940694,-0.7558435664138177,-10.622357606969375,51.851842105140626
6.547419285274543,6.392490227401011,-1.0486461666048323,-0.23732514536241145,-9.001932715790431,50.30252627091265
6.6113441875485535,6.302470900243107,-1.0510194180584564,0.26570011734671506,-7.8588355944811745,48.99654828107487
6.674368896550985,6.223882544298295,-1.0483624168849892,0.7556656001574638,-7.149608889618346,47.83198838737774
6.736607721993968,6.1523864554021115,-1.0408057608834145,1.2339854840312412,-6.838838269295763,46.71963832080622
6.798131586547989,6.083998072709154,-1.028465906043102,1.7011818672393033,-6.8969089948857025,45.58377748163865
6.858971567275081,6.015028982760296,-1.011454087370709,2.15701964205569,-7.297367788375505,44.36221174234986
6.919121857102684,5.942055304876542,-0.9898838909501521,2.6006417594791884,-8.014483630663596,43.006247340235745
6.978542410151449,5.8619104685699055,-0.9638774733553601,3.030704232881546,-9.02124904270557,41.48073017101834
7.037161514837148,5.77169797814285,-0.9335704310265447,3.4455115345917293,-10.287920959830833,39.76407254206233
7.094878494618577,5.668818768544542,-0.8991153156806274,3.8431522600123524,-11.781137075546459,37.848130513288076
7.151566682304022,5.5510073977890775,-0.8606837930805039,4.2216335651452335,-13.463607412243714,35.73780449904405
7.2070767562819125,5.41637132366664,-0.8184674574290516,4.579011610135674,-15.29435317809539,33.45027554658714
7.261240469518579,5.263427791885686,-0.7726773413276948,4.913514365601546,-17.229440615661243,31.01383941458738
7.313874747437436,5.091133385729074,-0.7235421976716794,5.223652759747419,-19.223136082019895,28.466348979095244
7.364786081294726,4.898902024908875,-0.6713056700742052,5.508316249538372,-21.229390295918627,25.853317074591573
7.4137751015438145,4.686608121949688,-0.6162225075788215,5.766849420284288,-23.203544461059995,23.225765175378307
7.460641182763311,4.454572677339089,-0.5585540133759785,5.999107072038071,-25.10413884020406,20.63792912018962
7.505186909536702,4.203531288937048,-0.4985629426555978,6.2054863632399675,-26.894696351620286,18.144952354563745
7.547222222426073,3.9345843254208455,-0.4365080790231981,6.386935886785605,-28.545352417043627,15.80070947499763
7.586568065680281,3.649130801250409,-0.37263872015534205,6.5449429815355815,-30.034211077000748,13.655905929332295
7.623059373692786,3.3487886904804016,-0.3071892903399862,6.681502040828905,-31.348329202599523,11.756590391903513
7.6565472605975895,3.0353053984544065,-0.24037426993169717,6.79906794474794,-32.48426596508113,10.143192354986345
