th1 (rad),w1 (rad/s),th2 (rad),w2 (rad/s),a1 (rad/s^2),a2 (rad/s^2)
5.304841431038266,0.04907319871232359,0.45997227421742304,-2.86331837041974,12.590530651993134,-6.015955891954902
5.30533216302539,0.17497850523225494,0.43133909051322566,-2.9234779293392887,12.843126613167001,-6.193956858013958
5.3070819480777125,0.303409771363925,0.40210431121983276,-2.9854174979194283,13.107282502052312,-6.434379385687616
5.310116045791352,0.4344825963844481,0.37225013624063846,-3.0497612917763046,13.387240825540344,-6.7413801720172915
5.314460871755196,0.5683550046398516,0.3417525233228754,-3.1171750934964777,13.68775947122174,-7.119585035306789
5.3201444218015945,0.705232599352069,0.31058077238791065,-3.1883709438495456,14.01412512956542,-7.574161821346076
5.327196747795115,0.8453738506477231,0.2786970629494152,-3.2641125620630063,14.372150880149833,-8.110872575348889
5.335650486301593,0.9890953594492214,0.24605593732878514,-3.345221287816495,14.768141617834653,-8.73608188649681
5.345541439896086,1.136776775627568,0.2126037244506202,-3.4325821066814632,15.208799540354956,-9.456682626778312
5.356909207652361,1.2888647710311174,0.17827790338380556,-3.5271489329492463,15.701023235938324,-10.279874546400713
5.369797855362672,1.4458750033905006,0.14300641405431308,-3.629947678413253,16.251523612731617,-11.212689182574227
5.384256605396577,1.6083902395178167,0.10670693727018055,-3.7420745702389953,16.866131234290116,-12.26108673756165
5.400340507791755,1.7770515518607177,0.06928619156779059,-3.864685437614612,17.548592639882663,-13.428342920163354
5.418111023310362,1.9525374782595444,0.030639337191644474,-3.9989688668162455,18.298534780478324,-14.712277457413496
5.437636398092958,2.1355228260643275,-0.009350351476517985,-4.14609164139038,19.1081033181917,-16.10063151879965
5.458991626353601,2.3266038592462444,-0.050811267890421785,-4.307097956578376,19.956550386541213,-17.563574802361423
5.482257664946063,2.5261693631116566,-0.09388224745620555,-4.482733704601991,20.80180586541291,-19.041975812569103
5.50751935857718,2.7341874217657858,-0.13870958450222545,-4.673153462727682,21.567995293910254,-20.429952332984655
5.534861232794838,2.9498673747048882,-0.18544111912950229,-4.877452986057529,22.128476873369046,-21.55104278252595
5.5643599065418865,3.1711521434385785,-0.23421564899007757,-5.092963413882789,22.286409171403676,-22.130711003903208
5.596071427976272,3.3940162351526153,-0.28514528312890547,-5.314270523921821,21.761116712010097,-21.776608235854297
5.630011590327799,3.6116274022727164,-0.3382879883681237,-5.532036606280364,20.200353935838635,-19.99457007699094
5.666127864350526,3.8136309416311027,-0.39360835443092734,-5.731982307050274,17.252365443276993,-16.287743509737158
5.704264173766837,3.9861545960638725,-0.4509281775014301,-5.894859742147645,12.72742947104208,-10.380655722047278
5.744125719727475,4.113428890774293,-0.5098767749229065,-5.998666299368118,6.817867218288481,-2.5255929781777393
5.785260008635218,4.181607562957178,-0.5698634379165877,-6.023922229149895,0.224504404340377,6.320157814197507
5.82707608426479,4.183852607000582,-0.6301026602080866,-5.96072065100792,-6.0096211862016915,14.723660509155497
5.868914610334795,4.123756395138566,-0.6897098667181658,-5.813484045916365,-10.944122335316338,21.392406626099735
5.910152174286181,4.014315171785403,-0.7478447071773294,-5.599559979655368,-14.13356631099142,25.716512113890694
5.950295326004035,3.8729795086754883,-0.8038403069738831,-5.342394858516461,-15.671993847218385,27.828146635077346
5.98902512109079,3.7162595702033046,-0.8572642555590477,-5.064113392165687,-15.95881971209696,28.276428083733304
6.026187716792823,3.556671373082335,-0.9079053894807046,-4.781349111328354,-15.443074286549736,27.674706214629207
6.061754430523646,3.4022406302168378,-0.9557188805939882,-4.504602049182062,-14.48647289698347,26.513459242120234
6.095776836825814,3.257375901247003,-1.0007649010858088,-4.23946745676086,-13.333608407948839,25.121058966594106
6.128350595838284,3.1240398171675148,-1.0431595756534175,-3.988256867094919,-12.132038659158045,23.692654320083598
6.159590994009959,3.0027194305759344,-1.0830421443243667,-3.751330323894083,-10.962864898350386,22.3328183970414
6.189618188315719,2.8930907815924307,-1.1205554475633075,-3.528002139923669,-9.866154180346474,21.09064764312464
6.218549096131643,2.794429239788966,-1.155835468962544,-3.3170956634924225,-8.85831158172176,19.983561329658492
6.246493388529533,2.7058461239717486,-1.1890064255974684,-3.1172600501958376,-7.942868647176576,19.01196555539548
6.273551849769251,2.626417437499983,-1.2201790260994267,-2.927140394641883,-7.1168215645779735,18.167790341957467
6.299816024144251,2.5552492218542033,-1.2494504300458456,-2.745462491222308,-6.374213499884795,17.439260380574286
6.325368516362793,2.4915070868553553,-1.2769050549580687,-2.571069887416565,-5.708088906680031,16.813458767780944
6.350283587231346,2.434426197788555,-1.3026157538322343,-2.402935299738756,-5.111513300886568,16.277636453851652
6.374627849209232,2.3833110647796896,-1.326645106829622,-2.240158935200239,-4.5780678140842195,15.819826208364166
6.398460959857029,2.3375303866388473,-1.3490466961816243,-2.0819606731165976,-4.102054583775524,15.429081212723526
6.421836263723417,2.296509840801092,-1.3698663029127902,-1.9276698609893623,-3.6785471090530684,15.095518755553707
6.444801362131428,2.2597243697105616,-1.3891430015226838,-1.7767146734338253,-3.3033608654863578,14.81026935683941
6.467398605828533,2.226690761055698,-1.406910148257022,-1.6286119798654313,-2.9729858865819634,14.565386140997294
6.48966551343909,2.1969609021898786,-1.4231962680556765,-1.4829581184554583,-2.6845039969113604,14.353743634144353
6.511635122460989,2.170115862220765,-1.4380258492402311,-1.3394206821140149,-2.4355026965072906,14.1689408069995
6.533336281083197,2.1457608352556923,-1.4514200560613713,-1.1977312740440198,-2.223991763420224,14.005215219238123
6.554793889435754,2.12352091762149,-1.4633973688018114,-1.0576791218516386,-2.0483254093285077,13.857370756643371
6.5760290986119685,2.103037663528205,-1.4739741600203278,-0.9191054142852049,-1.9071311178958459,13.72071911014942
6.59705947524725,2.0839663523492464,-1.48316521416318,-0.7818982231837106,-1.7992454446425425,13.591033934072266
6.617899138770743,2.065973897902821,-1.490984196395017,-0.645987883842988,-1.7236566742135127,13.464516038156951
6.638558877749771,2.048737331160686,-1.4974440752334468,-0.5113427234614185,-1.6794540938195204,13.337767735032882
6.659046251061378,2.031942790222491,-1.502557502468061,-0.3779650461110897,-1.6657836224960791,13.207774427455226
6.6793656789636024,2.01528495399753,-1.506337152929172,-0.24588730183653745,-1.6818095618431763,13.071891595146926
6.699518528503578,1.9984668583790983,-1.5087960259475375,-0.1151683858850682,-1.7266822647784346,12.927835484846486
6.719503197087369,1.981200035731314,-1.5099477098063883,0.014109968963396669,-1.7995115339668304,12.773675995489846
6.739315197444682,1.9632049203916457,-1.5098066101167542,0.14184672891829514,-1.8993455527015406,12.607830469327933
6.7589472466485985,1.9442114648646303,-1.5083881428275712,0.2679250336115745,-2.0251551177206606,12.429057339054301
6.778389361297244,1.9239599136874237,-1.5057088924914555,0.3922156070021175,-2.1758228904579755,12.236448831217054
6.7976289604341185,1.902201684782844,-1.5017867364214343,0.514580095314288,-2.3501373183567407,12.029422177179933
6.816650977281947,1.8787003115992766,-1.4966409354682915,0.6348743170860874,-2.546790810477209,11.80770902370947
6.8354379803979395,1.8532324034945045,-1.4902921922974306,0.7529514073231821,-2.764381691274032,11.571342954665205
6.853970304432885,1.825588586581764,-1.4827626782241987,0.8686648368698342,-3.0014194117430257,11.320645222726638
6.8722261902987025,1.7955743924643337,-1.4740760298555005,0.9818712890971006,-3.2563324748939153,11.056208936879477
6.890181934223346,1.7630110677153945,-1.4642573169645294,1.0924333784658955,-3.527478536872467,10.778882051595346
6.9078120449005,1.7277362823466698,-1.4533329831798705,1.200222198981849,-3.8131561772319094,10.489749554933548
6.925089407723966,1.6896047205743507,-1.4413307611900519,1.3051196945311845,-4.111617889994592,10.190115256772406
6.94198545492971,1.6484885416744048,-1.4282795642447401,1.4070208470989085,-4.421083926606338,9.881483540539739
6.958470340346453,1.6042777024083414,-1.414209355773751,1.505835682504306,-4.739756715766915,9.565541371089001
6.974513117370537,1.5568801352506723,-1.3991509989487079,1.601491096215196,-5.065835685010494,9.244140759306426
6.990081918723044,1.5062217784005674,-1.383136087986556,1.6939325038082602,-5.397532405786266,8.91928178372796
7.00514413650705,1.4522464543427047,-1.3661967629484733,1.7831253216455398,-5.733086068944929,8.593096174321857
7.019666601050477,1.3949155936532553,-1.348365509732018,1.8690562833887583,-6.070779363474524,8.26783138619816
7.033615756987009,1.33420780001851,-1.3296749468981304,1.9517345972507398,-6.408954872524289,7.945835041883563
7.046957834987194,1.2701182512932672,-1.310157600925623,2.0311929476695756,-6.746032114239409,7.629539607577927
7.059659017500127,1.202657930150873,-1.2898456714489273,2.107488343745355,-7.080525340630005,7.321447195564677
7.071685596801635,1.1318526767445731,-1.2687707880114738,2.1807028157010016,-7.411062168525587,7.024114451908264
7.083004123569081,1.0577420550593173,-1.2469637598544638,2.2509439602200843,-7.736403058325443,6.7401375921737765
7.093581544119674,0.9803780244760628,-1.224454320252263,2.318345336141822,-8.055461586796058,6.472137781211404
7.103385324364435,0.8998234086081023,-1.201270866890845,2.383066713953936,-8.367325389312873,6.222747206510936
7.112383558450516,0.8161501547149735,-1.1774401997513055,2.445294186019045,-8.67127758525053,5.994596357113052
7.120545059997666,0.7294373788624682,-1.1529872578911151,2.5052401495901755,-8.966818458145829,5.790303180058314
7.127839433786291,0.6397691942810099,-1.1279348563952134,2.5631431813907586,-9.253687149206556,5.612464933283043
7.1342371257291015,0.5472323227889443,-1.102303424581306,2.619267830723589,-9.53188314626462,5.463653679315794
7.139709448956991,0.4519134913262981,-1.07611074627407,2.6739043675167466,-9.801687415410923,5.3464164628864665
7.1442285838702535,0.3538966171721889,-1.0493717025989024,2.7273685321456114,-10.063683131455813,5.263281286374036
7.1477675500419755,0.25325978585763076,-1.0220980172774463,2.7800013450093517,-10.318776115223264,5.216770042891461
7.150300147900552,0.15007202470539813,-0.9942980038273528,2.8321690454382664,-10.568215276931062,5.209419594812294
7.151800868147606,0.04438987193608751,-0.9659763133729701,2.8842632413863893,-10.813613589567892,5.243812206091254
7.152244766866967,-0.0637462639595914,-0.9371336809591062,2.936701363447302,-11.05697036629577,5.322616562205155
7.151607304227371,-0.1743159676225491,-0.9077666673246332,2.9899275290693534,-11.300695881681103,5.448640654224324
7.149864144551145,-0.28732292643936014,-0.8778673920339396,3.0444139356115967,-11.547639645830209,5.624897872537798
7.146990915286752,-0.40279932289766224,-0.8474232526778236,3.100662914336975,-11.801123896986867,5.85468775248948
7.142962922057776,-0.5208105618675309,-0.8164166235344539,3.1592097918618696,-12.064984097426109,6.141692925155954
7.1377548164391005,-0.6414604028417921,-0.7848245256158352,3.220626721113429,-12.343618359232758,6.490093911659903
7.131340212410683,-0.7648965864341196,-0.7526182584047009,3.285527660230028,-12.642047720318628,6.904703372277565
7.123691246546342,-0.8913170636373059,-0.7197629818024006,3.3545746939528036,-12.965988910815513,7.3911211147074845
7.114778075909968,-1.020976952745461,-0.6862172348628726,3.4284859050998784,-13.321940469480241,7.955910270016705
7.104568306382514,-1.1541963574402634,-0.6519323758118738,3.5080450078000456,-13.717281383419515,8.606793001310235
7.093026342808111,-1.2913691712744586,-0.6168519257338734,3.594112937813148,-14.160378108062146,9.352859919321238
7.080112651095367,-1.43297295235508,-0.5809107963557419,3.6876415370063604,-14.66068958794047,10.204779258388426
7.065782921571816,-1.5795798482344847,-0.5440343809856784,3.7896893295902445,-15.228848448660614,11.174976641243502
7.049987123089471,-1.7318683327210909,-0.506137487689776,3.9014390960026795,-15.876675793124594,12.277728282518888
7.03266843976226,-1.8906350906523368,-0.46712309672974917,4.024216378827869,-16.617049796443354,13.529059717233414
7.013762088855736,-2.05680558861677,-0.42688093294147045,4.159506976000203,-17.463481855262177,14.9462508805823
6.993194032969568,-2.231440407169392,-0.3852858631814684,4.308969484806026,-18.429136349421146,16.54658574229348
6.970879628897874,-2.4157317706636037,-0.34219616833340816,4.47443534222896,-19.524823818711955,18.344698327337294
6.946722311191238,-2.6109800088507233,-0.29745181491111855,4.657882325502333,-20.755142849208458,20.347372596814655
6.920612511102731,-2.818531437342808,-0.2508729916560952,4.86135605147048,-22.1113585846485,22.54383100362321
6.892427196729303,-3.039645023189293,-0.20225943114139042,5.086794361506712,-23.558701537238083,24.888273548640736
6.8620307464974095,-3.2752320385616738,-0.1513914875263233,5.33567709699312,-25.014594077536643,27.269759013984224
6.8292784261117925,-3.52537797933704,-0.09803471655639212,5.608374687132962,-26.31346911310079,29.463282178031946
6.794024646318422,-3.788512670468048,-0.041950969685062504,5.903007508913281,-27.155664783811623,31.058326959149372
6.7561395196137415,-4.060069318306164,0.01707910540407031,6.213590778504774,-27.048747674888293,31.3761805460249
6.71553882643068,-4.330556795055047,0.07921501318911806,6.5273525839650235,-25.281815207341563,29.432095639987423
6.672233258480129,-4.583374947128463,0.1444885390287683,6.821673540364897,-21.034807379266052,24.084311904250413
6.626399509008844,-4.7937230209211235,0.21270527443241727,7.062516659407401,-13.767637411984364,14.57228588140502
6.578462278799633,-4.931399395040967,0.2833304410264913,7.208239518221451,-3.8749080542151377,1.425511212851346
6.5291482848492235,-4.970148475583119,0.3554128362087058,7.222494630349964,6.914983089281588,-12.982061777840562
6.479446800093393,-4.900998644690302,0.4276377825122054,7.092674012571559,16.18044019133596,-25.32169346441738
6.43043681364649,-4.739194242776943,0.498564522637921,6.839457077927385,22.244646947684945,-33.30116849708799
6.38304487121872,-4.516747773300094,0.5669590934171949,6.506445392956505,24.951424875237247,-36.728404288806104
6.337877393485719,-4.267233524547722,0.6320235473467599,6.139161350068444,25.1777836341665,-36.82509311925712
6.295205058240242,-4.015455688206057,0.6934151608474444,5.770910418875873,23.980558246687938,-35.045480157537654
6.255050501358181,-3.7756501057391776,0.7511242650362031,5.4204556173004965,22.14701615337546,-32.46237869742374
6.2172940003007895,-3.554179944205423,0.8053288212092081,5.095831830326259,20.141236810372032,-29.700268352257744
6.181752200858735,-3.352767576101703,0.8562871395124707,4.798829146803682,18.19675417430953,-27.067077171945012
6.148224525097718,-3.1708000343586074,0.9042754309805076,4.528158375084232,16.41321113483099,-24.688786107450756
6.116516524754132,-3.0066679230102973,0.9495570147313499,4.281270514009724,14.82101216493007,-22.598535868621518
6.0864498455240295,-2.8584578013609967,0.9923697198714472,4.055285155323508,13.417933167336157,-20.786604978512315
6.05786526751042,-2.724278469687635,1.0329225714246824,3.847419105538385,12.188144911703825,-19.226090146975263
6.030622482813543,-2.6023970205705966,1.0713967624800662,3.6551582040686323,11.111530755343237,-17.885293526554474
6.004598512607837,-2.4912817130171643,1.1079483445207525,3.4763052688030878,10.167975006016372,-16.733287879828055
5.979685695477665,-2.3896019629570007,1.1427113972087835,3.3089723900048074,9.33914525317435,-15.742123906153957
5.955789675848095,-2.296210510425257,1.1758011211088315,3.1515511509432677,8.60906955876442,-14.887450939798638
5.932827570743842,-2.2101198148376127,1.2073166326182643,3.0026766415452815,7.964161868690465,-14.148431930982799
5.910726372595466,-2.130478196150708,1.237343399033717,2.8611923222354534,7.393016921004439,-13.507380434773413
5.889421590633959,-2.0565480269406637,1.2659553222560715,2.7261185178877194,6.88612847984476,-12.949320744450768
5.868856110364552,-1.9876867421422162,1.2932165074349486,2.5966253104432115,6.435601310569094,-12.461560575818885
5.84897924294313,-1.9233307290365254,1.3191827605393807,2.4720097046850227,6.034886354983579,-12.033311558287025
5.829745935652765,-1.8629818654866896,1.3439028575862308,2.3516765891021523,5.67854893474449,-11.655367288603978
5.811116116997898,-1.8061963761392448,1.3674196234772524,2.2351229162161124,5.362070822346392,-11.319837329691323
5.793054153236505,-1.752575667915781,1.3897708526394135,2.1219245429191993,5.08168327959917,-11.019931019198294
5.775528396557347,-1.7017588351197892,1.4109900980686054,2.0117252327272164,4.834226954509038,-10.749783664335192
5.758510808206149,-1.6534165655746988,1.4311073503958776,1.9042273960838645,4.617034483948052,-10.504317848350546
5.741976642550402,-1.6072462207352183,1.4501496243567162,1.799184217600359,4.427832092414642,-10.279133288932377
5.725904180343051,-1.5629678998110719,1.46814146653272,1.6963928847110352,4.264657075187949,-10.070419561835925
5.71027450134494,-1.5203213290591924,1.4851053953798303,1.595688689092676,4.1257886514408755,-9.874886856452225
5.695071288054348,-1.4790634425447837,1.501062282270757,1.4969398205281537,4.009690201517354,-9.689710698403411
5.6802806536289,-1.4389665405296101,1.5160316804760385,1.4000427135441196,3.914961338184508,-9.51248724452992
5.665890988223604,-1.3998169271477652,1.5300321076114798,1.3049178410988205,3.840298600923795,-9.34119633683711
5.651892818952127,-1.3614139411385273,1.543081286022468,1.2115058777304495,3.7844638119243217,-9.174170010040966
5.638278679540742,-1.323569303019284,1.5551963447997725,1.1197641776300398,3.7462593037129115,-9.010064597866258
5.6250429865105485,-1.286106709982155,1.566393986576073,1.0296635316513771,3.7245093346727733,-8.847834988210899
5.612181919410727,-1.2488616166354274,1.5766906218925867,0.9411851817692681,3.718047064184949,-8.686709944136092
5.599693303244372,-1.211681145993578,1.5861024737102793,0.8543180823279072,3.7257064778783895,-8.526167739461359
5.587576491784437,-1.174424081214794,1.5946456545335583,0.7690564049332936,3.746318648988176,-8.365911654153537
5.575832250972288,-1.1369608947249121,1.6023362185828913,0.6853972883917583,3.7787117064290134,-8.205845133055709
5.564462642025039,-1.099173777660622,1.609190191466809,0.6033388370612012,3.8217138645384,-8.04604662821536
5.553470904248433,-1.060956639015238,1.615223579837421,0.5228783707790475,3.8741588620377776,-7.886744316830453
5.542861337858281,-1.0222150503948604,1.6204523635452115,0.444010927610743,3.9348931646503753,-7.728291011619034
5.532639187354333,-0.9828661187483566,1.624892472821319,0.36672801749455264,4.002784310459859,-7.5711396581914885
5.522810526166849,-0.942838275643758,1.6285597529962645,0.29101662091263775,4.076729820439228,-7.41581984703078
5.5133821434104116,-0.9020709774393657,1.631469919205391,0.21685842244232995,4.155666157336663,-7.262915760500124
5.504361433636018,-0.8605143158659991,1.6336385034298142,0.1442292648373287,4.238577291202543,-7.113045934362391
5.495756290477358,-0.8181285429539737,1.6350807960781875,0.07309880549370479,4.324502514980832,-6.966845146432947
5.487575005047818,-0.7748835178041654,1.6358117841331246,0.003430354029375318,4.412543243835565,-6.824948660694931
5.479826169869776,-0.7307580853658098,1.6358460876734182,-0.06481913257757399,4.501868622240272,-6.687978961951494
5.472518589016118,-0.6857393991434071,1.6351978963476426,-0.13169892219708892,4.5917198487334865,-6.556535021690748
5.465661195024683,-0.6398222006560722,1.6338809071256717,-0.1972642724139964,4.681413205813864,-6.431184046973956
5.459262973018123,-0.5930080685979335,1.6319082644015317,-0.26157611288373595,4.770341848870818,-6.312455586052034
