th1 (rad),w1 (rad/s),th2 (rad),w2 (rad/s),a1 (rad/s^2),a2 (rad/s^2)
6.031358404322413,1.5468685087286973,1.4938514745092595,-0.7282348091610421,1.6733213930277469,-11.836164227660035
6.0468270894097,1.5636017226589747,1.486569126417649,-0.8465964514376425,1.7460269800361083,-11.91727066165585
6.062463106636289,1.5810619924593357,1.4781031619032725,-0.965769158054201,1.8418862748168692,-12.002055688993284
6.078273726560883,1.5994808552075044,1.4684454703227305,-1.0857897149441338,1.9614456216813316,-12.092794669981968
6.094268535112958,1.6190953114243176,1.4575875731732892,-1.2067176616439534,2.1053146741660753,-12.191991042359023
6.110459488227201,1.6401484581659784,1.4455203965568497,-1.3286375720675436,2.2741902511433385,-12.302389226342484
6.126860972808861,1.662890360677412,1.4322340208361743,-1.4516614643309684,2.4688823458140705,-12.426990926000403
6.143489876415635,1.6875791841355525,1.4177174061928646,-1.5759313735909726,2.6903420547639207,-12.569075122229464
6.160365668256991,1.7144826046831918,1.4019580924569548,-1.7016221248132672,2.939691000698827,-12.73222179523193
6.177510494303823,1.74387951469018,1.3849418712088222,-1.8289443427655865,3.2182514952364802,-12.920338971853287
6.194949289450724,1.776062029642545,1.3666524277811662,-1.9581477324841194,3.5275761439576736,-13.137691957430302
6.21270990974715,1.8113377910821216,1.347070950456325,-2.0895246520584223,3.869474703940767,-13.388932410130726
6.230823287657971,1.8500325381215292,1.3261757039357407,-2.22341397615973,4.246034558229409,-13.6791229724292
6.249323613039187,1.8924928837038233,1.3039415641741434,-2.360205205884022,4.659628847522462,-14.013750050144116
6.2682485418762255,1.939089172179048,1.2803395121153032,-2.5003427063854633,5.112902585217234,-14.398712326208905
6.287639433598016,1.9902181980312204,1.2553360850514486,-2.6443298296475524,5.608721172869708,-14.840264608208356
6.3075416155783275,2.0463054097599174,1.228892786754973,-2.792732475729636,6.150056369231107,-15.344883894746523
6.328004669675926,2.1078059734522285,1.2009654619976766,-2.9461813146771014,6.739769995495051,-15.91900439494747
6.349082729410449,2.175203673407179,1.1715036488509056,-3.1053713586265763,7.380232515934554,-16.568536506261527
6.370834766144521,2.2490059985665245,1.1404499352646398,-3.2710567236891914,8.072677761496541,-17.29803533197601
6.393324826130186,2.32973277618149,1.1077393680277479,-3.4440370770089515,8.816140470973535,-18.10930871961509
6.416622153892001,2.4178941808912255,1.0732989972576583,-3.6251301642051024,9.605742823236573,-18.99914271533083
6.440801095700913,2.513951609123591,1.0370476956156074,-3.8151215913584107,10.429984022023557,-19.95566521006692
6.465940611792149,2.618251449343827,0.9988964797020233,-4.0146782434590795,11.26654772722211,-20.952671475426474
6.492123126285588,2.730916926616048,0.9587496972674325,-4.2242049582133445,12.076013295068728,-21.94104865898964
6.5194322955517485,2.851677059566735,0.9165076476852991,-4.443615444803241,12.792862302120696,-22.83642970199551
6.547949066147416,2.979605682587942,0.8720714932372667,-4.671979741823196,13.313627734513586,-23.50281693497438
6.577745122973295,3.1127419599330777,0.8253516958190348,-4.90700791117294,13.483609207273854,-23.734071659663805
6.608872542572626,3.2475780520058164,0.7762816167073053,-5.144348627769578,13.087385939696297,-23.24042043508655
6.641348323092684,3.3784519114027796,0.7248381304296095,-5.376752832120443,11.85541408079329,-21.656910899850285
6.675132842206712,3.4970060522107125,0.6710706021084051,-5.593321941118946,9.507693024544965,-18.60286338078115
6.710102902728819,3.592082982456162,0.6151373826972156,-5.779350574926758,5.855993470630238,-13.822160247351757
6.746023732553381,3.6506429171624646,0.5573438769479481,-5.917572177400276,0.9571430769737584,-7.394042831171903
6.782530161725005,3.660214347932202,0.4981681551739453,-5.9915126057119945,-4.760864144412164,0.09401731286561414
6.819132305204327,3.6126057064880803,0.43825302911682534,-5.990572432583338,-10.536984263370904,7.600999425307771
6.8552583622692085,3.5072358638543712,0.378347304790992,-5.91456243833026,-15.541123263846243,13.998518625546254
6.890330720907752,3.351824631215909,0.31920168040768937,-5.774577252074797,-19.21282434608948,18.536956250102786
6.923848967219911,3.159696387755014,0.2614559078869414,-5.58920768957377,-21.423921082776136,21.064557447376117
6.955445931097461,2.9454571769272526,0.2055638309912037,-5.378562115100008,-22.389316347375054,21.89816370902377
6.984900502866733,2.721564013453502,0.15177820984020363,-5.1595804780097705,-22.46609189155516,21.543011726010224
7.0121161430012675,2.4969030945379505,0.10018240506010592,-4.944150360749668,-21.996072991204844,20.476220839827285
7.037085173946647,2.276942364625902,0.05074090145260924,-4.739388152351395,-21.238185771306714,19.055945581929652
7.0598545975929055,2.064560506912835,0.0033470199290952865,-4.548828696532099,-20.362914351278306,17.516141546712312
7.080500202662034,1.860931363400052,-0.042141267036225706,-4.373667281064976,-19.471588971738864,15.994797861399283
7.099109516296034,1.6662154736826633,-0.08587793984687547,-4.213719302450983,-18.618826979923707,14.565752392543237
7.11577167103286,1.4800272038834263,-0.1280151328713853,-4.06806177852555,-17.83030165399038,13.263549833140464
7.130571943071694,1.3017241873435226,-0.1686957506566408,-3.9354262801941453,-17.114816871226232,12.100164584417142
7.14358918494513,1.1305760186312603,-0.20805001345858226,-3.8144246343499737,-16.47187903758803,11.075381185969112
7.154894945131442,0.96585722825538,-0.24619425980208198,-3.703670822490283,-15.89621814739771,10.18291601848449
7.164553517413996,0.8068950467814029,-0.28323096802698483,-3.601841662305438,-15.380393260739462,9.413885045674693
7.17262246788181,0.6530911141740083,-0.3192493846500392,-3.507702811848691,-14.916246196437466,8.758687299161437
7.179153379023551,0.5039286522096337,-0.3543264127685261,-3.4201159388570765,-14.495681941918848,8.207969353005907
7.184192665545647,0.3589718327904452,-0.3885275721570969,-3.3380362453270176,-14.111064220029524,7.753069161614132
7.187782383873552,0.21786119059014997,-0.4219079346103671,-3.2605055537108765,-13.755396136065682,7.386172500028463
7.189960995779454,0.08030722922949313,-0.4545129901474758,-3.186643828710592,-13.422384424393002,7.10031648576778
7.190764068071749,-0.0539166150144369,-0.4863794284345817,-3.115640663852914,-13.106443598588893,6.889316729150246
7.190224901921605,-0.18498105100032583,-0.5175358350731109,-3.0467474965614114,-12.802671621561416,6.74766108255176
7.188375091411602,-0.31300776721594,-0.5480033100387249,-2.9792708857358936,-12.506814380102673,6.670393671374316
7.185245013739443,-0.43807591101696675,-0.5777960188960839,-2.9125669490221506,-12.215227984098355,6.653001904187375
7.180864254629273,-0.5602281908579503,-0.6069216883863054,-2.846036929980277,-11.924843188402088,6.691312966717688
7.175261972720693,-0.6794766227419712,-0.6353820576861082,-2.7791238003131,-11.633133578121495,6.781402860995513
7.168467206493274,-0.7958079585231861,-0.6631732956892392,-2.711309771703145,-11.338087704594166,6.9195191721655105
7.160509126908042,-0.9091888355691278,-0.6902863934062706,-2.64211457998149,-11.038184607902782,7.102017746021244
7.151417238552351,-1.0195706816481556,-0.7167075392060855,-2.571094402521277,-10.732371819748131,7.3253129455199275
7.141221531735869,-1.1268943998456369,-0.7424184832312983,-2.497841273066078,-10.420044836736805,7.585840898695434
7.129952587737413,-1.2310948482130049,-0.7673968959619591,-2.4219828640791237,-10.101027088098888,7.880035026236711
7.117641639255282,-1.3321051190939937,-0.7916167246027503,-2.3431825138167564,-9.775549533998984,8.204313074466342
7.1043205880643425,-1.4298606144339834,-0.8150485497409179,-2.2611393830720927,-9.444229185324184,8.555074841520382
7.090021981920002,-1.5243029062872253,-0.8376599435716389,-2.175588634656889,-9.10804601156393,8.928709752980941
7.07477895285713,-1.6153833664028645,-0.8594158299182078,-2.08630153712708,-8.768317886984049,9.321613410237527
7.058625119193102,-1.703066545272705,-0.8802788452894785,-1.9930854030247047,-8.426673408742332,9.730212198150857
7.041594453740375,-1.7873332793601282,-0.9002096993197256,-1.895783281043196,-8.085022599139048,10.150994998630777
7.023721120946774,-1.8681835053515188,-0.9191675321301576,-1.7942733310568884,-7.745525675114842,10.580551015361092
7.005039285893258,-1.9456387621026672,-0.9371102654407264,-1.6884678209032775,-7.410560229839079,11.01561267478254
6.985582898272232,-2.019744364401058,-0.9539949436497591,-1.578311694155452,-7.082687322678395,11.453102533018567
6.965385454628221,-2.090571237627842,-0.9697780605913137,-1.4637806688252664,-6.764617113774646,11.890183092049153
6.944479742251942,-2.1582174087655885,-0.9844158672795663,-1.344878837904775,-6.459174806051181,12.324308416491865
6.922897568164286,-2.2228091568261004,-0.997864655658614,-1.2216357537398563,-6.169267767897656,12.753276451169842
6.9006694765960255,-2.2845018345050767,-1.0100810131960125,-1.094102989228158,-5.897854800121628,13.17528097607745
6.877824458250974,-2.343480382506293,-1.0210220430882941,-0.9623501794673834,-5.647918575964754,13.588962205874964
6.854389654425911,-2.3999595682659405,-1.030645544882968,-0.8264605574086338,-5.422442317107634,13.99345515044603
6.830390058743252,-2.454183991437017,-1.0389101504570541,-0.6865260059041735,-5.224391764956505,14.388435002674814
6.805848218828881,-2.506427909086582,-1.045775410516096,-0.5426416558774253,-5.0567034577535,14.774159005166021
6.780783939738016,-2.556994943664117,-1.0512018270748702,-0.3949000658257651,-4.922280221669919,15.151504456641943
6.755213990301375,-2.6062177458808162,-1.0551508277331278,-0.24338502125934566,-4.823994617022034,15.522002727277577
6.7291518128425665,-2.6544576920510368,-1.0575846779457212,-0.08816499398656988,-4.764700832771747,15.887869320636089
6.7026072359220565,-2.7021047003787544,-1.0584663278855868,0.07071369921979101,-4.747255166843121,16.252030086528066
6.675586188918269,-2.7495772520471857,-1.057759190893389,0.23323400008507167,-4.774544720935006,16.618143560573223
6.648090416397797,-2.7973226992565356,-1.0554268508925382,0.3994154356908039,-4.849523198295094,16.990618940970997
6.6201171894052315,-2.8458179312394867,-1.0514326965356302,0.5693216251005139,-4.975251588765605,17.374628194454043
6.591659010092837,-2.8955704471271426,-1.0457394802846252,0.7430679070450543,-5.1549398356198575,17.776108875324866
6.562703305621565,-2.9471198454833414,-1.0383088012141746,0.920828995798303,-5.391982937300652,18.20175091418605
6.533232107166732,-3.0010396748563477,-1.0291005112561915,1.1028465049401635,-5.689980746088568,18.658955043467802
6.503221710418169,-3.0579394823172334,-1.0180720462067898,1.2894360553748414,-6.052724015718759,19.155741326160552
6.472642315594996,-3.118466722474421,-1.0051776856530414,1.480993468636447,-6.484118462903941,19.700571283755636
6.4414576483702515,-3.1833079071034605,-0.990367750966677,1.6779991814740034,-6.988001265227267,20.30202294738125
6.409624569299217,-3.253187919755733,-0.973587759151937,1.881019410947816,-7.567776643274287,20.96821940671157
6.37709269010166,-3.328865686188476,-0.9547775650424588,2.0907016050149316,-8.225753077797368,21.705849919502068
6.343804033239775,-3.4111232169664496,-0.9338705489923095,2.3077601042099523,-8.961995808954168,22.518526555873745
6.309692801070111,-3.5007431750559914,-0.9107929479502099,2.5329453697686897,-9.772403596998341,23.404073392139
6.274685369319551,-3.5984672110259748,-0.885463494252523,2.76698610369008,-10.645567664687338,24.350134554517954
6.238700697209291,-3.704922887672848,-0.8577936332156222,3.010487449235259,-11.557773661075885,25.32721234076078
6.201651468332562,-3.8205006242836066,-0.8276887587232696,3.2637595726428668,-12.465306467932761,26.277965812278396
6.163446462089726,-3.945153688962934,-0.795051162996841,3.5265392307656507,-13.293172221990874,27.101536372800695
6.123994925200097,-4.078085411182843,-0.7597857706891845,3.7975545944936577,-13.919898691474963,27.632430476520614
6.0832140710882685,-4.2172843980975925,-0.7218102247442479,4.0738788992588635,-14.160188512128782,27.616444461637855
6.041041227107293,-4.35888628321888,-0.6810714357516593,4.350043343875242,-13.752568216287989,26.693626990106058
5.997452364275104,-4.4964119653817605,-0.6375710023129069,4.616979613776303,-12.369386777897022,24.412562329615696
5.952488244621287,-4.62010583316073,-0.5914012061751438,4.861105237072461,-9.678939141794064,20.317623583751804
5.9062871862896795,-4.716895224578671,-0.5427901538044192,5.064281472909979,-5.488014795832189,14.148680667537299
5.859118234043893,-4.771775372536993,-0.4921473390753194,5.205768279585352,0.05566088950379946,6.124138416251089
5.8114004803185235,-4.771218763641955,-0.44008965627946584,5.267009663747863,6.328649493605963,-2.871874060288903
5.763688292682104,-4.707932268705895,-0.3874195596419872,5.238290923144974,12.353012354539816,-11.461921974292784
5.716608969995044,-4.584402145160497,-0.3350366504105375,5.123671703402046,17.196735387313716,-18.33839654481222
5.6707649485434395,-4.412434791287359,-0.28379993337651704,4.940287737953923,20.372087678903526,-22.821457074724307
5.626640600630566,-4.208713914498324,-0.2343970559969778,4.712073167206681,21.9243999767832,-24.98105792018632
5.584553461485583,-3.9894699147304915,-0.18727632432491098,4.462262588004817,22.22820505267263,-25.34880562805505
5.544658762338278,-3.7671878642037653,-0.1426536984448628,4.208774531724266,21.73054286231945,-24.557038661691568
5.50698688369624,-3.549882435580571,-0.10056595312762015,3.9632041451073508,20.800660245293397,-23.12807744683849
5.471488059340435,-3.341875833127637,-0.06093391167654664,3.731923370638966,19.690557534448352,-21.419197848658918
5.4380693010091585,-3.1449702577831533,-0.023614677970156976,3.5177313921523767,18.55176429767499,-19.64639367838865
5.406619598431327,-2.9594526148064033,0.011562635951366793,3.32126745536849,17.46606330774949,-17.92758947071028
5.377025072283263,-2.784791981728908,0.044775310505051694,3.1419915606613875,16.47203332056462,-16.31992418454072
5.349177152465973,-2.620071648523262,0.07619522611166557,2.97879231881598,15.583442836127396,-14.845580838457657
5.322976435980741,-2.464237220161988,0.10598314929982537,2.8303365104314038,14.8007130733979,-13.507889127090925
5.298334063779121,-2.316230089428009,0.1342865144041394,2.6952576191604947,14.117632025823283,-12.300766408164534
5.275171762884841,-2.175053769169776,0.16123909059574437,2.572249955078849,13.525117558709098,-11.214018755696815
5.253421225193144,-2.039802593582685,0.18696159014653285,2.460109767521881,13.013241532588722,-10.236200675630345
5.233023199257317,-1.909670178256798,0.21156268782175167,2.3577477607655775,12.572262811396024,-9.356081329202885
5.213926497474748,-1.7839475501428377,0.23514016542940744,2.2641869474735485,12.1931099119269,-8.56333489511856
5.19608702197332,-1.6620164510235687,0.2577820349041429,2.1785535985223627,11.867566247086202,-7.848809729857347
5.179466857463085,-1.5433407885527066,0.27956757088936657,2.1000655012237894,11.588300561092971,-7.204576487585278
5.164033449577558,-1.427457782941777,0.3005682259016045,2.028019736347937,11.348821706273595,-6.623866522571734
5.149758871748141,-1.313969565879041,0.32084842326508384,1.9617810711222194,11.143400901268402,-6.10096145665944
5.13661917608935,-1.202535556866357,0.34046623397630604,1.900771456555625,10.966984364172303,-5.6310664122120935
5.124593820520686,-1.092865713224634,0.3594739485418623,1.8444607924335041,10.815107936860345,-5.210183581334923
5.11366516338844,-0.9847146338560305,0.3779185564661974,1.792358956620155,10.683819113660912,-4.8349940768230475
5.103818017049879,-0.8778764427194214,0.3958421460323989,1.7440090158519246,10.569608542065463,-4.5027512885878105
5.095039252622685,-0.7721803572987668,0.4132822361909182,1.6989815029660464,10.469351317946607,-4.211186492017018
5.0873174490496975,-0.6674868441193007,0.43027205122057866,1.6568696380458763,10.380257540715297,-3.9584262251431097
5.0806425806085045,-0.5636842687121477,0.4468407476010374,1.6172853757944452,10.299831222392877,-3.742920405792691
5.075005737921383,-0.460685956488219,0.4630136013589819,1.5798561717365183,10.225836531821532,-3.563379980090553
5.0703988783565,-0.35842759117000367,0.4788121630763471,1.5442223719356127,10.156270374122087,-3.4187229015771594
5.066814602444801,-0.2568648874287828,0.4942543867957032,1.510035142919841,10.089340385672287,-3.3080273370478643
5.064245953570513,-0.15597148357205992,0.5093547382249016,1.4769548695493624,10.023447528115724,-3.2304911274720607
5.062686238734792,-0.05573700829090267,0.5241242869203953,1.4446499582746417,9.957172571162474,-3.18539667199239
5.062128868651883,0.04383471742072208,0.5385707865031417,1.412795991554718,9.889265853291475,-3.172080536378018
5.062567215826091,0.14272737595363683,0.5526987464186889,1.3810751861909378,9.818639797575436,-3.1899072086846734
5.063994489585627,0.24091377392939117,0.5665094982805983,1.349176114104091,9.74436373536947,-3.238246532794317
5.066403627324921,0.3383574112830859,0.5800012594216392,1.3167936487761478,9.665660653713035,-3.3164544456796916
5.069787201437752,0.4350140178202162,0.5931691959094006,1.2836291043193508,9.58190553389795,-3.4238567283528933
5.074137341615954,0.5308330731591957,0.6060054869525942,1.2493905370358218,9.492624989972715,-3.5597355554987016
5.079445672347545,0.6257593230589229,0.6184993923229524,1.2137931814808347,9.397497948319081,-3.723318696656806
5.085703265578134,0.7197343025421137,0.6306373241377607,1.1765599945142666,9.296357134232274,-3.913771284072126
5.092900608603555,0.8126978738844364,0.6424029240829034,1.1374222816735453,9.189191150092022,-4.130190120094057
5.1010275873424,0.9045897853853566,0.653777146899639,1.0961203804726047,9.076146943750517,-4.371600550854146
5.110073485196254,0.9953512548228618,0.664738350704365,1.0524043749640632,8.957532476852196,-4.636955982904551
5.120026997744482,1.0849265795913838,0.6752623944540057,1.0060348151350178,8.833819412802084,-4.925140165019943
5.1308762635403955,1.1732647737194046,0.6853227426053559,0.9567834134848183,8.705645655105014,-5.23497239741956
5.1426089112775895,1.2603212302704547,0.694890576740204,0.9044336895106228,8.573817581128566,-5.565215863835942
5.155212123580294,1.3460594060817404,0.7039349136353102,0.8487815308722634,8.439311836514413,-5.914589306511576
5.168672717641112,1.4304525244468844,0.7124227289440329,0.7896356378071476,8.30327658410631,-6.281782278735883
5.18297724288558,1.5134852902879474,0.7203190853221044,0.7268178150197888,8.167032140996195,-6.665474212649357
5.19811209578846,1.5951556116979093,0.7275872634723023,0.6601630728932952,8.032070990549908,-7.064357531100109
5.214063651905439,1.6754763216034083,0.7341888942012352,0.5895194975822942,7.900057225118099,-7.477165011709278
5.230818415121473,1.7544768938545894,0.7400840891770581,0.5147478474652014,7.7728255610265835,-7.902701580698999
5.248363184060019,1.8322051494648552,0.7452315676517102,0.4357208316582114,7.652380171033694,-8.339880676785175
5.266685235554668,1.9087289511751921,0.7495887759682923,0.3523220248903597,7.540893700414819,-8.78776528660908
5.28577252506642,1.9841378881793403,0.7531119962171959,0.2644443720242689,7.440706969744947,-9.24561371953742
5.305613903948213,2.05854495787679,0.7557564399374386,0.1719882348288947,7.354330017649105,-9.712930169312918
5.326199353526981,2.132088258053281,0.7574763222857275,0.07485893313576551,7.284445296349802,-10.18952011175966
5.347520236107513,2.204932711016779,0.7582249116170852,-0.027036267981831077,7.233913996423798,-10.675550619811483
5.369569563217681,2.277271850981017,0.7579545489372669,-0.13379177417994592,7.205786637704459,-11.171615745519476
5.392342281727491,2.349329717358062,0.7566166311954674,-0.24550793163514067,7.203319211084223,-11.678807224421899
5.415835578901072,2.421362909468904,0.754161551879116,-0.3622960038793597,7.229996277125328,-12.198790892734063
