th1 (rad),w1 (rad/s),th2 (rad),w2 (rad/s)
3.165428118064098,-2.9176800927403117,4.763363375239994,-0.17844368137685035
3.136251317136695,-2.91501096840267,4.761578938426225,-0.1655957702262634
3.107101207452668,-2.915042329142662,4.759922980723962,-0.15256259899656832
3.0779507841612412,-2.9177742320271536,4.758397354733996,-0.13958614279781384
3.0487730418409695,-2.9232164102798697,4.757001493306018,-0.12690817371595395
3.0195408777381707,-2.931388544478196,4.755732411568858,-0.11477148331532598
2.9902269922933886,-2.94232060688093,4.754584696735705,-0.1034211285599525
2.9608037862245795,-2.9560532696485073,4.753550485450106,-0.09310570469107012
2.9312432535280943,-2.9726383673471117,4.752619428403195,-0.0840786456282979
2.9015168698546234,-2.992139403169294,4.7517786419469115,-0.07659954886227337
2.8715954758229305,-3.014632086655572,4.751012646458289,-0.07093551737502583
2.8414491549563747,-3.0402048882402446,4.750303291284538,-0.06736250562019783
2.811047106073972,-3.0689595925221798,4.749629666228336,-0.06616664973577743
2.7803575101487503,-3.101011827605125,4.748967999730978,-0.06764555362023622
2.749347391872699,-3.1364915419675494,4.748291544194776,-0.07210949190833157
2.7179824764530234,-3.175543392898654,4.747570449275693,-0.07988247782740601
2.686227042524037,-3.218327001360141,4.746771624497419,-0.09130312796808929
2.6540437725104353,-3.2650170170032724,4.745858593217738,-0.10672523673857272
2.6213936023404028,-3.3158029238347995,4.744791340850353,-0.12651795031243004
2.5882355731020548,-3.3708885016232704,4.743526161347228,-0.15106540296933843
2.554526688085822,-3.430490840666628,4.742015507317535,-0.18076564783128932
2.5202217796791557,-3.4948387883467253,4.740207850839222,-0.21602867944456525
2.4852733917956886,-3.5641706856802426,4.738047564044776,-0.2572733083360766
2.449631684938886,-3.638731232040684,4.735474830961415,-0.3049226092632011
2.4132443726184793,-3.718767298228903,4.732425604868784,-0.35939762813920173
2.3760566996361905,-3.8045224947757825,4.7288316285873915,-0.4211090016950988
2.338011474688433,-3.8962302973681555,4.7246205385704405,-0.49044612464147025
2.2990491717147514,-3.994105539164955,4.719716077324025,-0.5677634990717584
2.2591081163231017,-4.0983341059269796,4.714038442333308,-0.6533639295569754
2.218124775263832,-4.209060720197214,4.707504803037739,-0.747478295658481
2.1760341680618596,-4.326374780841021,4.700030020081154,-0.8502417526703561
2.132770420253449,-4.450294338236113,4.69152760255445,-0.9616663912221981
2.088267476871088,-4.580748434367727,4.681910938642227,-1.081610633012162
2.042459992527411,-4.7175582171128525,4.6710948323121055,-1.2097459524195144
1.9952844103562823,-4.860417438295011,4.65899737278791,-1.3455218805495743
1.9466802359733322,-5.00887314679381,4.645542153982414,-1.488130644495758
1.896591504505394,-5.162307564499276,4.630660847537457,-1.6364731810850077
1.8449684288604014,-5.319922252644555,4.6142961157266065,-1.7891285902128433
1.7917692063339559,-5.480725708339595,4.596404829824478,-1.9443293027767266
1.73696194925056,-5.643525454879146,4.576961536796711,-2.099944284776605
1.6805266947017685,-5.806925503367681,4.555962093948945,-2.2534724585662413
1.6224574396680917,-5.969329794903963,4.533427369363283,-2.402048209571768
1.562764141719052,-6.128951942057128,4.5094068872675654,-2.542460425000165
1.5014746222984807,-6.283831363194415,4.483982283017564,-2.6711860874842532
1.4386363086665366,-6.431855842407798,4.457270422142722,-2.7844391524765735
1.3743177502424586,-6.570790735541252,4.4294260306179565,-2.878235390742502
1.308609842887046,-6.698315515834872,4.400643676710532,-2.9484741294739383
1.2416266877286974,-6.812069067026274,4.371158935415792,-2.99103831309146
1.1735059970584347,-6.909705935899745,4.341248552284878,-3.0019148033618537
1.1044089376994373,-6.988966377246862,4.311229404251259,-2.9773369451856215
1.0345192739269686,-7.04776307461063,4.281456034799403,-2.9139505811177497
0.9640416431808623,-7.084286439640747,4.252316528988225,-2.809002277426502
0.8931987787844549,-7.097127943636138,4.22422650621396,-2.6605440077596927
0.8222274993480935,-7.085416772581833,4.197621066136364,-2.467641798860898
0.7513733316222752,-7.048959417762532,4.172944648147755,-2.2305675067364428
0.6808837374446498,-6.988365521812802,4.150638973080391,-1.9509446882500439
0.6110000822265218,-6.905138148602408,4.131129526197891,-1.6318143532198996
0.5419487007404977,-6.801705030589771,4.1148113826656925,-1.2775877589465146
0.4739316504346,-6.681371563899696,4.102035505076227,-0.8938642109319871
0.40711793479560304,-6.548187354162435,4.093096862966907,-0.4871124181721932
0.3416360612539787,-6.406734479263671,4.088225738785185,-0.0642406838838182
0.277568716461342,-6.261863106660561,4.087583331946346,0.3678933865577757
0.2149500853947364,-6.118412982556046,4.091262265811924,0.8029677372901438
0.15376595556917594,-5.980962910924704,4.099291943184825,1.235610408584424
0.09395632645992891,-5.853643368137308,4.11164804727067,1.6616964349238006
0.035419892778555825,-5.74003266352138,4.1282650116199076,2.0785076236809554
-0.02198043385665798,-5.643139997168759,4.149050087856717,2.4847646183723318
-0.07841183382834557,-5.565464788029253,4.173897734040441,2.880562345088522
-0.1340664817086381,-5.509113938558484,4.202703357491326,3.2672505305928143
-0.18915762109422296,-5.475957611148445,4.235375862797254,3.647301192236868
-0.24391719720570743,-5.4678078887959884,4.271848874719623,4.024198455799971
-0.2985952760936673,-5.486610866904075,4.312090859277623,4.402376906209048
-0.35346138476270805,-5.53464891456412,4.356114628339713,4.787225801856057
-0.4088078739083493,-5.614753983256563,4.403986886358274,5.185168515314814
-0.4649554137409149,-5.730532327592009,4.455838571511422,5.60381701515924
-0.5222607370168351,-5.886590504286897,4.511876741663015,6.05218232307081
-0.581126642059704,-6.088718958122895,4.572398564893723,6.540874563356356
-0.642013831640933,-6.343900466569642,4.637807310527286,7.082104407676149
-0.7054528363066294,-6.659788130390049,4.7086283546040475,7.6889918309746434
-0.7720507176105298,-7.0427661305618825,4.7855182729137935,8.372952423298809
-0.8424783789161486,-7.492543559108027,4.869247797146782,9.136312359554209
-0.9174038145072289,-7.9892418535137635,4.960610920742324,9.95451750694341
-0.9972962330423665,-8.46830560392241,5.060156095811759,10.741384620319524
-1.0819792890815907,-8.7919216800742,5.1675699420149535,11.30943081100963
-1.1698985058823328,-8.775859488162428,5.280664250125049,11.40739456393289
-1.257657100763957,-8.345484813579652,5.394738195764378,10.93732584989477
-1.3411119488997536,-7.653908329195526,5.504111454263326,10.117068308353177
-1.4176510321917088,-6.920090690345211,5.605282137346857,9.252798016053251
-1.486851939095161,-6.257365454796017,5.69781011750739,8.501933913126177
-1.5494255936431212,-5.688270827250723,5.782829456638652,7.895916127268334
-1.6063083019156283,-5.201385216271979,5.861788617911335,7.4197602154626034
-1.6583221540783482,-4.7788712284801615,5.935986220065962,7.0501704718605005
-1.7061108663631497,-4.40466300849849,6.006487924784567,6.766713438544815
-1.7501574964481346,-4.065891150459066,6.074155059170015,6.553673232532109
-1.7908164079527251,-3.752517447762056,6.139691791495336,6.399471245979484
-1.8283415824303457,-3.456679776844326,6.203686503955131,6.2957010040615495
-1.862908380198789,-3.1721273716454297,6.266643513995747,6.2362825184147
-1.8946296539152432,-2.893809399420557,6.329006339179894,6.216805271726016
-1.9235677479094488,-2.617602630990814,6.391174391897154,6.234023205407909
-1.949743774219357,-2.3401537067555904,6.453514623951233,6.285449825859943
-1.973145311286913,-2.058817187024067,6.5163691222098326,6.36900799551224
-1.9937334831571538,-1.7716776896252457,6.580059202164955,6.482698949841057
-2.0114502600534063,-1.4776486136468634,6.644886191663366,6.624265377604439
-2.026226746189875,-1.176639279850842,6.7111288454394105,6.790835387287643
-2.0379931389883836,-0.8697750533234151,6.779037199312287,6.978550659280203
-2.0466908895216176,-0.5596395364743074,6.848822705905089,7.182205783895021
-2.0522872848863605,-0.2504840049503886,6.92064476374404,7.394957440824896
-2.0547921249358643,0.05167932830897448,6.994594338152289,7.608197252171022
-2.0542753316527746,0.33920585733539005,7.070676310673999,7.811707472104853
-2.0508832730794206,0.6032707432584369,7.148793385395048,7.994210667265399
-2.0448505656468363,0.834693751572674,7.228735492067702,8.14435692199706
-2.0365036281311095,1.0250745493849056,7.3101790612876725,8.252056269456352
-2.0262528826372606,1.168032391223593,7.392699623982236,8.309895368477296
-2.0145725587250247,1.2602365054235471,7.475798577667009,8.314261145653028
-2.001970193670789,1.3019217588502892,7.558941189123539,8.265822727627926
-1.9889509760822863,1.2967351032359216,7.641599416399818,8.169218942060127
-1.9759836250499272,1.2509862958894473,7.723291605820419,8.032072927496449
-1.9634737620910327,1.172560709054131,7.803612335095384,7.863661240344812
-1.9517481550004914,1.0698060576962896,7.882248947498832,7.673607470087353
-1.9410500944235285,0.9506316746797706,7.958985022199705,7.470866078148073
-1.9315437776767308,0.8219280073266508,8.033693682981186,7.263100784157903
-1.9233244976034642,0.6892981542419192,8.106324690822765,7.05642861129994
-1.916431516061045,0.5570279735103729,8.176888976935764,6.855431942630246
-1.9108612363259412,0.42820464669404074,8.245443296362067,6.6633291394394245
-1.9065791898590008,0.30490645134503314,8.312076587756462,6.482214427591482
-1.9035301253455503,0.18840997600915316,8.376898732032377,6.313307513609333
-1.9016460255854588,0.07938346515077903,8.44003180716847,6.157180001908244
-1.900852190933951,-0.021948260714585485,8.501603607187553,6.0139446733471535
-1.9010716735410969,-0.11567125205123528,8.561743053921024,5.883405211768579
-1.9022283860616092,-0.20208041590883014,8.62057710603871,5.7651699053317165
-1.9042491902206975,-0.28160366060205333,8.678228805092026,5.658735221198578
-1.907065226826718,-0.3547471510441814,8.734816157304012,5.563545523650976
-1.9106126983371599,-0.4220569190471383,8.790451612540522,5.479034611463213
-1.9148332675276312,-0.4840927662801592,8.845241958655155,5.404653797222346
-1.9196741951904328,-0.5414111838362169,8.899288496627378,5.339890257652118
-1.925088307028795,-0.5945547421549049,8.9526873992039,5.284278493898555
-1.931033854450344,-0.6440460193550356,9.005530184142884,5.237407002078977
-1.9374743146438944,-0.6903846225969839,9.057904254163674,5.1989216669936225
-1.9443781608698643,-0.7340462249166771,9.10989347083361,5.168526934587489
-1.951718623119031,-0.7754828052904528,9.161578740179484,5.145985463427035
-1.9594734511719356,-0.8151234588674455,9.213038594813755,5.131116673506706
-1.9676246857606101,-0.8533752505022326,9.264349761548822,5.12379437524725
-1.9761584382656325,-0.8906236265015965,9.315587705301294,5.123943447548931
-1.9850646745306486,-0.9272318803793206,9.366827139776783,5.1315353170972715
-1.994336993334442,-0.9635390868576349,9.418142492947755,5.146581747377019
-2.0039723842030184,-0.9998557682275487,9.469608310421526,5.169126149442861
-2.013970941885294,-1.036456329084187,9.521299571915954,5.199231250973217
-2.024335505176136,-1.0735669800976495,9.573291884425686,5.236961481352148
-2.035071174977112,-1.1113474673743737,9.625661499239207,5.282357835783514
-2.046184649650856,-1.1498644535687312,9.678485077597042,5.335402290257266
-2.0576832941865435,-1.189053938063588,9.731839100499615,5.395968145125039
-2.0695738335671794,-1.2286698458360383,9.785798781950865,5.463752222117988
-2.08186053202554,-1.2682162501132759,9.840436304172044,5.538185146975372
-2.0945426945266727,-1.306862339165258,9.895818155641798,5.618317981742331
-2.1076113179183253,-1.3433433379026436,9.952001335459222,5.702688786908783
-2.121044751297352,-1.3758586467087426,10.00902822332831,5.789183356015092
-2.1348033377644393,-1.4019916773645882,10.06692005688846,5.874922089954894
-2.148823254538085,-1.418693412836519,10.125669277788008,5.956228727731975
-2.1630101886664503,-1.4223874973148416,10.185231565065328,6.02875823408785
-2.177234063639599,-1.409254156144216,10.245519147406206,6.087860855207318
-2.191326605201041,-1.375712844317865,10.30639775595828,6.129209128528874
-2.2050837336442197,-1.3190383862722987,10.367689847243568,6.149599773271456
-2.218274117506943,-1.2379390577236566,10.429185844976283,6.147699368001821
-2.2306535080841794,-1.1328715751286564,10.490662838656302,6.1244325540741
-2.241982223835466,-1.0059400582401037,10.551907164197043,6.082812362191382
-2.252041624417867,-0.8604081704361867,10.612735287818957,6.027260475763038
-2.260645706122229,-0.7000250074519745,10.673007892576587,5.962694347510774
-2.267645956196749,-0.5284079999546789,10.732634836051695,5.893709119719439
-2.2729300361962954,-0.34863727640699416,10.791571927248889,5.8240558426825135
-2.2764164089603653,-0.16308749504434547,10.849812485675713,5.756441738029617
-2.278047283910809,0.02656181037178909,10.90737690305601,5.6925656324636265
-2.2777816658070913,0.21921861857712652,10.964302559380647,5.633275526458016
-2.27558947962132,0.4142383680682953,11.020635314645228,5.578760769467318
-2.271447095940637,0.6112895662624024,11.076422922339901,5.528729209263753
-2.265334200278013,0.8102414973774088,11.13171021443254,5.482549468444576
-2.257231785304239,1.0110774786586207,11.186535709116985,5.439355868834996
-2.247121010517653,1.2138310475925986,11.240929267805335,5.398121315798688
-2.234982700041727,1.418540533764568,11.294910480963322,5.3577056759484485
-2.2207972947040813,1.6252175480239828,11.348487537722807,5.316886798320082
-2.2045451192238414,1.8338257560651796,11.401656405706008,5.274380036265474
-2.1862068616631896,2.044267277110297,11.454400206068662,5.2288507284435175
-2.1657641888920867,2.2563749096039882,11.506688713353098,5.178922895682401
-2.143200439796047,2.4699090620749913,11.558477942309922,5.123186470552172
-2.118501349175297,2.684558760965308,11.609709807015443,5.060204666605757
-2.0916557615656437,2.899946445045431,11.6603118536815,4.9885225552627555
-2.0626562971151894,3.1156364677493906,11.710197079234128,4.90667749231693
-2.0314999324376957,3.3311473398738993,11.759263854157297,4.813211676398465
-1.9981884590389567,3.545967775958382,11.80739597092128,4.706686795137663
-1.9627287812793728,3.7595765750044485,11.854462838872658,4.58570040064617
-1.9251330155293283,3.9714662851022684,11.90031984287912,4.448903344901369
-1.8854183526783055,4.181170487329035,11.944808876328134,4.2950172981857175
-1.843606647805015,4.388294403762134,11.987759049309991,4.122851078958941
-1.7997237037673937,4.59254840630183,12.02898756009958,3.9313142578436713
-1.7537982197043753,4.793783897232612,12.068300702678016,3.7194262844164205
-1.7058603807320492,4.99203096846029,12.10549496552218,3.486319251250692
-1.6559400710474463,5.187537239126489,12.140358158034687,3.2312323888526535
-1.6040646986561815,5.380807324767218,12.172670481923213,2.9534965201065555
-1.5502566254085093,5.5726424869058695,12.202205447124278,2.6525070536543347
-1.4945302005394505,5.764180089335139,12.228730517660821,2.327684761560106
-1.436888399646099,5.956932407815826,12.252007365276423,1.97842475237128
-1.3773190755679408,6.15282382027236,12.271791612800136,1.6040360802806335
-1.3157908373652172,6.354223888981842,12.287831973602943,1.2036780528820987
-1.2522485984753988,6.563970259159273,12.299868754131763,0.7763059646122801
-1.1866088958838061,6.785367570909194,12.307631813777887,0.3206515405746067
-1.1187552201747142,7.022132776371139,12.310838329183632,-0.16471269182374915
-1.0485338924110028,7.278226083394555,12.309191202265394,-0.6811304161861937
-0.9757516315770572,7.557447605238523,12.302379898103531,-1.2292607588148958
-0.900177155524672,7.862574353621326,12.290087290515382,-1.807792117793953
-0.8215514119884588,8.193647306813682,12.272009369337443,-2.4109143564135973
-0.739614938920322,8.544841808204621,12.247900225773307,-3.0237577074659177
-0.6541665208382759,8.899460657591769,12.217662648698647,-3.6151917370576205
-0.5651719142623581,9.223907282429149,12.181510731328071,-4.1293142246285885
-0.47293284143806663,9.465594415263059,12.140217589081786,-4.482871379872124
-0.378276897285436,9.565437802862531,12.095388875283065,-4.583993437370691
-0.2826225192568107,9.490400123650133,12.049548940909359,-4.380108097700427
-0.18771851802030937,9.262405194287778,12.005747859932354,-3.9008988487291134
-0.09509446607743158,8.9459427282565,11.966738871445063,-3.241518555236569
-0.005635038794866584,8.606097906866431,11.934323685892698,-2.501847385210784
0.08042594027379772,8.282913725416536,11.909305212040591,-1.7479265816901952
0.1632550775279631,7.9922753509834905,11.891825946223689,-1.0116163493905335
0.243177831037798,7.7358544212390905,11.881709782729784,-0.30412763956192135
0.3205363752501889,7.5089443933558035,11.878668506334165,0.3728385255782617
0.39562581918374695,7.304640183124917,11.882396891589948,1.020962059108072
0.4686722210149961,7.115692426457779,11.892606512181029,1.6425015113235615
0.5398291452795739,6.935229129417681,11.909031527294264,2.2391904914602785
0.6091814365737507,6.756996922451894,11.931423432208867,2.811914964444028
0.6767514057982696,6.575423393398296,11.959542581853308,3.3607323265460254
0.7425056397322526,6.385626911243022,11.993149905118768,3.8850352685649803
0.8063619088446828,6.183420694039566,12.032000257804418,4.3837733681536495
0.8681961157850785,5.96532304797168,12.075837991485955,4.8556924194428515
0.9278493462647953,5.72857103782524,12.124394915680384,5.299570706785596
0.9851350566430477,5.471129331169274,12.17739062274824,5.714439009875881
1.0398463499547403,5.191684835443841,12.234535012847,6.099774416945585
1.0917631983091787,4.889618946583026,12.295532757016455,6.455660244143498
1.1406593877750089,4.564951759463612,12.36008935945789,6.782906815827729
1.186308905369645,4.218255860455755,12.427918427616166,7.083130908649691
1.2284914639742024,3.850540864300432,12.498749736702663,7.358795152135961
1.2669968726172067,3.4631132664155797,12.572337688224023,7.6132121642529835
1.3016280052813625,3.057419162536769,12.648469809866553,7.850521043494165
1.3322021969067301,2.6348798849534623,12.726975020301495,8.075645233994237
1.3585509957562647,2.1967330080511203,12.807731472641438,8.294239668803721
1.380518325836776,1.7438946319659518,12.890673869329476,8.51262986548216
1.3979572721564355,1.2768657819225298,12.975800167984298,8.737733421301519
1.4107259299756607,0.7957207739241776,13.063177502197313,8.976929576780584
1.4186831377149025,0.30024687826731555,13.152946797965118,9.237794455942552
1.4216856064975756,-0.20963312698805314,13.245324742524543,9.527528853526714
1.419589275227695,-0.7329102377456511,13.340600031059811,9.851742556931123
1.4122601728502386,-1.2655859087577386,13.439117456629122,10.212001013955515
1.3996043137626613,-1.7972068730972799,13.541237466768676,10.601260630068184
1.3816322450316885,-2.3053970190331734,13.647250073069358,10.996499110109047
1.3585782748413566,-2.749587898779625,13.757215064170449,11.350024164943907
1.3310823958535605,-3.0700383193134138,13.870715305819887,11.587588072824534
1.3003820126604264,-3.2042459352416537,13.986591186548132,11.629725777159654
1.26833955330801,-3.124190159722501,14.10288844431973,11.441078422210529
1.237097651710785,-2.8633772450728965,14.217299228541835,11.065782699792509
1.208463879260056,-2.495950378028922,14.32795705553976,10.598716370152513
1.1835043754797667,-2.091100441001643,14.433944219241287,10.125284671780689
1.1625933710697502,-1.6905974677806475,14.535197065959094,9.693542638191444
1.1456873963919438,-1.3124836385404395,14.63213249234101,9.32083838423574
1.1325625600065394,-0.961466497168187,14.725340876183367,9.008261471921722
1.1229478950348575,-0.6363543680905269,14.815423490902583,8.750447972490242
1.1165843513539522,-0.33388670230555556,14.902927970627486,8.540367577846396
1.1132454843308965,-0.050414571364041816,14.98833164640595,8.371255698307479
1.1127413386172562,0.21745237741267842,15.072044203389025,8.237236725225165
