th1 (rad),w1 (rad/s),th2 (rad),w2 (rad/s),a1 (rad/s^2),a2 (rad/s^2)
2.7220126527207342,-2.619835480096608,2.0043032571063617,2.620776727541509,-6.424000801509186,0.45968827845803945
2.6958142979197683,-2.6840754881117,2.0305110243817768,2.6253736103260894,-6.730171676525169,0.9594442494591849
2.668973543038651,-2.7513772048769516,2.056764760485038,2.6349680528206814,-7.052022323173879,1.4561979779456478
2.6414597709898815,-2.8218974281086906,2.0831144410132447,2.6495300326001376,-7.380181413800185,1.9363135887684515
2.6132407967087947,-2.8956992422466925,2.1096097413392463,2.668893168487822,-7.70155350087863,2.3804912668272546
2.584283804286328,-2.972714777255479,2.1362986730241245,2.6926980811560948,-7.9986449501666765,2.7627848269336357
2.554556656513773,-3.052701226757146,2.1632256538356853,2.720325929425431,-8.249211385807296,3.0500792086480946
2.5240296442462014,-3.135193340615219,2.1904289131299395,2.750826721511912,-8.426591740223406,3.20255175123921
2.492677710840049,-3.219459258017453,2.2179371803450585,2.782852239024304,-8.50120235602816,3.175796933595271
2.4604831182598748,-3.3044712815777344,2.2457657027353015,2.8146102083602567,-8.443657408238554,2.9252860379394834
2.4274384054440974,-3.3889078556601198,2.273911804818904,2.8438630687396516,-8.229717049519236,2.413458413488282
2.3935493268874963,-3.471205026155312,2.3023504355063005,2.8679976528745343,-7.846619467055359,1.6188241596955841
2.3588372766259433,-3.5496712208258656,2.331030412035046,2.88418589447149,-7.299380881800559,0.5450726960889288
2.3233405644176846,-3.6226650296438714,2.3598722709797606,2.8896366214323796,-6.614756104744925,-0.7730958402213955
2.287113914121246,-3.6888125906913207,2.3887686371940844,2.8819056630301656,-5.840475799179336,-2.270827068382582
2.250225788214333,-3.747217348683114,2.417587693824386,2.85919739234634,-5.038703775685497,-3.862203810178138
2.2127536147275015,-3.797604386439969,2.4461796677478493,2.8205753542445584,-4.275097142480149,-5.455665763483375
2.174777570863102,-3.8403553578647704,2.474385421290295,2.7660186966097244,-3.6070281778588935,-6.9707468166774795
2.1363740172844543,-3.8764256396433594,2.502045608256392,2.6963112284429496,-3.074917785738845,-8.350525333871504
2.097609760888021,-3.907174817500748,2.529008720540822,2.6128059751042345,-2.698949284349619,-9.566523919880314
2.0585380127130133,-3.934164310344244,2.555136780291864,2.517140735905431,-2.4809136628927813,-10.616342445695858
2.019196369609571,-3.958973446973172,2.5803081876509184,2.4109773114484727,-2.40917475650209,-11.51681444043298
1.9796066351398391,-3.983065194538193,2.604417960765403,2.2958091670441427,-2.464411179710277,-12.295974288033362
1.9397759831944572,-4.007709306335296,2.6273760524358445,2.172849424163809,-2.6244939451862317,-12.986156730671373
1.8996988901311043,-4.033954245787158,2.6491045466774827,2.0429878568570956,-2.867823619748157,-13.619201315652072
1.8593593476732326,-4.0626324819846396,2.6695344252460536,1.906795843700575,-3.1751617704714965,-14.223732781952247
1.8187330228533862,-4.094384099689354,2.6886023836830595,1.7645585158810526,-3.5303230501459977,-14.82401550563083
1.7777891818564926,-4.129687330190814,2.70624796884187,1.6163183608247442,-3.920147444948862,-15.439798270327595
1.7364923085545845,-4.168888804640303,2.7224111524501176,1.4619203781214682,-4.334091584640808,-16.086673468095114
1.6948034205081814,-4.212229720486711,2.7370303562313323,1.301053643440517,-4.763665369586081,-16.776629761934785
1.6526811233033143,-4.259866374182572,2.7500408926657376,1.1332873458211692,-5.201843888633715,-17.518610986843647
1.6100824595614887,-4.311884813068909,2.7613737661239495,0.9581012359527328,-5.642517928827605,-18.318987617435692
1.5669636114307997,-4.368309992357185,2.770954778483477,0.7749113597783759,-6.080006372327089,-19.181904319673837
1.5232805115072279,-4.4291100560804555,2.7787038920812606,0.5830923165816375,-6.508632879600161,-20.109498419093697
1.4789894109464232,-4.4941963848764575,2.784534815247077,0.38199733239070055,-6.922360402174663,-21.101999493972087
1.4340474470976587,-4.563419988898204,2.7883547885709836,0.17097733745097968,-7.314475139183519,-22.15772700754716
1.3884132472086768,-4.636564740290039,2.7900645619454933,-0.05059993262449192,-7.677313312559891,-23.273005575210437
1.3420475998057764,-4.713337873415638,2.7895585626192485,-0.2833299883765963,-8.002027704417863,-24.442018810946596
1.29491422107162,-4.793358150459817,2.7867252627354824,-0.5277501764860623,-8.278395232618104,-25.656624103924027
1.2469806395670218,-4.876142102785997,2.7814477609706216,-0.7843164175253026,-8.49467134120052,-26.906152707655018
1.1982192185391618,-4.961088816198003,2.7736045967953684,-1.0533779446018527,-8.637501248609926,-28.177222214478512
1.1486083303771817,-5.047463828684102,2.76307081734935,-1.335150166746638,-8.691901767286993,-29.45359150516377
1.0981336920903406,-5.1343828463569725,2.7497193156818835,-1.6296860817982757,-8.64133009004965,-30.71609100974334
1.046789863626771,-5.220796147257469,2.733422454863901,-1.9368469918957092,-8.467857193668694,-31.94266281318128
0.9945819021541963,-5.305474719194156,2.7140539849449437,-2.256273620027522,-8.152462892031425,-33.108544933924975
0.9415271549622547,-5.38699934811447,2.6914912487446685,-2.5873590693667716,-7.6754667011991495,-34.18663120651211
0.88765716148111,-5.463754015126462,2.665617658051001,-2.929225381431893,-7.017103338839752,-35.14803206348009
0.8330196213298453,-5.533925048514859,2.636325404236682,-3.280705702066694,-6.15824389840486,-35.96285200386509
0.7776803708446968,-5.5955074874989075,2.6035183472160153,-3.640334222105345,-5.0812538207546165,-36.6011870529084
0.7217252959697077,-5.646320025706453,2.567115004994962,-4.006346092634429,-3.7709672676511374,-37.03433097554872
0.6652620957126432,-5.684029698382965,2.527051544068618,-4.376689402389916,-2.2157449975633963,-37.23616364777568
0.6084217987288135,-5.706187148358598,2.4832846500447188,-4.749051038867672,-0.4085698396934657,-37.184680025840684
0.5513599272452275,-5.710272846755533,2.435794139656042,-5.120897839126079,1.6518794621828508,-36.86360433658318
0.4942571987776722,-5.693754052133705,2.384585161264781,-5.48953388249191,3.9602490277611904,-36.2640214450022
0.4373196582563352,-5.654151561856093,2.329689822439862,-5.8521740969419325,6.503712532977988,-35.38594517458939
0.38077814263777426,-5.589114436526313,2.2711680814704427,-6.206033548687826,9.26145735254586,-34.23973097318369
0.3248869982725111,-5.496499863000855,2.2091077459835646,-6.548430858419663,12.204567704122226,-32.84722817443237
0.2699219996425026,-5.374454185959633,2.143623437399368,-6.876903140163987,15.296423729169398,-31.242558083362614
0.21617745778290626,-5.221489948667939,2.074854405997728,-7.189328720997612,18.493727653016922,-29.47240431037991
0.16396255829622686,-5.03655267213777,2.002961118787752,-7.484052764101412,21.748239941899666,-27.59571995167266
0.11359703157484916,-4.819070272718773,1.928120591146738,-7.760009963618138,25.009254607452664,-25.682801400001704
0.06540632884766143,-4.568977726644246,1.8505204915105566,-8.016837977618156,28.22676421428956,-23.813756084409825
0.01971655158121896,-4.286710084501351,1.770352111734375,-8.254975538462254,31.35517128147858,-22.076498533640933
-0.023150549263794548,-3.9731583716865653,1.6878023563497524,-8.475740523798663,34.35731241862758,-20.564532342301128
-0.0628821329806602,-3.6295852475002897,1.6030449511117657,-8.681385847221675,37.20849887484425,-19.374891482095578
-0.09917798545566309,-3.257500258751847,1.516231092639549,-8.87513476204263,39.90026348233734,-18.606694273534956
-0.13175298804318156,-2.8584976239284736,1.4274797450191228,-9.06120170477798,42.44354637226361,-18.36077926051326
-0.1603379642824663,-2.4340621602058374,1.336867727971343,-9.244809497383113,44.87113102891541,-18.740818317257254
-0.18467858588452468,-1.9853508499166834,1.244419632997512,-9.432217680555684,47.23919843317909,-19.856101646442827
-0.20453209438369152,-1.5129588655848925,1.150097456191955,-9.630778697020112,49.62777504521975,-21.825770141005297
-0.21966168303954045,-1.0166811151326949,1.0537896692217539,-9.849036398430165,52.13935744775254,-24.783378742156124
-0.2298284941908674,-0.49528754065516944,0.9552993052374522,-10.096870185851726,54.89356083993567,-28.87864480412976
-0.2347813695974191,0.05364806774418729,0.854330603378935,-10.385656633893024,58.01203408443971,-34.26842108172282
-0.23424488891997722,0.6337684085885844,0.7504740370400047,-10.728340844710253,61.57931316031541,-41.07744191501288
-0.22790720483409138,1.2495615401917384,0.6431906285929022,-11.139115263860383,65.54573035562157,-49.282698187892905
-0.215411589432174,1.9050188437479543,0.5317994759542983,-11.631942245739312,69.49751564723665,-58.41823062587795
-0.19636140099469446,2.599994000220321,0.4154800534969052,-12.216124551998092,72.15284706750803,-66.90205189690867
-0.17036146099249125,3.321522470895401,0.2933188079769243,-12.885145070967178,70.43583701065238,-70.76639299443686
-0.13714623628353723,4.025880841001925,0.16446735726725248,-13.592809000911547,58.53041913569431,-62.30747184656831
-0.09688742787351798,4.611185032358868,0.02853926725813699,-14.21588371937723,29.630086888628192,-32.33693507581927
-0.05077557754992929,4.90748590124515,-0.1136195699356353,-14.539253070135421,-14.840933205551943,17.43521642116131
-0.0017007185374777883,4.759076569189631,-0.25901210063698954,-14.364900905923808,-56.801806535140116,63.20549140612511
0.04589004715441852,4.19105850383823,-0.4026611096962276,-13.732845991862556,-78.28529320963358,81.99856678646552
0.08780063219280082,3.408205571741894,-0.5399895696148531,-12.9128603239979,-81.23142963377614,77.60393723183164
0.12188268791021976,2.5958912754041323,-0.6691181728548321,-12.136820951679585,-76.22652285624794,64.46791421088808
0.14784160066426108,1.833626046841653,-0.7904863823716279,-11.492141809570704,-69.75262492846001,50.910044994929876
0.1661778611326776,1.136099797557053,-0.9054078004673349,-10.983041359621405,-64.02775864103462,39.494818965132055
0.17753885910824813,0.49582221114670677,-1.015238214063549,-10.588093169970085,-59.45524795986234,30.498384061508748
0.1824970812197152,-0.09873026845191668,-1.12111914576325,-10.283109329354998,-55.887883079658025,23.59026669340047
0.18150977853519604,-0.657609099248497,-1.2239502390567998,-10.047206662420994,-53.06619049003443,18.37680687372725
0.17493368754271107,-1.1882710041488411,-1.3244223056810096,-9.863438593683721,-50.743985804654095,14.534541425382777
0.16305097750122266,-1.695710862195382,-1.4230566916178469,-9.718093179429893,-48.7154558724318,11.822470499776882
0.14609386887926884,-2.1828654209197,-1.5202376234121457,-9.599868474432125,-46.815202587534095,10.064952961922732
0.12426521467007184,-2.651017446795041,-1.616236308156467,-9.499218944812897,-44.9130078893093,9.13138107945689
0.09775504020212143,-3.1001475256881337,-1.711228497604596,-9.407905134018328,-42.90920839386108,8.919038342696114
0.0667535649452401,-3.5292396096267447,-1.8053075489447792,-9.318714750591367,-40.73167239268965,9.340075560211702
0.03146116884897265,-3.936556333553641,-1.8984946964506928,-9.22531399498925,-38.333947681992555,10.312280578504701
-0.007904394486563764,-4.319895810373566,-1.9907478364005853,-9.122191189204203,-35.69383267923774,11.75317356589536
-0.051103352590299425,-4.676834137165944,-2.0819697482926274,-9.00465945354525,-32.81168631850807,13.577006896208157
-0.09787169396195886,-5.004951000351024,-2.17201634282808,-8.868889384583168,-29.708007815673913,15.694239762561143
-0.1479212039654691,-5.302031078507763,-2.2607052366739118,-8.711946986957557,-26.42009823128206,18.012969851198623
-0.20094151475054672,-5.5662320608205835,-2.3478247065434874,-8.53181728844557,-22.99790105288701,20.44169087746332
-0.25660383535875253,-5.796211071349454,-2.433142879427943,-8.327400379670937,-19.499350488186057,22.892674716110502
-0.3145659460722471,-5.991204576231315,-2.5164168832246525,-8.098473632509831,-15.985686504525997,25.285301100230264
-0.3744779918345602,-6.151061441276575,-2.5974016195497507,-7.845620621507528,-12.51720397876505,27.54878944746831
-0.43598860624732594,-6.276233481064225,-2.675857825764826,-7.570132727032846,-9.149802917362098,29.623998923149394
-0.4987509410579682,-6.367731510237847,-2.7515591530351546,-7.273892737801352,-5.932539263034582,31.464200341948235
-0.5624282561603466,-6.427056902868192,-2.8242980804131683,-6.959250734381869,-2.9061949705749823,33.03492898677092
-0.6266988251890285,-6.456118852573942,-2.893890587756987,-6.62890144451416,-0.10273859772503256,34.31315980089376
-0.691260013714768,-6.457146238551193,-2.9601796022021287,-6.285769846505222,2.454539360584437,35.28609203512047
-0.7558314761002799,-6.432600844945348,-3.023037300667181,-5.932908926154017,4.750454645805838,35.94980146207781
-0.8201574845497334,-6.38509629848729,-3.0823663899287213,-5.573410911533239,6.777130680013975,36.307942722782215
-0.8840084475346063,-6.31732499168715,-3.1381004990440537,-5.210331484305417,8.533125719408973,36.370593985752315
-0.9471816974514777,-6.23199373449306,-3.190203813887108,-4.846625544447894,10.022574068779589,36.15325686805655
-1.0095016347964083,-6.131767993805265,-3.2386700693315866,-4.485092975767329,11.25437529716235,35.675971968579844
-1.070819314734461,-6.019224240833641,-3.28352099908926,-4.128333256081531,12.241429375954787,34.96248890686818
-1.1310115571427972,-5.896809947074093,-3.3248043316500753,-3.778708367012849,12.999899597696185,34.03943531426284
-1.189979656613538,-5.766810951097131,-3.3625914153202037,-3.4383140138702206,13.548485457649361,32.935452523782715
-1.2476477661245093,-5.631326096520637,-3.3969745554589057,-3.1089594886323937,13.907698154965676,31.68029588930573
-1.3039610270897157,-5.4922491149709805,-3.4280641503452296,-2.7921565297393363,14.099145335154226,30.303925132187263
-1.3588835182394254,-5.351257661619438,-3.455985715642623,-2.4891172784174636,14.14484371464573,28.835628351331177
-1.4123960948556198,-5.209809224472981,-3.4808768884267978,-2.200760994904152,14.06658498618342,27.30322960214888
-1.4644941871003496,-5.069143374611146,-3.502884498375839,-1.927728698882663,13.885380866033762,25.73242495116752
-1.5151856208464611,-4.930289565950808,-3.522161785364666,-1.6704044493709878,13.621008139008637,24.146278739213074
-1.5644885165059692,-4.794079484560722,-3.5388658298583757,-1.428941661978857,13.291666035353463,22.56489458553856
-1.6124293113515764,-4.661162824207188,-3.5531552464781644,-1.2032927161234714,12.913748515351418,21.00525841945302
-1.6590409395936483,-4.532025339053674,-3.565188173639399,-0.9932401319289412,12.501725025703635,19.481236517319427
-1.704361192984185,-4.407008088796638,-3.5751205749586883,-0.7984277667557469,12.06811635390772,18.00370178706408
-1.7484312738721515,-4.28632692525756,-3.5831048526262457,-0.6183907488851061,11.623547929804406,16.58075673960871
-1.7912945431247271,-4.170091445959516,-3.589288760115097,-0.45258318148901905,11.176861266375283,15.218021132355005
-1.8329954575843224,-4.058322833295763,-3.593814591929987,-0.300402970165469,10.73526473842282,13.918955055057648
-1.87357868591728,-3.9509701859115345,-3.5968186216316416,-0.16121341961489255,10.304506919775054,12.685192997929878
-1.9130883877763953,-3.847925116713784,-3.5984307558277906,-0.03436148963559377,9.889058576611433,11.516870061299853
-1.9515676389435332,-3.74903453094767,-3.5987743707241466,0.08080721097740477,9.49229258697478,10.41292706411612
-1.9890579842530098,-3.654111605077922,-3.597966298614373,0.18493648161856596,9.116654116716626,9.371386314933792
-2.025599100303789,-3.562945063910756,-3.596116933798187,0.2786503447679039,8.763816077663558,8.389593925379655
-2.0612285509428965,-3.47530690313412,-3.593330430350508,0.36254628402170047,8.434817104131916,7.464427683333481
-2.095981619974238,-3.390958732092801,-3.5897049675102912,0.43719056085503527,8.130180985489767,6.5924717112651585
-2.1298912072951657,-3.3096569222379033,-3.585333061901741,0.5031152779676868,7.85001772376464,5.770160542040819
-2.1629877765175447,-3.231156745000257,-3.5803019091220643,0.560816883388095,7.594107217742905,4.9938960087156055
-2.1952993439675472,-3.1552156728228278,-3.574693740288183,0.610755843475251,7.361967091627608,4.260140625085366
-2.2268515006957754,-3.0815960019065516,-3.568586181853431,0.6533572497261046,7.152906467937844,3.5654910713940313
-2.257667460714841,-3.0100669372271733,-3.56205260935617,0.689012160440045,6.966067601805453,2.90673511100006
-2.287768130087113,-2.9404062612091186,-3.5551624877517694,0.7180795115500456,6.800457304619636,2.28089483952957
-2.317172192699204,-2.872401688162922,-3.547981692636269,0.7408884599453412,6.654970032469231,1.6852586755304195
-2.3458962095808333,-2.80585198783823,-3.5405728080368153,0.7577410467006455,6.528404429196052,1.1174039897566765
-2.3739547294592156,-2.7405679435462695,-3.5329953975698087,0.7689150865982122,6.419475013627675,0.57521177414504
-2.4013604088946785,-2.676373193409993,-3.5253062467038268,0.7746672043396625,6.326820594453656,0.05687429726397022
-2.4281241408287784,-2.6131049874654564,-3.5175595746604302,0.7752359473123023,6.249010885126054,-0.43910369917179565
-2.454255190703433,-2.550614878614196,-3.5098072151873074,0.7708449103205843,6.184552670052038,-0.9139100212035467
-2.479761339489575,-2.4887693519136755,-3.5020987660841016,0.7617058101085489,6.131896733247956,-1.368436238551938
-2.504649033008712,-2.427450384581196,-3.494481707983016,0.7480214477230295,6.089446590889553,-1.8032951858630282
-2.5289235368545238,-2.3665559186723004,-3.487001493505786,0.7299884958643992,6.05556985990544,-2.2188448370992395
-2.5525890960412467,-2.306000220073246,-3.479701608547142,0.7078000474934067,6.028612839321932,-2.6152185204528147
-2.5756490982419793,-2.2457140916800267,-3.4726236080722077,0.6816478622888786,6.006918578728754,-2.9923612085977465
-2.5981062391587795,-2.185644905892739,-3.465807129449319,0.6517242502029011,5.988848366209384,-3.3500712913465733
-2.619962688217707,-2.125756422230645,-3.45928988694729,0.6182235372894354,5.9728062027601245,-3.6880468442859136
-2.6412202524400135,-2.066028360203044,-3.4531076515743955,0.5813430688465762,5.957265467012205,-4.0059349893262315
-2.661880536042044,-2.006455705532922,-3.44729422088593,0.5412837189533138,5.940796645465777,-4.303382552324131
-2.681945093097373,-1.9470477390782643,-3.441881383696397,0.49824989343007253,5.922094745275817,-4.580085914150905
-2.7014155704881557,-1.8878267916255063,-3.4368988847620963,0.4524490342885635,5.900004852824316,-4.8358377766650875
-2.7202938384044106,-1.8288267430972631,-3.4323743944192104,0.4040906565219126,5.873544277950484,-5.070568564243441
-2.738582105835383,-1.7700913003177583,-3.4283334878539913,0.3533849708794782,5.8419198435347806,-5.284380375694746
-2.7562830188385607,-1.7116721018824106,-3.4247996381451964,0.3005411671225307,5.80453913878584,-5.477571786669431
-2.7733997398573846,-1.6536267104945521,-3.421794226473971,0.24576544925583638,5.76101492960369,-5.650652349096031
-2.7899360069623302,-1.5960165611985153,-3.4193365719814124,0.18925892576487607,5.71116237251088,-5.804346288826717
-2.8058961725743155,-1.5389049374734065,-3.4174439827237637,0.1312154628766089,5.654989161066227,-5.9395855972909315
-2.8212852219490494,-1.4823550458627441,-3.4161318280949975,0.0718196069036996,5.592679193450389,-6.057493374354752
-2.836108772407677,-1.4264282539282402,-3.4154136320259605,0.011244673160152076,5.52457073980098,-6.159358840906334
-2.8503730549469593,-1.3711825465302305,-3.415301185294359,-0.05034891524891127,5.4511303721520505,-6.246605850139264
-2.8640848804122614,-1.31667124280871,-3.415804674446848,-0.11281497375030392,5.372924078687267,-6.3207569577091745
-2.8772515928403486,-1.2629420020218374,-3.416932824184351,-0.17602254332739564,5.290587014884351,-6.383395158943275
-2.8898810128605668,-1.210036131872994,-3.418693049617625,-0.2398564949168284,5.204793260028078,-6.436125284295652
