th1 (rad),w1 (rad/s),th2 (rad),w2 (rad/s)
1.5755750790565204,2.6065989501233995,4.626445514932943,-0.37678929356715685
1.6016410685577545,2.5026892347753913,4.622677621997271,-0.38878893189040953
1.6266679609055084,2.397899329795124,4.6187897326783665,-0.40274505394944754
1.6506469542034596,2.292793602310187,4.614762282138872,-0.41767031184742004
1.6735748902265615,2.1878628793129113,4.610585579020398,-0.43270035869534523
1.6954535190196907,2.083521688380026,4.606258575433444,-0.44709765903037885
1.7162887359034908,1.980109033009185,4.60178759884314,-0.4602498223097111
1.7360898262335827,1.877891887357906,4.5971851006200435,-0.4716637420767789
1.7548687451071616,1.7770706283700137,4.592468463199276,-0.48095677358343
1.7726394513908617,1.677785703380736,4.587658895463441,-0.48784605399091485
1.789417308424669,1.580124938490137,4.582780434923532,-0.492136895689239
1.8052185578095703,1.4841310108749823,4.57785906596664,-0.493710992632906
1.8200598679183202,1.3898087243743928,4.572921956040311,-0.49251499265428694
1.8339579551620642,1.2971318337337998,4.567996806113768,-0.488549819275487
1.846929273499402,1.2060492539697645,4.563111307921012,-0.48186098230991864
1.8589897660390997,1.1164905654253845,4.5582926980979135,-0.4725300004453039
1.8701546716933535,1.0283707823091262,4.553567398093461,-0.4606669705281509
1.8804383795164448,0.9415943942962318,4.548960728388179,-0.44640425476043266
1.8898543234594072,0.8560587193171665,4.544496685840575,-0.4298912146751819
1.898414910652579,0.7716566234396777,4.540197773693824,-0.41128989541574384
1.9061314768869757,0.6882786732080209,4.536084874739666,-0.3907715514857274
1.913014263619056,0.6058147891371863,4.532177159224809,-0.3685139021897637
1.9190724115104278,0.5241554681407636,4.528492020202911,-0.3446990084574004
1.9243139661918356,0.4431926390064442,4.525045030118338,-0.319511670250793
1.9287458925819,0.36282020978658563,4.52184991341583,-0.29313825348542777
1.932374094679766,0.2829343600030184,4.518918530880975,-0.2657658660161572
1.9352034382797962,0.20343362448409852,4.516260872220814,-0.23758181283262303
1.9372377745246372,0.12421880986803795,4.513885054092487,-0.20877327055424932
1.9384799626233176,0.04519277957987884,4.511797321386944,-0.17952713023265393
1.9389318904191164,-0.033739861428095805,4.510002050084617,-0.15002996514053935
1.9385944918048355,-0.11267315461375348,4.508501750433212,-0.12046808654400454
1.9374677602586978,-0.19170022381640572,4.507297069567772,-0.09102765538287488
1.9355507580205338,-0.27091373671510094,4.506386793013943,-0.061894821323786264
1.9328416206533827,-0.35040637051817314,4.5057678448007055,-0.03325586282435314
1.929337556948201,-0.43027126112987957,4.505435286172462,-0.005297302679001185
1.925034844336902,-0.5106024147668715,4.505382313145672,0.021794026970636135
1.9199288201892333,-0.5914950599609136,4.505600253415379,0.04783099797077048
1.914013869589624,-0.6730459160935431,4.506078563395087,0.07262630873447994
1.9072834104286887,-0.7553533520735396,4.506804826482432,0.09599275133646934
1.8997298769079534,-0.8385174055081157,4.507764753995796,0.1177436640301208
1.8913447028528723,-0.9226396287723213,4.508942190636097,0.13769361693716847
1.882118306565149,-1.0078227238218607,4.510319126805469,0.15565938660759338
1.8720400793269305,-1.0941699225511856,4.511875720671545,0.1714612840077694
1.8610983801014187,-1.1817840641812336,4.513590333511623,0.18492490995234112
1.8492805394596064,-1.2707663158922966,4.515439582611147,0.1958834215564927
1.8365728763006834,-1.3612144781703115,4.517398416826712,0.20418040221834638
1.8229607315189804,-1.4532208127744481,4.519440220848895,0.20967343490592577
1.8084285233912358,-1.5468693297600924,4.521536955197955,0.2122384826967623
1.792959830093635,-1.6422324717770216,4.523659340024922,0.2117751797262599
1.7765375053758647,-1.7393671403781106,4.525777091822185,0.20821312756591934
1.7591438339720837,-1.8383100220849775,4.5278592230978445,0.20151927368274966
1.7407607337512339,-1.939072193478111,4.529874415834672,0.1917064166778378
1.7213700118164528,-2.041633016761591,4.53179148000145,0.1788428338214269
1.7009536816488369,-2.1459333821843383,4.533579908339664,0.16306295636395693
1.6794943478269935,-2.2518684130963122,4.535210537903304,0.14457892408546177
1.6569756636960304,-2.3592798241943265,4.536656327144159,0.12369273064338596
1.6333828654540872,-2.4679482132446005,4.5378932544505926,0.10080852572107214
1.608703383321641,-2.5775856688841725,4.538901339707803,0.07644447221670722
1.5829275266327993,-2.6878291870681297,4.53966578442997,0.05124337455516792
1.556049234762118,-2.798235498360054,4.540178218175522,0.025981110824926684
1.5280668797785175,-2.9082780062922913,4.540438029283772,0.001571735984666242
1.4989840997155945,-3.0173466090809087,4.540453746643618,-0.020931999107792233
1.4688106336247855,-3.1247512063038045,4.54024442665254,-0.0403440177262281
1.4375631215617475,-3.2297296608676023,4.539840986475278,-0.05535742550170898
1.4052658249530714,-3.3314608775389374,4.539287412220261,-0.06456521313822519
1.3719512161776821,-3.4290834582818146,4.538641760088879,-0.06648985363967744
1.337660381594864,-3.5217200928702224,4.537976861552482,-0.059621958837442264
1.3024431806661618,-3.6085074401891326,4.537380641964107,-0.04246744713085496
1.2663581062642706,-3.6886307620006153,4.536955967492799,-0.013601808257092063
1.2294717986442645,-3.7613620120887306,4.536819949410227,0.028270914857448683
1.1918581785233773,-3.8260995031507687,4.537102658558802,0.08425778516378565
1.1535971834918697,-3.882406735988979,4.53794523641044,0.15521949728942974
1.1147731161319798,-3.9300475654571376,4.539497431383334,0.2417206012759615
1.0754726404774084,-3.9690146943834086,4.5419146373960935,0.3439924329970734
1.0357824935335744,-3.99954862824892,4.5453545617260644,0.4619133613345747
0.9957870072510853,-4.022144761424236,4.5499736953394105,0.5950098990035799
0.9555655596368429,-4.037547215107896,4.555923794329447,0.7424805147990973
0.9151900874857639,-4.046729339429349,4.563348599477438,0.9032417898281917
0.8747227940914705,-4.050862267020701,4.57238101737572,1.0759941819165684
0.8342141714212634,-4.051274329800534,4.5831409591948855,1.259302502042899
0.7937014281232581,-4.0494052691620155,4.595733984215315,1.4516846748059622
0.753207375431638,-4.046759771767401,4.610250830963374,1.6517017617368897
0.7127397777139639,-4.044864845749425,4.6267678485807435,1.8580426904656762
0.6722911292564696,-4.045234951992688,4.6453482754854,2.0695985457946144
0.6318387797365428,-4.0493477871399435,4.666044260943346,2.285523340418552
0.5913453018651433,-4.058632421724635,4.688899494347532,2.505280494776032
0.5507589776478969,-4.074470380672498,4.7139522992952925,2.728676434371667
0.5100142738411719,-4.098209415818883,4.741239063639009,2.9558844849391734
0.4690321796829831,-4.1311892775595584,4.770797908488401,3.1874634916115316
0.4277202869073875,-4.174778773337312,4.802672543404516,3.4243763361416146
0.3859724991740144,-4.230423762266764,4.836916306765932,3.6680139065869937
0.3436682615513467,-4.299706389133584,4.873596445831802,3.920230253674881
0.3006711976600109,-4.38441668133183,4.912798748368551,4.183394775180197
0.25682703084669256,-4.486638427445492,4.954632696120353,4.46046729553115
0.21196064657223765,-4.608851663876429,4.999237369075664,4.75510153820003
0.16587212993347336,-4.754053317106981,5.046788384457664,5.071780737575366
0.11833159676240354,-4.92589372221184,5.097506191833418,5.415983498552646
0.06907265954028513,-5.128815484421633,5.151666026818944,5.794362461214351
0.0177845046960688,-5.3681522068652985,5.209609651431087,6.214878650528672
-0.03589701737258419,-5.650074176320938,5.2717584379363736,6.686737503976244
-0.09239775913579357,-5.981102496442164,5.338625812976136,7.219743583939054
-0.1522087841002152,-6.3665398199247285,5.410823248815526,7.822172262407447
-0.21587418229946248,-6.80639462586512,5.489044971439601,8.49518042645668
-0.2839381285581137,-7.286123617950299,5.573996775704168,9.220021481986572
-0.35679936473761664,-7.759067360143405,5.666196990524034,9.933674383710354
-0.4343900383390507,-8.124729692816627,5.765533734361137,10.498610462682336
-0.515637335267217,-8.236171155773206,5.87051983898796,10.713058743503938
-0.5979990468249491,-7.993851439128276,5.977650426422999,10.441598624043023
-0.6779375612162318,-7.464945489080617,6.082066412663429,9.78039412927112
-0.752587016107038,-6.827446554632959,6.17987035395614,8.977824619305327
-0.8208614816533677,-6.213973191682566,6.269648600149194,8.217453599679157
-0.8830012135701933,-5.673062238663833,6.351823136145985,7.565817042781831
-0.9397318359568316,-5.207932041850708,6.427481306573803,7.027064764755654
-0.9918111563753387,-4.807402324555939,6.49775195422136,6.585893660132832
-1.039885179620898,-4.458380187183327,6.563610890822688,6.224699130245968
-1.0844689814927313,-4.149463807878787,6.625857882125148,5.928435422511174
-1.1259636195715192,-3.8715014854874,6.685142236350259,5.685306535408428
-1.1646786344263933,-3.617309103255086,6.7419953017043435,5.4863241244202845
-1.2008517254589441,-3.3812469467474178,6.796858542948546,5.324686998743972
-1.2346641949264183,-3.1588479790283603,6.850105412935986,5.195237494006584
-1.266252674716702,-2.94653252195002,6.902057787876052,5.094036346056684
-1.2957179999362023,-2.7414012535893404,6.952998151336619,5.018040305979414
-1.3231320124720958,-2.541090394965269,7.003178554396413,4.964856769442751
-1.3485429164217484,-2.3436745618414707,7.052827122090841,4.932552610519671
-1.3719796620401632,-2.1476061517407516,7.1021526481960375,4.91949975457406
-1.3934557235575706,-1.9516830747061047,7.151347645741778,4.924245001333522
-1.4129725543046316,-1.7550385998698488,7.200590095755113,4.94539578004102
-1.4305229403033302,-1.557148047358481,7.2500440535555235,4.981517096263626
-1.446094420776915,-1.3578470928007755,7.29985922451816,5.031038225909747
-1.4596728917049229,-1.1573557008840512,7.350169606777258,5.092170940128974
-1.4712464487137633,-0.9563003772402255,7.401091316178547,5.1628442194122055
-1.4808094524861655,-0.7557258923019823,7.45271975837267,5.240663270091847
-1.4883667114091852,-0.5570864763678707,7.505126391073588,5.322902592546225
-1.493937576172864,-0.36220652375429463,7.558355416999051,5.406542970521711
-1.4975596414104069,-0.17320297336099003,7.612420846704268,5.4883595627118895
-1.4992916711440167,0.007633585644490959,7.667304442331386,5.565062119291212
-1.499215335287572,0.17799444894554436,7.7229550635242985,5.633478975211946
-1.4974353907981164,0.33573123871758254,7.779289853276418,5.690765566521271
-1.4940780784109406,0.4790352947576165,7.8361975089416305,5.734608872913267
-1.4892877254633645,0.6065917023095431,7.893543597670763,5.763395080889734
-1.483221808440269,0.7176834994321512,7.95117754847966,5.776311541636457
-1.4760449734459475,0.8122300420475534,8.008940663896025,5.773365805196588
-1.467922673025472,0.890756344593954,8.06667432194799,5.755321034162755
-1.4590151095795325,0.9543034809355104,8.124227532289618,5.723563291395901
-1.4494720747701775,1.0042997956468465,8.181463165203578,5.679927169160267
-1.439429076813709,1.0424163983892853,8.23826243689518,5.626509452434009
-1.4290049128298161,1.070428265781295,8.29452753141952,5.565496533468084
-1.4183006301720031,1.090096213010277,8.3501824967542,5.4990228861810335
-1.4073996680419003,1.1030776355552696,8.40517272561601,5.42906843195148
-1.3963688916863477,1.110867406665892,8.459463409935525,5.357394668747495
-1.3852602176196889,1.114765789442457,8.513037356623,5.285514226398468
-1.3741125597252644,1.1158678662178698,8.565892498886985,5.21468608999737
-1.3629538810630857,1.1150683861174828,8.618039359786959,5.14592844810345
-1.3518031972019109,1.113076455252571,8.669498644267993,5.080042123603299
-1.340672432649385,1.1104355635514362,8.720299065504026,5.017639099449371
-1.3295680770138707,1.107545642476721,8.77047545649852,4.959172261093181
-1.3184926205891034,1.1046849384555852,8.820067179109452,4.90496387341762
-1.3074457712045475,1.1020303634249886,8.86911681784363,4.855231391948113
-1.2964254675702975,1.0996756283361901,8.91766913176311,4.8101099766345845
-1.2854287112869356,1.097646904246384,8.965770231529456,4.769671580182037
-1.2744522422444717,1.0959160318709953,9.013466947331276,4.733940784763717
-1.2634930819257617,1.094411458151906,9.060806355178913,4.702907720431519
-1.2525489673442427,1.093027155098248,9.10783543238323,4.676538464189533
-1.2416186957932602,1.0916298009115806,9.154600817025125,4.654783326740038
-1.2307023977841445,1.0900644971190685,9.201148650292525,4.637583409622705
-1.2198017528129539,1.088159272323749,9.247524484388753,4.624875775500601
-1.2089201600897164,1.085728592414239,9.293773242143759,4.6165975290639505
-1.1980628741655739,1.0825760642514506,9.339939217434399,4.612689061454945
-1.1872371135230593,1.078496488140769,9.386066108048949,4.613096670453258
-1.1764521486416515,1.0732773854131947,9.432197074753482,4.617774733315303
-1.1657193747875196,1.0667001018209372,9.478374822086636,4.62668757949249
-1.1550523737693104,1.0585405652830853,9.524641697881561,4.639811186247783
-1.1444669681164794,1.0485697575782678,9.57103980974404,4.65713480094511
-1.1339812705406966,1.0365539435259246,9.61761115775349,4.678662578892525
-1.1236157311054373,1.022254687652166,9.664397783542416,4.704415314452711
-1.1133931842289158,1.0054286769673852,9.711441936686944,4.734432335094213
-1.103338897459242,0.9858273590460837,9.758786260037885,4.768773622574155
-1.093480623868781,0.9631963969799764,9.806473996263627,4.807522221951522
-1.0838486598989814,0.9372749370375892,9.854549218483141,4.8507869970094655
-1.0744759105286055,0.907794681320716,9.903057088453236,4.898705789148727
-1.0653979637153983,0.8744787570318925,9.952044146344724,4.951449034839567
-1.0566531761450795,0.837040377360389,10.001558636693119,5.0092238926949335
-1.0482827723714756,0.7951812984677671,10.051650875620068,5.072278922662662
-1.040330959386798,0.7485900958673873,10.102373664846693,5.140909342752453
-1.0328450584281241,0.6969403168575737,10.153782758274218,5.215462856710729
-1.0258756552595485,0.6398886218715378,10.205937386841326,5.296345988794366
-1.019476769040833,0.5770731197930111,10.258900846729269,5.384030762577764
-1.013706037842903,0.5081122512870431,10.312741154355047,5.479061392626644
-1.0086249153300326,0.432604812986644,10.367531768281314,5.582060377546718
-1.0042988672001663,0.35013209600107387,10.423352372056781,5.693732920903914
-1.0007975462401555,0.2602637162771839,10.48028970126582,5.814867852294606
-0.9981949090773836,0.16256966822782415,10.538438379788765,5.946332000792696
-0.9965692123951054,0.0566426280156358,10.597901699796692,6.089053020332522
-0.9960027861149491,-0.05786315347548862,10.658792230000017,6.243982587236861
-0.996581417649704,-0.1811665244501815,10.721232055872386,6.41202714381419
-0.9983930828942058,-0.3132527243950026,10.785352327310529,6.593926319645477
-1.0015256101381558,-0.4537034230787065,10.851291590506984,6.790049402300836
-1.0060626443689429,-0.6014335679234336,10.919192084529993,7.000068456337736
-1.0120769800481773,-0.7542991788154979,10.98919276909337,7.2224570548394285
-1.0196199718363321,-0.9085459571642155,11.061417339641764,7.453768624628423
-1.0287054314079742,-1.058107533462731,11.135955025888048,7.6876971811876835
-1.0392865067426016,-1.1938724158052816,11.212831997699926,7.914067798725309
-1.0512252309006545,-1.3032604967306578,11.291972675687179,8.118200920025378
-1.064257835867961,-1.370752804517457,11.373154684887432,8.28150527833985
-1.0779653639131357,-1.3801448820983384,11.45596973767083,8.384332553661208
-1.0917668127341191,-1.3186984500296142,11.539813063207443,8.411332097866017
-1.1049537972344152,-1.1817701003402794,11.623926384186104,8.357402732713402
-1.116771498237818,-0.9750657657048736,11.707500411513239,8.23044399231004
-1.1265221558948668,-0.7126202212936941,11.78980485143634,8.04844958054732
-1.1336483581078038,-0.41179815531559605,11.870289347241814,7.8328016363346
-1.1377663396609599,-0.08856109178412763,11.948617363605159,7.602138828780983
-1.138651950578801,0.24494564752247855,12.024638751892969,7.3694405825986165
-1.1362024941035762,0.580622890203033,12.098333157718955,7.1420053293232115
-1.1303962652015458,0.913563083014298,12.169753211012187,6.922783313649716
-1.1212606343714029,1.2409962695465055,12.238981044148684,6.711883673118547
-1.1088506716759379,1.561431028210281,12.30609988087987,6.507762256907524
-1.093236361393835,1.8740679006948762,12.371177503448946,6.308019540416384
-1.074495682386886,2.1784392252349685,12.43425769885311,6.109892115820645
-1.0527112901345363,2.4742067912957717,12.495356620011316,5.910540961421686
-1.0279692222215786,2.7610608911820433,12.554462029625533,5.707216508631737
-1.0003586133097582,3.038681912969532,12.61153419471185,5.49735294207555
-0.9699717941800629,3.3067396553012873,12.666507724132606,5.278623051501133
-0.93690439762705,3.564914923707654,12.719293954647616,5.048971025712136
-0.9012552483899735,3.812933731802927,12.769783664904738,4.806632028251282
-0.8631259110719443,4.050607823273926,12.81784998518725,4.550142385633129
-0.822619832839205,4.2778772027131025,12.863351409043581,4.278341438914846
-0.779841060812074,4.494851543562109,12.90613482343273,3.990364730290571
-0.734892545376453,4.701848112768232,12.946038470735635,3.6856277243087123
-0.6878740642487706,4.899424426127377,12.982894747978722,3.3637994111788836
-0.6388798199874969,5.088404316278944,13.016532742090511,3.024765746616685
-0.5879957768247075,5.269896452558662,13.046780399556678,2.6685838759479372
-0.5352968122991208,5.445304505566207,13.073466238316158,2.2954294830263606
-0.4808437672434588,5.6163279043934144,13.096420533146421,1.9055415298318896
-0.42468048819952464,5.7849511537285485,13.11547594844474,1.4991714387138515
-0.3668309766622392,5.953417401884404,13.130467662831878,1.0765480727191283
-0.30729680264339515,6.1241774581854225,13.141233143559068,0.6378768862483575
-0.24605502806154092,6.299797256539135,13.147611912421551,0.1834033819988305
-0.1830570554961496,6.482792551607122,13.14944594624154,-0.2864092978478148
-0.11822912998007837,6.675336318383146,13.146581853263061,-0.770506946339145
-0.05147576679624691,6.878749255236063,13.13887678379967,-1.266545838798909
0.017311725756113727,7.092640144068051,13.126211325411681,-1.7696821242978111
0.08823812719679423,7.313536156299169,13.108514504168703,-2.270631022869262
0.1613734887597859,7.532920765172881,13.08580819394001,-2.752899357107497
0.23670269641151473,7.734987160305689,13.058279200368936,-3.189665677818431
0.3140525680145716,7.895418013720282,13.026382543590753,-3.542224368426852
0.3930067481517744,7.983992172351104,12.990960299906485,-3.764029540415929
0.47284666987528545,7.9738840417017345,12.953320004502325,-3.8144261725130693
0.5525855102923027,7.855507725687711,12.915175742777194,-3.678919298906671
0.6311405875491799,7.644388254128387,12.878386549788127,-3.3807798489004877
0.7075844700904638,7.3739777722144115,12.844578751299123,-2.9707695102437315
0.7813242478126079,7.079520825860192,12.814871056196685,-2.503588284794897
0.8521194560712099,6.786679553906604,12.789835173348736,-2.020853516065762
0.9199862516102759,6.509489208398276,12.769626638188079,-1.5475209030666994
0.9850811436942587,6.2533847088164745,12.754151429157412,-1.095850250173773
1.0476149907824235,6.018839247762488,12.743192926655674,-0.6704975083233063
1.1078033832600485,5.803939482649105,12.73648795157244,-0.27221897030646547
1.1658427780865395,5.605858403208698,12.733765761869376,0.09995676364734152
1.2219013621186265,5.421599892958564,12.73476532950585,0.44759822769040414
1.2761173610482122,5.248338103308293,12.739241311782754,0.7723354012926119
1.328600742081295,5.0835511634693145,12.74696466579568,1.0756357402859407
1.3794362537159883,4.925057236647115,12.75772102319854,1.358734648959637
1.4286868260824594,4.771007495760744,12.771308369688137,1.622638245312011
1.4763969010400668,4.619862264782759,12.787534752141257,1.868156910268725
1.5225955236878943,4.4703622816216155,12.806216321243944,2.095949127398382
