th1 (rad),w1 (rad/s),th2 (rad),w2 (rad/s),a1 (rad/s^2),a2 (rad/s^2)
4.216588775936713,-3.0163857020758997,0.9558282582637475,3.08502831309066,9.21929800473864,0.06765934885354467
4.186424918915954,-2.9241927220285135,0.9866785413946542,3.0857049065791955,8.817013158417629,0.12997239001877026
4.157182991695668,-2.8360225904443372,1.0175355904604462,3.0870046304793832,8.315019982604273,-0.007343394672789819
4.128822765791225,-2.7528723906182946,1.04840563676524,3.0869311965326554,7.730153577053176,-0.3139513776894378
4.101294041885041,-2.675570854847763,1.0792749487305664,3.083791682755761,7.0872472411001555,-0.7492433377287322
4.074538333336564,-2.6046983824367613,1.110112865558124,3.0762992493784735,6.41511010638715,-1.2679407265558673
4.048491349512196,-2.54054728137289,1.1408758580519087,3.063619842112915,5.742350167618373,-1.8258705519597866
4.023085876698468,-2.4831237796967063,1.171512056473038,3.0453611365933173,5.093953541512798,-2.384639358985086
3.9982546389015003,-2.4321842442815784,1.2019656678389712,3.0215147430034666,4.489157489377632,-2.9144712530211847
3.9739327964586844,-2.387292669387802,1.232180815269006,2.992370030473255,3.94070134907263,-3.395117352230953
3.9500598697648064,-2.3478856558970755,1.2621045155737385,2.9584188569509453,3.455191714701249,-3.8152260776575586
3.9265810132058356,-2.313333738750063,1.2916887041432479,2.9202665961743697,3.034159167033391,-4.170775929437297
3.903447675818335,-2.282992147079729,1.3208913701049916,2.878558836879997,2.675393698455738,-4.463148739371612
3.8806177543475378,-2.2562382100951717,1.3496769584737915,2.833927349486281,2.3742524342406504,-4.697266222604868
3.8580553722465862,-2.2324956857527654,1.3780162319686544,2.7869546872602324,2.124764020422676,-4.880027530353028
3.8357304153890586,-2.2112480455485386,1.4058857788412567,2.7381544119567023,1.920463673698951,-5.019132793961154
3.813617934933573,-2.192043408811549,1.4332673229608237,2.687963084017091,1.7549648416096977,-5.122278932408647
3.7916975008454576,-2.174493760395452,1.4601469538009946,2.6367402946930043,1.6223100649620297,-5.196664831546181
3.769952563241503,-2.1582706597458317,1.4865143567479246,2.5847736463775424,1.5171551335630844,-5.248728599832759
3.748369856644045,-2.1430991084102007,1.5123620932117001,2.532286360379215,1.434837678998953,-5.284044843217778
3.726938865559943,-2.1287507316202112,1.5376849568154922,2.479445911947037,1.3713720377463006,-5.307323544307097
3.705651358243741,-2.115037011242748,1.5624794159349626,2.426372676503966,1.3234015068566634,-5.322467382077163
3.6845009881313135,-2.1018029961741815,1.5867431427000023,2.373148002683194,1.288129495048075,-5.332657842203095
3.663482958169572,-2.088921701223701,1.6104746227268343,2.3198214242611632,1.2632434553032494,-5.340451074890675
3.642593741157335,-2.0762892666706683,1.633672836969446,2.2664169135122565,1.2468399311510174,-5.347872139453178
3.621830848490628,-2.063820867359158,1.6563370061045686,2.2129381921177247,1.237355247577222,-5.356501503358569
3.6011926398170364,-2.0514473148833856,1.6784663880257458,2.159373177084139,1.2335039181650593,-5.3675510297620255
3.5806781666682026,-2.039112275701735,1.7000601197965872,2.1056976667865186,1.2342253392027076,-5.381928733418858
3.560287043911185,-2.026770022309708,1.7211170964644524,2.05187837945233,1.2386384897496112,-5.400292742655665
3.5400193436880882,-2.0143836374122115,1.7416358802589758,1.9978754520257733,1.2460039245255676,-5.423095492829314
3.5198755073139663,-2.0019235981669556,1.7616146347792334,1.9436444970974802,1.2556921732529005,-5.450619415606696
3.4998562713322965,-1.9893666764344267,1.7810510797502082,1.8891383029414133,1.2671576380759482,-5.483005425576845
3.479962604567952,-1.9766951000536672,1.7999424627796223,1.8343082486856448,1.2799171405041478,-5.520275435225672
3.4601956535674154,-1.9638959286486257,1.8182855452664788,1.7791054943333882,1.2935323678821935,-5.56235000891445
3.440556694280929,-1.9509606049698038,1.8360766002098126,1.7234819942442436,1.3075955810008402,-5.609062129996131
3.421047088231231,-1.9378846491597954,1.853311420152255,1.6673913729442824,1.321718054582791,-5.660167921045135
3.401668241739633,-1.9246674686139675,1.8699853338816976,1.610789693733831,1.3355208233609106,-5.715355034334964
3.3824215670534934,-1.9113122603803585,1.886093230819036,1.5536361433904815,1.3486273947693077,-5.774249321456009
3.36330844444969,-1.8978259864326654,1.9016295922529407,1.4958936501759215,1.3606581636872292,-5.836420297352917
3.3443301845853632,-1.8842194047957932,1.9165885287547,1.4375294472023923,1.3712263252561447,-5.901385833380541
3.3254879905374053,-1.8705071415432317,1.9309638232267239,1.378515588868587,1.3799351291883426,-5.968616443744971
3.306782919121973,-1.8567077902513482,1.9447489791154098,1.3188294244311372,1.3863763541205507,-6.037539467218143
3.2882158412194595,-1.8428440267101427,1.9579372733597211,1.2584540297589557,1.3901299044585016,-6.10754338874261
3.269787400952358,-1.8289427276655577,1.9705218136573106,1.1973785958715295,1.3907644458751922,-6.177982491300077
3.2514979736757024,-1.8150350832068058,1.9824955996160258,1.1355987709585287,1.387839000295488,-6.248181975544712
3.233347622843634,-1.801156693203851,1.993851587325611,1.0731169512030816,1.3809054180552855,-6.317443632154458
3.2153360559115955,-1.787347639023298,2.004582756837642,1.009942514881537,1.3695116353528265,-6.385052099256414
3.1974625795213627,-1.77365252266977,2.0146821819864575,0.9460919938889729,1.3532056106939556,-6.450281684947824
3.179726054294665,-1.7601204665628303,2.0241431019253473,0.8815891770394947,1.331539816559145,-6.512403683832871
3.1621248496290364,-1.746805068397239,2.0329589936957424,0.816465140201166,1.304076143956713,-6.570694068177316
3.1446567989450642,-1.7337643069576718,2.041123645097754,0.7507581995193928,1.2703910599593826,-6.624441390742219
3.1273191558754876,-1.721060396358078,2.048631227092948,0.6845137856119706,1.230080843847778,-6.67295469984512
3.1101085519119067,-1.7087595879196003,2.0554763649490675,0.6177842386135194,1.1827667180742838,-6.715571239987283
3.093020956032711,-1.6969319207388573,2.0616542073352027,0.5506285262136466,1.128099687597187,-6.751663695518456
3.0760516368253223,-1.6856509238628854,2.0671604925973392,0.483111889258462,1.0657649064536614,-6.780646731831751
3.0591951275866935,-1.6749932747983487,2.0719916114899237,0.41530542194014447,0.995485404386959,-6.801982599308666
3.04244519483871,-1.665038420754479,2.076144665709325,0.3472855959470578,0.9170250288760655,-6.815185589589279
3.025794810631165,-1.6558681704657183,2.079617521668796,0.27913374005116504,0.8301904882656103,-6.8198251706624005
3.009236128926508,-1.6475662655830623,2.0824088590693077,0.210935488344541,0.734832418396689,-6.815527674729677
2.9927604662706777,-1.6402179413990954,2.084518213952753,0.14278021159724424,0.6308454361459266,-6.801976467934055
2.9763582868566867,-1.633909487037636,2.0859460160687253,0.07476044691790369,0.5181671861286898,-6.778910590386182
2.9600191919863104,-1.6287278151763491,2.0866936205379045,0.006971341014041871,0.3967764288596265,-6.746121914690364
2.943731913834547,-1.6247600508877529,2.086763333948045,-0.060489878132861774,0.26669025728774565,-6.703450927610391
2.927484313325669,-1.6220931483148755,2.0861584351667166,-0.12752438740896568,0.12796056151916174,-6.650781289229635
2.91126338184252,-1.620813542699684,2.084883191292627,-0.19403220030126203,-0.019330113121188507,-6.588033364202618
2.8950552464155233,-1.6210068438308958,2.0829428692896146,-0.2599125339432882,-0.17507315295825235,-6.51515694858022
2.8788451779772144,-1.6227575753604784,2.0803437439501815,-0.3250641034290904,-0.33913873871987427,-6.432123432304676
2.86261760222361,-1.626148962747677,2.0770931029158906,-0.3893853377521372,-0.5113808168878065,-6.338917641883773
2.846356112596133,-1.631262770916555,2.0731992495383693,-0.4527745141709749,-0.6916420223870285,-6.235529600933163
2.8300434848869673,-1.6381791911404253,2.0686715043966597,-0.5151298101803066,-0.8797584123418728,-6.121946429922256
2.813661692975563,-1.646976775263844,2.0635202062948568,-0.5763492744795291,-1.0755638929317253,-5.998144582796389
2.7971919252229243,-1.6577324141931613,2.0577567135500616,-0.636330720307493,-1.2788942471785842,-5.864082589693108
2.7806146010809925,-1.670521356664947,2.0513934063469867,-0.6949715462044241,-1.4895906989541703,-5.71969444431327
2.763909387514343,-1.6854172636544889,2.0444436908849424,-0.7521684906475569,-1.7075029758760714,-5.5648837441252255
2.747055214877798,-1.7024922934132496,2.0369220059784667,-0.8078173280888091,-1.9324918595454197,-5.399518663695514
2.7300302919436654,-1.7218172120087039,2.0288438326975786,-0.8618125147257643,-2.1644312344935956,-5.223427817939491
2.712812119823578,-1.7434615243536398,2.020225707550321,-0.9140467929051592,-2.4032096662515228,-5.036397054491964
2.695377504580042,-1.767493621016155,2.0110852396212695,-0.9644107634500788,-2.6487315533745504,-4.838167203892432
2.6777025683698805,-1.7939809365499004,2.001441131986769,-1.0127924354890032,-2.900917907479304,-4.62843281376848
2.6597627590043813,-1.8229901156246935,1.991313207631879,-1.059076763626688,-3.1597068189151436,-4.40684189941778
2.6415328578481345,-1.854587183813845,1.980722439995612,-1.1031451826208658,-3.4250536631532977,-4.172996758821836
2.622986986009996,-1.888837720445378,1.9696909881694034,-1.1448751502090841,-3.696931093781108,-3.9264559259644574
2.604098608805542,-1.925807031383189,1.9582422366673125,-1.1841397094687287,-3.975328851363308,-3.666737373437094
2.58484053849171,-1.9655603198968221,1.946400839572625,-1.2208070832030997,-4.260253392239757,-3.3933231252106477
2.565184935292742,-2.0081628538192198,1.9341927687405942,-1.2547403144552063,-4.551727305915361,-3.105665505324741
2.5451033067545494,-2.0536801268783735,1.9216453655960422,-1.2857969695084537,-4.84978844171443,-2.8031953311812887
2.5245665054857658,-2.1021780112955177,1.9087873959009576,-1.3138289228202666,-5.154488601570276,-2.485332465399734
2.5035447253728105,-2.1537228973112206,1.895649106672755,-1.338682247474264,-5.465891571813336,-2.1514992735622025
2.482007496399698,-2.2083818130293538,1.8822622841980123,-1.3601972402098859,-5.784070156802901,-1.8011377042668446
2.4599236782694045,-2.266222514597383,1.8686603117959135,-1.3782086172525543,-6.109101733686878,-1.433730922572219
2.4372614531234307,-2.3273135319342515,1.854878225623388,-1.3925459264782765,-6.441061660889394,-1.0488307006206519
2.413988317804088,-2.3917241485431453,1.8409527663586052,-1.403034233484483,-6.780013631201795,-0.6460921153230293
2.3900710763186566,-2.459524284855163,1.8269224240237603,-1.4094951546377132,-7.125995749192988,-0.22531754071223944
2.365475833470105,-2.5307842423470928,1.8128274724773832,-1.4117483300448357,-7.479000715375529,0.21348752750916433
2.340167991046634,-2.6055742495008483,1.798709989176935,-1.409613454769744,-7.838947998066742,0.6700435943892419
2.3141122485516257,-2.6839637294815155,1.7846138546292374,-1.4029130188258516,-8.20564525082367,1.1437071794512306
2.2872726112568107,-2.7660201819897523,1.770584724440979,-1.3914759470313394,-8.578735476575053,1.6333566719388244
2.259612409436913,-2.8518075367555027,1.7566699649706656,-1.3751423803119511,-8.95762555057958,2.1372478401189463
2.231094334069358,-2.9413837922612984,1.742918541167546,-1.3537699019107616,-9.341390722946139,2.652831587933348
2.201680496146745,-3.0347976994907597,1.7293808421484385,-1.3272415860314282,-9.72864871075801,3.1765253973032177
2.1713325191518376,-3.1320841865983398,1.716108426288124,-1.295476332058396,-10.117396136158645,3.7034290927511497
2.140011677285854,-3.2332581479599263,1.7031536629675401,-1.2584420411308845,-10.50479970054072,4.22697563848982
2.1076790958062546,-3.3383061449653333,1.6905692425562313,-1.2161722847459864,-10.886935177862672,4.738509507101277
2.074296034356601,-3.44717549674396,1.6784075197087716,-1.1687871896749735,-11.258469987509134,5.226790142402143
2.0398242793891614,-3.559760196619051,1.6667196478120219,-1.116519288250952,-11.61229116972991,5.677428262156882
2.004226677422971,-3.6758831083163503,1.6555544549295123,-1.0597450056293831,-11.93909198783605,6.072281074165627
1.9674678463398076,-3.795274028194711,1.6449570048732185,-0.9990221948877268,-12.226949536900989,6.3888623947322
1.9295151060578606,-3.917543523563721,1.6349667829243413,-0.9351335709404048,-12.460955034033173,6.599868496575004
1.8903396708222233,-4.0421530739040525,1.6256154472149373,-0.8691348859746548,-12.622998982381956,6.672981545773901
1.8499181400831828,-4.168383063727872,1.6169240983551907,-0.8024050705169158,-12.691862412568986,6.571185208100675
1.8082343094459041,-4.295301687853562,1.6089000476500215,-0.7366932184359091,-12.643812411986957,6.253895315713502
1.7652812925673684,-4.421739811973431,1.6015331154656625,-0.6741542652787741,-12.453922236751625,5.679237949938568
1.7210638944476342,-4.546279034340947,1.5947915728128748,-0.6173618857793884,-12.098295834504999,4.8077419388032565
1.6756011041042247,-4.667261992685997,1.5886179539550809,-0.5692844663913559,-11.557227674841705,3.607484713596146
1.6289284841773648,-4.782834269434415,1.5829251092911674,-0.5332096192553945,-10.819040549866104,2.0602943874002633
1.5811001414830206,-4.8910246749330755,1.5775930130986133,-0.5126066753813918,-9.883943425344265,0.16800677615368123
1.5321898947336898,-4.989864109186518,1.5724669463447993,-0.510926607619855,-8.76686753910306,-2.0428056780820287
1.4822912536418247,-5.077532784577549,1.5673576802686007,-0.5313546644006752,-7.498101581287367,-4.519435704283219
1.4315159257960492,-5.152513800390423,1.5620441336245938,-0.5765490214435074,-6.120886313051956,-7.186290136764761
1.3799907877921451,-5.213722663520943,1.5562786434101588,-0.648411922811155,-4.685987363923832,-9.952839532990753
1.3278535611569358,-5.2605825371601815,1.5497945241820472,-0.7479403181410625,-3.2443512062586586,-12.724699939410547
1.275247735785334,-5.293026049222768,1.5423151210006365,-0.875187317535168,-1.8397248035231564,-15.415086110582692
1.2223174752931063,-5.311423297258,1.5335632478252847,-1.029338178640995,-0.5031378783351186,-17.95378276662565
1.1692032423205263,-5.316454676041351,1.5232698660388748,-1.2088760063072514,0.7496069727123381,-20.291836523769202
1.1160386955601127,-5.308958606314228,1.5111811059758022,-1.4117943715449435,1.9173835826027938,-22.4017634675562
1.0629491094969705,-5.2897847704881995,1.4970631622603527,-1.6358120062205055,3.010954921200689,-24.274385618058755
1.0100512617920885,-5.259675221276193,1.4807050421981476,-1.878555862401093,4.04912180788708,-25.913977035824193
0.9574545095793265,-5.219184003197322,1.4619194835741367,-2.137695632759335,5.05483894752581,-27.333246469841523
0.9052626695473533,-5.1686356137220635,1.4405425272465433,-2.4110280974577503,6.051939945931084,-28.54914370794157
0.8535763134101327,-5.108116214262752,1.4164322462719658,-2.696519534537166,7.0627147035160585,-29.579898330432695
0.8024951512675053,-5.037489067227591,1.3894670509265943,-2.992318517841493,8.106305023191263,-30.44327830586769
0.7521202605952293,-4.956426016995679,1.3595438657481793,-3.2967513009001697,9.197747976820288,-31.15583202224286
0.7025560004252726,-4.864448537227476,1.3265763527391776,-3.608309621122598,10.347464132882296,-31.732804686635408
0.6539115150529978,-4.760973895898653,1.2904932565279517,-3.925637667988952,11.561009718343254,-32.18843153378988
0.6063017760940113,-4.645363798715221,1.2512368798480622,-4.247521983326851,12.838949708263508,-32.53635230552939
0.5598481381068591,-4.516974301632586,1.2087616600147937,-4.5728855063821445,14.176739891726408,-32.789931618010236
0.5146783950905333,-4.3752069027153215,1.1630328049509722,-4.900784822562247,15.564519296827598,-32.9622923917797
0.47092632606338003,-4.219561709747046,1.1140249567253497,-5.230407746480044,16.986705952220756,-33.06586812927183
0.4287307089659096,-4.049694650224838,1.0617208792605493,-5.5610664277727615,18.421258106252832,-33.1112521139954
0.3882337624636612,-3.8654820691623097,1.0061102149828216,-5.892178948912716,19.838411328784407,-33.10506716976701
0.3495789417720381,-3.667097955874466,0.9471884254936944,-6.223229620610386,21.198635611097107,-33.04650248582734
0.3129079622132934,-3.455111599763495,0.8849561292875906,-6.553694645468659,22.449493911898042,-32.92208219512078
0.2783568462156585,-3.2306166606445146,0.819419182832904,-6.882915467419867,23.5210713585084,-32.698198074880054
0.24605067960921334,-2.9954059470594308,0.7505900281587053,-7.209897448168667,24.31978948098011,-32.311089941635586
0.21609662013861902,-2.7522080522496295,0.6784910536770187,-7.533008347585023,24.72094034934305,-31.654577734671594
0.18857453961612272,-2.504998648756199,0.6031609702011684,-7.849554124931739,24.561553018438808,-30.567456137982504
0.16352455312856073,-2.2593831185718107,0.5246654289518511,-8.155228686311563,23.6377478466347,-28.82577185648886
0.14093072194284262,-2.0230056401054637,0.4431131420887354,-8.443486404876452,21.71478092492471,-26.150619233578734
0.12070066554178799,-1.8058578308562165,0.3586782780399709,-8.70499259721224,18.56224366140782,-22.24803015985904
0.10264208723322582,-1.6202353942421384,0.27162835206784847,-8.92747289881083,14.026273105295022,-16.89733202808943
0.08643973329080444,-1.479972663189188,0.18235362307974018,-9.096446219091725,8.135347951701572,-10.084894024110877
0.07164000665891256,-1.3986191836721724,0.09138916088882293,-9.197295159332834,1.1998809571736186,-2.1326440894128194
0.05765381482219083,-1.3866203741004361,-0.000583790704505413,-9.218621600226962,-6.1723195218544165,6.279487645862512
0.043787611081186464,-1.4483435693189803,-0.09277000670677503,-9.155826723768337,-13.207462507528657,14.277917370539909
0.02930417538799666,-1.580418194394267,-0.1843282739444584,-9.013047550062938,-19.206579889298684,21.095711310333026
0.01349999344405399,-1.7724839932872538,-0.27445874944508775,-8.802090436959608,-23.75400305676792,26.324229282911883
-0.004224846488818549,-2.010024023854933,-0.36247965381468383,-8.538848144130489,-26.772517688625605,29.96441124413854
-0.02432508672736788,-2.277749200741189,-0.44786813525598873,-8.239204031689104,-28.433240648268253,32.2969667835083
-0.04710257873477977,-2.5620816072238717,-0.5302601755728797,-7.916234363854021,-29.017415509331915,33.70189725779073
-0.07272339480701849,-2.8522557623171907,-0.60942251921142,-7.579215391276113,-28.81090660322648,34.529213875900766
-0.1012459524301904,-3.1403648283494556,-0.6852146731241812,-7.233923252517106,-28.053157471062896,35.04329227269973
-0.13264960071368495,-3.420896403060085,-0.7575539056493522,-6.883490329790108,-26.925861046062845,35.41763365371212
-0.1668585647442858,-3.6901550135207133,-0.8263888089472533,-6.529313993252987,-25.560567133742286,35.751713236734595
-0.20376011487949292,-3.9457606848581364,-0.8916819488797831,-6.171796860885641,-24.051451635236376,36.09231889482484
-0.24321772172807427,-4.1862752012105,-0.9533999174886395,-5.810873671937392,-22.466942409643462,36.45195407779754
-0.28508047374017925,-4.410944625306935,-1.0115086542080134,-5.446354131159416,-20.858328855785576,36.822518401531575
-0.3291899199932486,-4.619527913864791,-1.0659721955196075,-5.0781289471441005,-19.265411422365595,37.18471748821633
-0.3753851991318965,-4.812182028088447,-1.1167534849910485,-4.706281772261937,-17.71983857419046,37.514192976970605
-0.42350701941278096,-4.989380413830352,-1.1638163027136679,-4.331139842492231,-16.246813244898487,37.78526430332174
-0.4734008235510845,-5.151848546279337,-1.2071277011385901,-3.9532871994590133,-14.865708905865777,37.972921345152535
-0.5249193090138778,-5.300505635337994,-1.2466605731331803,-3.5735579860074878,-13.58996786317396,38.05347584136067
-0.5779243653672578,-5.4364053139697335,-1.2823961529932553,-3.193023227593881,-12.426509280632997,38.00411184662513
-0.632288418506955,-5.5606704067760635,-1.314326385269194,-2.8129821091276295,-11.37476284244492,37.80147005744775
