th1 (rad),w1 (rad/s),th2 (rad),w2 (rad/s)
3.5039588621955633,-2.5552705670737836,5.651139497545716,2.068799257264587
3.4784061565248257,-2.492391027571319,5.671827490118362,2.1062213407504218
3.4534822462491124,-2.4296249720888663,5.692889703525866,2.1486113076200657
3.429185996528224,-2.3668241051997874,5.714375816602066,2.1957683432177872
3.405517755476226,-2.303876874096136,5.736333500034244,2.247472981705337
3.382478986735265,-2.240714556072954,5.758808229851298,2.303475329425158
3.3600718411745354,-2.1773189560988784,5.78184298314555,2.363481821627638
3.3382986516135467,-2.1137316910590225,5.8054778013618265,2.4271404744484406
3.3171613347029565,-2.050064913829023,5.829749206106311,2.4940247742339916
3.296660685564666,-1.9865131399878928,5.854689453848651,2.5636166100777267
3.2767955541647873,-1.9233655701932721,5.880325619949428,2.6352890190978133
3.2575618984628547,-1.8610179470338268,5.906678510140406,2.7082899838144754
3.2389517189925163,-1.7999825574967698,5.93376140997855,2.7817290821841927
3.2209518934175487,-1.7408945291252758,5.961578700800392,2.8545693931129588
3.203542948126296,-1.6845121467054935,5.990124394731522,2.9256276023007253
3.1866978266592407,-1.631708661421885,6.019380670754529,2.993585572432788
3.170380740045022,-1.5834531438885546,6.049316526478857,3.057016519412167
3.154546208606136,-1.5407785318301874,6.079886691672979,3.1144281323917453
3.1391384232878345,-1.504736288899166,6.111030972996896,3.1643233023793274
3.1240910603988428,-1.476339045649223,6.142674206020689,3.2052765581242992
3.1093276699423504,-1.456495044758339,6.174726971601932,3.236021105752806
3.094762719494767,-1.4459407029208518,6.20708718265946,3.255538131567786
3.0803033124655586,-1.4451794568026293,6.239642563975138,3.2631376364701485
3.0658515178975323,-1.4544355675588365,6.272273940339839,3.2585194497858256
3.051307162221944,-1.4736302460952913,6.304859134837697,3.241804823856223
3.036570859760991,-1.502384362832349,6.337277183076259,3.213533081827282
3.0215470161326676,-1.5400477556993528,6.369412513894532,3.174623342979525
3.006146538575674,-1.5857508178457456,6.401158747324327,3.1263069884089782
2.9902890303972165,-1.6384707539292027,6.432421817208417,3.0700408025622696
2.9739043228579245,-1.6971033978992194,6.46312222523404,3.007412661438788
2.956933288878932,-1.7605319343425707,6.493196351848428,2.9400510550474435
2.9393279695355066,-1.8276858311624282,6.522596862398903,2.8695471916537683
2.9210511112238824,-1.8975860194154206,6.55129233431544,2.797394910806658
2.902075251029728,-1.969375081299381,6.5792662834235065,2.7249501163627894
2.8823815002167343,-2.042333384136523,6.606515784587135,2.653408629324683
2.861958166375369,-2.115883483966326,6.633049870880382,2.583799563629028
2.8407993315357056,-2.189585734053293,6.658887866516672,2.5169905241504265
2.8189034741951726,-2.263128043994648,6.684057771758176,2.453700894804238
2.796272193755226,-2.3363123680826265,6.7085947807062185,2.394519940627291
2.7729090700744,-2.409039959970221,6.732539980112492,2.339927132912146
2.7488186704746975,-2.481296862539574,6.755939251441613,2.2903128323159687
2.724005701849302,-2.553140595709725,6.7788423797647726,2.2459981182996436
2.6984742958922046,-2.6246886007326595,6.801302360947769,2.207253082838752
2.672227409884878,-2.6961087045941934,6.823374891776156,2.174313302281352
2.645266322838936,-2.767611671486331,6.84511802479897,2.1473944771162063
2.617590206124073,-2.83944579132622,6.866591969570132,2.1267054089120916
2.5891957482108108,-2.911893398273023,6.887859023659253,2.1124595921723124
2.5600768142280805,-2.9852691977933383,6.908983619580976,2.104885759077074
2.5302241222501474,-3.05992029534465,6.930032477171746,2.1042377454874313
2.499624919296701,-3.1362278531864907,6.95107485462662,2.1108040610325283
2.468262640764836,-3.2146103473401286,6.972182895236946,2.1249175543623022
2.4361165372914346,-3.2955284497615507,6.993432070780569,2.1469655729439645
2.403161252793819,-3.3794916181590198,7.014901726510009,2.1774010281150913
2.369366336612229,-3.467066534509956,7.036675736791159,2.2167547900232245
2.3346956712671294,-3.558887588676021,7.058843284691392,2.2656498484686374
2.299106795380369,-3.655669647041684,7.081499783176078,2.3248176719233595
2.2625500989099523,-3.7582233609174485,7.104747959895311,2.39511715234448
2.2249678653007776,-3.8674732224653012,7.128699131418756,2.4775563880082245
2.1862931330761244,-3.984478403418714,7.153474695298838,2.5733172362577887
2.146448349041937,-4.110455992870025,7.179207867661416,2.6837818863863876
2.105343789113237,-4.246805357120723,7.206045686525281,2.810559331322285
2.0628757355420295,-4.395130551599836,7.234151279838503,2.955506946289739
2.018924430026031,-4.557254234769721,7.2637063493014,3.120737292327549
1.9733518876783338,-4.73520993166422,7.294913722224676,3.308590718666774
1.9259997883616915,-4.93118722960127,7.327999629411344,3.521536753783634
1.8766879160656789,-5.147382319215592,7.36321499694918,3.76193568585553
1.825214092873523,-5.385668011479308,7.400834353807736,4.031537455363693
1.77135741275873,-5.646936875218447,7.441149728361372,4.330509629399526
1.7148880440065455,-5.929893534765606,7.4844548246553675,4.655677460578524
1.6555891086588894,-6.229030744260299,7.531011599261153,4.997603085177134
1.5932988012162865,-6.531710306643872,7.580987630112924,5.3364001505354235
1.5279816981498477,-6.815130793673878,7.634351631618278,5.637407360525602
1.459830390213109,-7.045977259211929,7.690725705223534,5.850705242480584
1.3893706176209897,-7.1876236677170215,7.74923275764834,5.92140907576257
1.3174943809438195,-7.216742882580742,7.808446848405965,5.8134059542515955
1.2453269521180121,-7.1391635203975765,7.866580907948481,5.532165426430469
1.1739353169140363,-6.988069086647535,7.921902562212786,5.122588948528096
1.104054626047561,-6.804941979004133,7.9731284516980665,4.642230437081208
1.0360052062575196,-6.622250087572618,8.01955075606888,4.136651278901274
0.9697827053817933,-6.4585716415285335,8.060917268857892,3.632203968546893
0.905196988966508,-6.321735187668877,8.097239308543362,3.140210691897729
0.8419796370898193,-6.213337769921196,8.128641415462338,2.663230366225889
0.7798462593906073,-6.131961430519813,8.155273719124597,2.199596324392179
0.7185266450854091,-6.074956849009298,8.17726968236852,1.745991229387899
0.6577770765953161,-6.0392983186863916,8.194729594662398,1.2987395585737245
0.5973840934084522,-6.02193897233315,8.207716990248136,0.8544072398760599
0.5371647036851207,-6.019921780288154,8.216261062646897,0.41006154070212764
0.47696548588223914,-6.030380047349375,8.220361678053917,-0.03662452866668564
0.4166616854087454,-6.050493561791953,8.21999543276725,-0.48733407090333813
0.35615674979082584,-6.077432484173226,8.215122092058216,-0.943094154469532
0.2953824249490936,-6.108304719953649,8.205691150513521,-1.404273738387165
0.23429937774955711,-6.1401149048562615,8.19164841312965,-1.8705876361840987
0.1728982287009945,-6.169739590057994,8.17294253676781,-2.341108132659421
0.11120083280041455,-6.193921421966025,8.149531455441215,-2.8142882588061644
0.0492616185807543,-6.20928393452773,8.121388572853153,-3.2880012768173756
-0.012831220764523005,-6.212367488885041,8.088508560084978,-3.759600314377164
-0.07495489565337342,-6.199685712854307,8.050912556941206,-4.226000709664902
-0.13695175278191649,-6.167800500014852,8.008652549844557,-4.683785789694733
-0.19862975778206501,-6.1134123037889205,7.96181469194761,-5.129334787538663
-0.2597638808199542,-6.033461206003915,7.910521344072223,-5.558969662812815
-0.32009849287999337,-5.925233125760251,7.854931647444095,-5.9691159100779965
-0.37935082413759585,-5.7864645922631155,7.795240488343316,-6.356471106459536
-0.437215470060227,-5.615438739540864,7.731675777278721,-6.718173955359562
-0.4933698574556356,-5.411064623626612,7.664494037725125,-7.051965886539909
-0.5474805036919017,-5.1729317290488,7.593974378859726,-7.356336888894122
-0.5992098209823897,-4.90133184175695,7.520411009970784,-7.6306473258082725
-0.6482231393999592,-4.597241599646927,7.444104536712701,-7.875218296433963
-0.6941955553964285,-4.262261210037906,7.365352353748362,-8.091384991317623
-0.7368181674968076,-3.898508052153855,7.284438503835186,-8.281510664985744
-0.7758032480183462,-3.508467835807236,7.201623397185329,-8.448963241732969
-0.8108879263764186,-3.094810001574169,7.117133764767999,-8.598061736273399
-0.8418360263921603,-2.6601772702508346,7.031153147405265,-8.734004833807125
-0.8684377990946686,-2.206960915209417,6.943813099067193,-8.862798216375298
-0.8905074082467628,-1.7370730882004268,6.85518511690344,-8.991199693830438
-0.907878139128767,-1.2517257377488886,6.765273119965136,-9.12670118016651
-0.9203953965062559,-0.7512236901401079,6.674006108163471,-9.277563150456333
-0.927907633407657,-0.23478022239512486,6.5812304766589085,-9.452908314581553
-0.9302554356316083,0.2996272584880434,6.486701393513093,-9.66286112652649
-0.9272591630467278,0.8553138392558917,6.390072782247828,-9.918673691558546
-0.918706024654169,1.436730994692179,6.290886045332242,-10.23267102038086
-0.9043387147072471,2.048788833337567,6.188559335128434,-10.617597829644279
-0.8838508263738715,2.694936345058031,6.082383356831992,-11.084384328576245
-0.8569014629232912,3.3724461086887403,5.9715395135462295,-11.636188718874426
-0.8231770018364037,4.062068752706369,5.855177626357485,-12.254749721454633
-0.78255631430934,4.709124876782295,5.732630129142939,-12.87478303469056
-0.7354650655415171,5.202111657804284,5.603882298796034,-13.354280055280357
-0.6834439489634743,5.386832387561465,5.47033949824323,-13.49233151963053
-0.6295756250878596,5.171565225986885,5.335416183046925,-13.170246925045417
-0.5778599728279907,4.64116224357679,5.20371371379647,-12.503209350788026
-0.5314483503922228,3.982285277352754,5.07868162028859,-11.735518168130595
-0.4916254976186953,3.328355932660629,4.9613264386072835,-11.033839463341014
-0.458341938292089,2.729358005432257,4.8509880439738735,-10.452949184539024
-0.43104835823776644,2.1912739325112085,4.746458552128483,-9.991812860374095
-0.4091356189126544,1.7056275313158544,4.646540423524742,-9.633127696769975
-0.3920793435994958,1.2614738339862754,4.550209146557043,-9.358450725274148
-0.37946460525963305,0.8490456888190969,4.456624639304302,-9.152258246495451
-0.3709741483714421,0.46047999705262344,4.365102056839347,-9.002349272264196
-0.3663693484009159,0.0896891238607318,4.275078564116705,-8.899297906244978
-0.3654724571623086,-0.26794524653339463,4.186085585054255,-8.83578974526647
-0.36815190962764255,-0.6158585349414031,4.097727687601591,-8.806057715085837
-0.3743104949770566,-0.9565267028956459,4.009667110450732,-8.805446577740213
-0.38387576200601303,-1.2916289995539565,3.9216126446733304,-8.830087509929822
-0.3967920520015526,-1.62216327966021,3.833311769574032,-8.87665767573255
-0.4130136847981547,-1.9485277887856762,3.7445451928167066,-8.942203968371102
-0.43249896268601146,-2.270581370939203,3.6551231531329957,-9.024015826214129
-0.45520477639540347,-2.587691803235594,3.5648829948708545,-9.11953672725938
-0.4810816944277594,-2.8987798824497557,3.473687627598261,-9.226307155092467
-0.5100694932522569,-3.2023649156226637,3.381424556047336,-9.341933584495672
-0.5420931424084836,-3.496615230877143,3.2880052202023795,-9.464078568290436
-0.577059294717255,-3.7794051172672667,3.193364434519475,-9.590466587094188
-0.6148533458899277,-4.048377257082674,3.097459768648533,-9.718899296265125
-0.6553371184607544,-4.301007438532799,3.0002707756858817,-9.847272619149411
-0.6983471928460824,-4.534666502901226,2.9017980494943876,-9.973587336251551
-0.7436938578750947,-4.746673559728446,2.802062176131872,-10.095944978401825
-0.7911605934723791,-4.93433495312423,2.701102726347854,-10.212522436432495
-0.8405039430036214,-5.094965580562067,2.598977501983529,-10.32152202278834
-0.8914535988092421,-5.225892960137167,2.4957622817556455,-10.421098712743385
-0.9437125284106138,-5.324449546121244,2.391551294628212,-10.509272536854393
-0.9969570238718263,-5.387964445654559,2.286458569259668,-10.58384081969365
-1.0508366683283719,-5.413770773244383,2.1806201610627314,-10.642311075417014
-1.1049743760608157,-5.399247981839312,2.074197050308561,-10.681879500143458
-1.1589668558792088,-5.3419180268021895,1.9673782553071266,-10.699480495369734
-1.2123860361472307,-5.239608586096571,1.8603834503534293,-10.691927724552325
-1.2647821220081965,-5.090684736972646,1.7534641731079061,-10.656155351152018
-1.315688969377923,-4.894332795441461,1.646902619596386,-10.589549032644413
-1.3646322973323377,-4.6508591262363685,1.5410071292699419,-10.490332078844729
-1.4111408885947014,-4.3619481738764545,1.4361038084814945,-10.357948384851225
-1.454760370333466,-4.03081534504606,1.3325243246329823,-10.193368629664539
-1.4950685237839265,-3.6621985740436007,1.230590638336337,-9.999248261322077
-1.5316905095243625,-3.262159597965948,1.1305981557231162,-9.77988918610774
-1.5643121055040219,-2.83770661829564,1.0327992638620387,-9.5409979849132
-1.5926891716869782,-2.396291552847074,0.9373892840129067,-9.289279767003455
-1.6166520872154488,-1.9452629690693535,0.8444964863428721,-9.031942771112009
-1.6361047169061425,-1.4913605797420493,0.754177058631752,-8.776202738597247
-1.6510183227035629,-1.0403189740506618,0.6664150312457795,-8.528865490855347
-1.6614215124440694,-0.5966158570280861,0.5811263763372261,-8.296038179442087
-1.6673876710143503,-0.16336578588157746,0.4981659945428052,-8.082986340665778
-1.6690213288731661,0.25766582370223956,0.4173361311361474,-7.894126004267483
-1.6664446706361438,0.6659673988730134,0.3383948710934726,-7.733123518138462
-1.6597849966474136,1.0621457997293111,0.261063635912088,-7.60307091583511
-1.6491635386501204,1.4477865492029798,0.1850329267537369,-7.506708578659425
-1.6346856731580905,1.8253367895384287,0.10996584096714264,-7.446675597656248
-1.6164323052627063,2.198029450409742,0.03549908499058016,-7.42577818184325
-1.5944520107586089,2.5698602058040043,-0.03875869682785234,-7.447275339062646
-1.5687534087005688,2.9456235273720566,-0.1132314502184788,-7.5151871630514835
-1.5392971734268481,3.331008591734322,-0.18838332184899365,-7.634632005537923
-1.505987087509505,3.7327449790068057,-0.26472964190437287,-7.812188845384268
-1.468659637719437,4.158760166977286,-0.3428515303582156,-8.056245229564311
-1.427072036049664,4.618237255096172,-0.4234139826538587,-8.37719079686576
-1.3808896634987022,5.121273446276684,-0.5071858906225163,-8.787056634823385
-1.3296769290359354,5.677379180580114,-0.5950564569707502,-9.297560083708403
-1.2729031372301343,6.291009212798767,-0.6880320578078342,-9.914048553927294
-1.2099930451021466,6.950344049314198,-0.7871725433471071,-10.62005941533734
-1.1404896046090045,7.603933877835342,-0.8933731375004805,-11.344892985488011
-1.0644502658306512,8.128596674312288,-1.0068220673553607,-11.91868928996017
-0.9831642990875282,8.336439199729984,-1.1260089602549623,-12.081419558598723
-0.8997999070902284,8.1108538120079,-1.2468231558409495,-11.670732553971876
-0.8186913689701494,7.566342668100011,-1.3635304813806683,-10.842040239010384
-0.7430279422891493,6.934253509895154,-1.4719508837707722,-9.90885509658219
-0.6736854071901978,6.357234703779303,-1.5710394347365941,-9.060668980296231
-0.6101130601524047,5.874562962525323,-1.6616461245395564,-8.345724753117594
-0.5513674305271515,5.481397223087232,-1.7451033720707323,-7.753409181717097
-0.4965534582962792,5.162460459274923,-1.8226374638879033,-7.260114850935705
-0.44492885370352997,4.903018668200653,-1.8952386123972602,-6.843779531377271
-0.39589866702152343,4.691253985418515,-1.963676407711033,-6.4867860957995145
-0.3489861271673383,4.51818585881516,-2.028544268669028,-6.1756526339622395
-0.3038042685791867,4.3770837854493685,-2.0903007950086505,-5.900124186777126
-0.260033430724693,4.26289310479109,-2.149302036876422,-5.65234528834843
-0.21740449967678208,4.171776980293911,-2.2058254897599063,-5.426237071626648
-0.17568672987384296,4.100767292374817,-2.260087860476173,-5.217062999212314
-0.1346790569500948,4.047495202231681,-2.312258490468296,-5.021143979989286
-0.09420410492777799,4.009973561143125,-2.362469930268189,-4.835688915495018
-0.05410436931634673,3.9864098942962682,-2.4108268194231393,-4.6587156487701575
-0.014240270373384052,3.9750361627033337,-2.457413975910841,-4.48904292860373
0.025510091253649288,3.973949819653845,-2.5023044051968784,-4.3263342409618515
0.06524958945018774,3.9809706959831512,-2.545567747606497,-4.171168420555934
0.10505929641001927,3.993530283210357,-2.587279431812056,-4.025100275770743
0.14499459924212282,4.008622450988551,-2.6275304345697634,-3.890660074597829
0.18508082375200835,4.022852815498899,-2.6664370353157416,-3.7712310445704427
0.22530935190699736,4.032619986635778,-2.704149345761446,-3.6707509588702125
0.2656355517733551,4.034437791197554,-2.740856855350148,-3.593219539885821
0.30597992968533066,4.025362220670878,-2.7767890507490063,-3.542059995396137
0.34623355189203947,4.003433625788463,-2.8122096507029677,-3.5194615890212813
0.3862678881499241,3.9680110679683684,-2.8474042665931805,-3.5258807010892386
0.42594799882960777,3.91988888449933,-2.882663073604073,-3.559860171599906
0.46514688767460105,3.8611501077006904,-2.918261675320072,-3.6182331995083623
0.5037583887516079,3.7947996848478533,-2.9544440073151557,-3.696648942239057
0.5417063856000864,3.724288220275901,-2.9914104967375463,-3.790257524523743
0.5789492678028454,3.6530537358916346,-3.029313071982784,-3.894367839318891
0.6154798051617617,3.584176247525579,-3.068256750375973,-4.004940281244622
0.6513215676370175,3.520183981500115,-3.108306153188419,-4.118859486367505
0.6865234074520187,3.46300004719552,-3.1494947480520943,-4.234005778182228
0.7211534079239739,3.4139903062579378,-3.1918348058339165,-4.349184771390095
0.7552933109865533,3.374067412670886,-3.2353266535478173,-4.463982241674281
0.7890339851132622,3.343814269100325,-3.27996647596456,-4.578598515720212
0.8224721278042654,3.3236032943798004,-3.325752461121762,-4.693696984693124
0.8557081607480633,3.313699921896728,-3.3726894309686934,-4.810283743209585
0.8888451599670306,3.3143472356032557,-3.420792268400789,-4.92962324031837
0.9219886323230632,3.3258335310266736,-3.470088500803973,-5.053188155210105
0.95524696763333,3.348546775037079,-3.520620382356074,-5.18263900766656
0.9887324353837007,3.383020452309185,-3.57244677243274,-5.319828651342547
1.0225626399067926,3.4299748799105214,-3.6256450589461653,-5.466827485257549
1.0568623887058979,3.4903571266208036,-3.6803133337987406,-5.625966030815918
1.091765959972106,3.565381191924166,-3.7365729941068997,-5.799891701506226
1.1274197718913475,3.6565676396016378,-3.794571911121962,-5.991635219995569
1.163985448287364,3.765777330253853,-3.8544882633219175,-6.204677617013185
1.2016432215899024,3.895224924420949,-3.9165350394920493,-6.442997916335084
1.240595470834112,4.047439751200494,-3.9809650186554,-6.71105808729346
1.281069868346117,4.225105328098731,-4.048075599528334,-7.013633035882117
1.3233209216271042,4.430637493581455,-4.118211929887155,-7.355295901267317
1.3676272965629188,4.665228154589943,-4.1917648888998285,-7.739185147182401
1.4142795781088182,4.9268623056437235,-4.269156740371653,-8.16437371137743
1.4635482011652554,5.206563623154414,-4.350800477485427,-8.620801949742251
1.5156138373967996,5.482252453040717,-4.437008496982849,-9.080893925703334
1.5704363619272068,5.711522643464056,-4.527817436239882,-9.489610398662554
1.6275515883618474,5.830734305518238,-4.622713540226508,-9.763108971856925
1.6858589314170298,5.775220598536462,-4.720344629945077,-9.816421568726302
1.7436111374023944,5.522712998587838,-4.818508845632341,-9.622892039553527
1.7988382673882728,5.118284810532703,-4.9147377660278755,-9.247566848090264
1.8500211154936,4.641473436742377,-5.007213434508778,-8.800939861200511
1.8964358498610236,4.156087251756201,-5.095222833120784,-8.370140445909655
1.9379967223785857,3.6938959579505064,-5.1789242375798805,-7.997686887468653
1.9749356819580908,3.2639792462644697,-5.258901106454567,-7.695227562210372
