th1 (rad),w1 (rad/s),th2 (rad),w2 (rad/s)
4.797360831281033,2.7204325309704114,3.1989953183021576,-2.8692874788335034
4.824565156590737,2.778049572454481,3.1703024435138225,-2.788097444575024
4.8523456523152815,2.840240741426163,3.142421469068072,-2.7031925014801392
4.880748059729543,2.9072892247681166,3.115389544053271,-2.61392284116012
4.909820951977224,2.979503240866621,3.0892503156416695,-2.5196002554530033
4.93961598438589,3.0572143240050638,3.0640543130871394,-2.4194988575676204
4.97018812762594,3.140774025577606,3.0398593245114633,-2.3128578425312734
5.001595867881717,3.230548579245375,3.0167307460861505,-2.198887124810415
5.03390135367417,3.32691096671256,2.9947418748380463,-2.0767768639657285
5.067170463341296,3.4302297168845337,2.973974106198389,-1.9457120707416806
5.101472760510141,3.5408536900880883,2.954516985490972,-1.804893650447138
5.136881297411022,3.659092066835371,2.9364680489865003,-1.6535673467166985
5.173472218079375,3.7851888150170656,2.919932375519333,-1.491062035883014
5.211324106229546,3.9192911001131905,2.905021755160503,-1.316838607450963
5.2505170172306785,4.061411488449943,2.8918533690859936,-1.1305501476760171
5.291131132115178,4.21138443151652,2.8805478676092333,-0.9321132122120424
5.333244976430343,4.368818448893042,2.871226735487113,-0.7217885407859393
5.376933160919274,4.533046640426297,2.8640088500792538,-0.5002676055812056
5.422263627323536,4.7030795644348435,2.859006174023442,-0.2687589912455857
5.469294422967884,4.877565912140355,2.856318584110986,-0.029066057105105847
5.518070082089288,5.054767456924681,2.8560279235399353,0.2163548714293785
5.568617756658535,5.232555037177246,2.858191472254229,0.4643677106224958
5.620943307030307,5.4084314316975926,2.8628351493604542,0.7111725647683089
5.675027621347283,5.57958467175559,2.869946875008137,0.9523728565739646
5.730823468064839,5.742971726093322,2.8794706035738766,1.1830968427338144
5.788253185325773,5.895428179404318,2.8913015720012147,1.3981697948720404
5.847207467119816,6.033795482269843,2.905283269949935,1.5923259067398297
5.9075454219425145,6.155054680284372,2.9212065290173332,1.7604432101455285
5.969095968745358,6.256455036891141,2.9388109611187887,1.897781943041465
6.031660519114269,6.335627795994789,2.9577887805492034,2.0002075632410534
6.0950167970742175,6.390678861393349,2.9777908561816138,2.0643834382271975
6.158923585688151,6.420258215835802,2.9984346905638857,2.0879236939539414
6.223126167846509,6.4236071703698885,3.019313927503425,2.0695019281605327
6.287362239550208,6.400586101251384,3.04000894678503,2.0089149924056904
6.351368100562722,6.351684946076406,3.060098096709087,1.907102213700313
6.4148849500234855,6.278016854998675,3.07916911884609,1.7661196961009027
6.477665118573472,6.181293013143817,3.0968303158070993,1.589067966720089
6.53947804870491,6.063774951104635,3.1127209954743003,1.3799707872083105
6.600115798215956,5.928200651462556,3.1265207033463835,1.1436047465702674
6.659397804730582,5.777682931815234,3.1379567508120862,0.8852837734740728
6.717174634048734,5.615582681971663,3.146809588546827,0.6106093089362314
6.773330460868451,5.4453645368735835,3.1529156816361894,0.32520384604292024
6.8277841062371865,5.2704469723703555,3.1561677200966187,0.034450606199972145
6.88048857596089,5.094061145452118,3.1565122261586183,-0.2567366845366494
6.931429187415412,4.919132195858808,3.1539448593132517,-0.5440934655142804
6.980620509374,4.748193273266919,3.148503924658109,-0.8241205244891721
7.028102442106669,4.583337252366439,3.1402627194132173,-1.0941333266280784
7.0739358146303335,4.426205423372055,3.1293213861469367,-1.3522502919327137
7.118197868864054,4.278007774181747,3.1157988832276096,-1.5973325806783092
7.160977946605872,4.139566648163196,3.0998255574208264,-1.828891299349918
7.202373613087504,4.011374724162549,3.0815366444273273,-2.0469781019740383
7.24248736032913,3.893659040654811,3.061066863407587,-2.2520728194009583
7.281423950735678,3.7864445338373662,3.0385461352135774,-2.4449781681554517
7.319288396074052,3.689612645208346,3.014096353532023,-2.6267278082245706
7.356184522526135,3.6029525078200852,2.9878290754497776,-2.798510730791632
7.392214047604336,3.526203782048439,2.959843968141861,-2.9616124878646284
7.42747608542482,3.45909129956544,2.9302278432632147,-3.117372165076663
7.462066998420474,3.4013523213030643,2.899054121612448,-3.2671531165016567
7.496080521633505,3.3527575079211775,2.8663825904474316,-3.4123251274429203
7.5296080967127175,3.313126734490325,2.832259339173002,-3.55425564565178
7.562739364057621,3.2823407316666477,2.7967167827164845,-3.694307847973869
7.595562771374287,3.26034924958849,2.759773704236746,-3.8338434441660216
7.628166263870172,3.2471760271536585,2.7214352697950854,-3.9742281388058562
7.660638024141709,3.242920275322116,2.681692988407027,-4.116837450792188
7.69306722689493,3.2477535649824776,2.640524613899105,-4.26305997283971
7.725544762544755,3.2619097978652616,2.597894014170708,-4.41429391913834
7.758163860523407,3.285664093995261,2.5537510749793246,-4.5719306263272195
7.791020501463359,3.319293598816216,2.5080317687160525,-4.737315055867473
7.8242134374515215,3.3630089311654268,2.4606586181573777,-4.911667646476115
7.857843526763176,3.416838779934011,2.4115419416926165,-5.095943400975969
7.8920119145625165,3.4804419193664025,2.3605825076828566,-5.290592688053064
7.9268163337561806,3.5528121000467596,2.307676580802326,-5.495175817830262
7.962344454756648,3.6318376556290604,2.2527248226240233,-5.707777875897829
7.998662831312939,3.7136948051853684,2.195647043865045,-5.924192992738267
8.035799779364792,3.7921242013620025,2.1364051139376623,-6.136943418938557
8.073721021378413,3.8578128438589854,2.0750356797482765,-6.334436024193794
8.112299149817003,3.8983979303522593,2.0116913195063386,-6.500965268664973
8.151283129120525,3.899876047535438,1.946681666819689,-6.618640410384684
8.19028188959588,3.849950790490791,1.880495262715842,-6.671966706517168
8.228781397500788,3.7425297352669062,1.8137755956506703,-6.653978927581415
8.266206694853457,3.5807807856604663,1.747235806374856,-6.570344518749751
8.302014502710062,3.3762017491137555,1.6815323611873585,-6.4379514376244735
8.335776520201199,3.144114863141489,1.6171528468111138,-6.2786190816679825
8.367217668832614,2.8987536495617743,1.554366655994434,-6.112350772282776
8.396205205328233,2.6505301267799997,1.4932431482716062,-5.953672019167946
8.422710506596033,2.4056794984976966,1.4337064280799268,-5.811260293925178
8.44676730158101,2.1671530771843206,1.375593825140675,-5.689263291864626
8.468438832352854,1.9357495386562136,1.3187011922220286,-5.5889039055497305
8.487796327739416,1.7110264953477867,1.2628121531665313,-5.509750719466078
8.504906592692894,1.4919087716771493,1.2077146459718704,-5.4505518064141985
8.519825680409665,1.2770532179958027,1.1532091279077283,-5.4097235577063865
8.532596212589624,1.0650520206330436,1.0991118923306644,-5.38561256957498
8.543246732795954,0.8545390088913051,1.0452557666349147,-5.376621722007735
8.551792122884867,0.6442414082426214,0.9914895494148374,-5.3812596527206065
8.558234536967294,0.43300268919458684,0.9376769528876313,-5.398148954034813
8.56256456385924,0.21979127971492168,0.8836954633472832,-5.426013153788949
8.564762476656389,0.0037033671117396305,0.8294353318093938,-5.463653491617602
8.564799510327507,-0.21603577394368118,0.7747987968932177,-5.50992137366273
8.562639152588071,-0.44006965117373453,0.7196995831565904,-5.563689584891832
8.558238456076333,-0.6689065823109288,0.6640626873076722,-5.623823870296556
8.551549390253225,-0.9029135686465453,0.6078244486047066,-5.689155784849978
8.54252025456676,-1.142308160407469,0.5509328907562069,-5.758457425308347
8.531097172962685,-1.3871487792839297,0.4933483165031234,-5.830418604574768
8.517225685169846,-1.6373242130757422,0.4350441304573757,-5.903627098954478
8.500852443039088,-1.8925432072741333,0.37600785946783094,-5.976552718431356
8.481927010966347,-2.152325253635366,0.3162423322835174,-6.047536068289854
8.460403758429994,-2.4159938051204386,0.25576697160061884,-6.114782944721517
8.43624382037879,-2.6826732082689166,0.19461914215340367,-6.176365300965538
8.4094170882961,-2.9512906120028033,0.13285548914374828,-6.230229604264604
8.379904182176073,-3.220583962301728,0.07055319310110225,-6.2742131588414605
8.347698342553056,-3.48911691172263,0.00781106151268765,-6.306068594990817
8.312807173435829,-3.755301066127973,-0.05524962443722052,-6.32349624145137
8.27525416277455,-4.017425487280636,-0.11848458685173421,-6.324183556293075
8.235079907901744,-4.27369282419446,-0.18172642241466497,-6.305850263516825
8.192342979659799,-4.522260934363478,-0.24478492504983324,-6.266297415121078
8.147120370316165,-4.7612884626377285,-0.307447899201044,-6.203458353961472
8.099507485689788,-4.9889826441255,-0.3694824827406587,-6.115449546268677
8.049617659248533,-5.203647629089445,-0.43063697820334546,-6.000619489152168
7.997581182957639,-5.403731882834038,-0.49064317309486716,-5.857594318458484
7.943543864129298,-5.587873624430133,-0.549219116279452,-5.685319223437519
7.887665127884997,-5.754943716940294,-0.6060723085138272,-5.483095151677649
7.830115690715594,-5.904085764940024,-0.6609032600306037,-5.25061039198976
7.771074833066194,-6.034753280406604,-0.7134093639505014,-4.987966332561479
7.710727300262128,-6.146743566963976,-0.7632890272761161,-4.695695982243258
7.649259864592489,-6.240227456488681,-0.8102459870985487,-4.374772822824454
7.586857590027602,-6.315773331607119,-0.8539937153267932,-4.026606478057464
7.523699856711531,-6.374363203786408,-0.8942597801073678,-3.653020895689763
7.459956224673666,-6.4173982704252115,-0.9307899890642655,-3.2562106245859175
7.395782241969414,-6.446691614863106,-0.9633520953101247,-2.8386716267578644
7.331315325820783,-6.464446710439686,-0.9917388115777033,-2.4031049802958675
7.266670858716386,-6.473222136288274,-1.015769861380662,-1.9522945889725831
7.2019386373535035,-6.475885188834274,-1.035292807270388,-1.488963089894543
7.137179785465161,-6.475559481094962,-1.0501824381693334,-1.0156127987041972
7.072424190654211,-6.475573691156501,-1.0603385661563753,-0.5343599887102883
7.007668453742646,-6.4794199544426565,-1.0656821660434783,-0.046770514690230525
6.94287425419822,-6.490730797747052,-1.0661498711903805,0.4462973904184995
6.877966946220749,-6.513283048121132,-1.0616868972861955,0.9448410871568209
6.812834115739538,-6.551036066711245,-1.0522384864146272,1.4498548433560465
6.747323755072425,-6.608210190387112,-1.0377399379810668,1.9634714963037325
6.681241653168554,-6.689409254316312,-1.0181052230180294,2.489114190919538
6.614347560625391,-6.799787275277047,-0.993214081108834,3.0316663219492144
6.54634968787262,-6.945250016912028,-0.9628974178893419,3.5976562578071727
6.4768971877035,-7.132657511223952,-0.9269208553112702,4.195418444865666
6.40557061259126,-7.369929846329498,-0.8849666708626136,4.835101149007439
6.331871314127965,-7.665798662267306,-0.8366156593725392,5.528164127984608
6.255213327505292,-8.028560770654869,-0.7813340180926931,6.2854653722328395
6.174927719798743,-8.462318531933134,-0.7184793643703646,7.1118119482358875
6.090304534479412,-8.957526716486914,-0.6473612448880057,7.992518351575429
6.000729267314543,-9.471014866054698,-0.5674360613722514,8.865222250789733
5.906019118653996,-9.896284595910666,-0.4787838388643541,9.57819329797755
5.807056272694889,-10.059241560618501,-0.3830019058845786,9.884807766923142
5.706463857088704,-9.823358450379521,-0.2841538282153472,9.592472381917117
5.608230272584909,-9.257951842714201,-0.18822910439617602,8.800253139126436
5.515650754157767,-8.58281781783835,-0.10022657300491165,7.8209670779583975
5.429822575979384,-7.957338157919224,-0.022016902225327678,6.883572677436947
5.350249194400192,-7.4323438189956805,0.04681882454904179,6.064118763249815
5.275925756210235,-7.005611900299104,0.10746001218153994,5.3630569266852905
5.205869637207244,-6.660871046578039,0.16109058144839283,4.760090712305259
5.139260926741464,-6.381617291702633,0.20869148857144543,4.233862916878267
5.075444753824438,-6.154356404722465,0.2510301177402281,3.766772177820024
5.013901189777213,-5.968686966608595,0.2886978395184283,3.3452856924579324
4.954214320111127,-5.816684239469527,0.32215069644300764,2.959213923711194
4.896047477716432,-5.692266721095018,0.3517428356801196,2.6009223057986692
4.839124810505481,-5.590691704465342,0.3777520587381063,2.2646981969597877
4.783217893460828,-5.508182267257081,0.40039904070770416,1.946284142408653
4.728136070788257,-5.441658099262435,0.4198618821317907,1.6425426024258634
4.673719489795633,-5.388542814254076,0.4362873081560493,1.3512151388316154
4.6198340616530915,-5.346626784890554,0.44979945954436545,1.0707464757783836
4.566367793804186,-5.313970677916289,0.4605069243021493,0.8001516496212051
4.5132280870250225,-5.288839448695659,0.46850844079836135,0.5389107039903778
4.460339692538066,-5.26965963368904,0.4738975478382651,0.2868800960776606
4.407643096201176,-5.254994691853743,0.47676634879904173,0.04421357288249217
4.355093149282639,-5.243534228005316,0.4772084845278666,-0.18871188246378232
4.302657807002586,-5.234093471630361,0.4753213657032288,-0.4113671226844565
4.250316872286282,-5.2256196273419935,0.4712076944763842,-0.6231391490973383
4.1980606760128625,-5.2172018616558,0.4649763029854108,-0.8233954790240126
4.145888657396305,-5.20808190286103,0.4567423481951707,-1.0115424852485275
4.093807838367694,-5.197662606622222,0.4466269233426854,-1.1870752832550393
4.041831212301473,-5.185512412273219,0.434756170510135,-1.3496169431422944
3.9899760881787403,-5.171364349541731,0.42126000107871203,-1.4989454589353464
3.938262444683323,-5.155109067042286,0.40627054648935856,-1.63500786073073
3.8867113540129,-5.136782132026184,0.38992046788205126,-1.7579219080165147
3.835343532692638,-5.116546491672429,0.3723412488018861,-1.8679667629776595
3.7841780677759136,-5.094671417708766,0.35366158117210955,-1.9655647621625623
3.7332313535988257,-5.071509451666957,0.3340059335504839,-2.0512568038438403
3.6825162590821563,-5.047472845212496,0.3134933655120455,-2.1256739396809285
3.6320415306300315,-5.023010798716441,0.2922366261152362,-2.189507554281111
3.581811422642867,-4.998588506864776,0.2703415505724251,-2.243480120571863
3.5318255375742194,-4.974668687133768,0.24790674936670645,-2.288318027015062
3.4820788507028815,-4.951695947749284,0.22502356909655583,-2.324727468187723
3.432561891225389,-4.930084081203654,0.2017762944146786,-2.3533739345916924
3.3832610504133522,-4.910206164929706,0.17824255506876166,-2.3748654670603626
3.334158988764055,-4.892387215497596,0.15449390039815802,-2.389739569783709
3.285235116609079,-4.876899070266515,0.13059650470032094,-2.39845350119079
3.236466125906414,-4.863957149233906,0.10661196968841304,-2.401377570951923
3.187826554414075,-4.853718766738235,0.0825981939788938,-2.3987910467466675
3.1392893667466923,-4.846282705274188,0.05861028351142712,-2.3908802980034576
3.0908265396939503,-4.841689821484838,0.03470148053139255,-2.3777388589786166
3.042409641479102,-4.839924519201782,0.01092409194160638,-2.359369166387601
2.9940103962870843,-4.840916990112495,-0.01266959972226963,-2.335685806195315
2.9456012263859592,-4.844546184784428,-0.03602645778422278,-2.306520181358275
2.8971557645381147,-4.850643531988897,-0.05909165959780553,-2.2716265802668123
2.8486493292182256,-4.858997469720532,-0.08180792540047366,-2.230689678411616
2.80005935452102,-4.869358884315652,-0.10411482218458981,-2.183333537993642
2.7513657656778636,-4.881447571843258,-0.12594815756452624,-2.1291321766674924
2.702551289959431,-4.8949598355366835,-0.14723947933120116,-2.0676217525051777
2.653601691604064,-4.909577311574519,-0.16791569685625293,-1.9983143534370007
2.604505918488319,-4.924977070665987,-0.18789884039062293,-1.9207132832182428
2.555256147781659,-4.940842973589813,-0.20710597322280536,-1.834329602402557
2.505847718045761,-4.9568781662554136,-0.22544926924683092,-1.7386995159693788
2.4562789363832067,-4.972818488454635,-0.24283626440652473,-1.6334020087167527
2.4065507514986604,-4.988446448869955,-0.2591702844936923,-1.5180759313144077
2.356666287009961,-5.003605300310855,-0.27435104380683634,-1.3924355565673923
2.3066302340068523,-5.018212650964546,-0.28827539937251023,-1.2562834846751054
2.256448107497207,-5.0322729897288,-0.3008382342192613,-1.1095197077298504
2.206125377599919,-5.04588850638566,-0.3119334312965598,-0.9521456738924324
2.1556664925360622,-5.059267666525615,-0.32145488803548417,-0.7842623376074357
2.105073815870806,-5.072731164799808,-0.3292975114115585,-0.6060614449172383
2.0543465042228077,-5.0867151249697615,-0.3353581258607309,-0.41780966271799225
2.0034793529731103,-5.101771725301938,-0.3395362224879108,-0.2198255760157136
1.952461635720091,-5.11856777588168,-0.34173447824806796,-0.01244998776984238
1.9012759579612741,-5.137882126740843,-0.3418589781257664,0.20398970854004295
1.8498971366938657,-5.160603109565005,-0.33981908104036596,0.42922012193449854
1.7982911055982156,-5.187727487663132,-0.335526879821021,0.6630664693159251
1.7464138307215842,-5.2203626018252205,-0.3288962151278617,0.905500482969962
1.694210204703332,-5.25973356748502,-0.3198412102981621,1.156691397754273
1.641612869028482,-5.307197536335166,-0.30827429632061937,1.4170605183311749
1.5885408936651302,-5.364267235970906,-0.2941036911373076,1.687340803706388
1.5348982213054212,-5.432646307336388,-0.2772302831002437,1.968644035435081
1.4805717582320572,-5.51427943298849,-0.2575438427458929,2.2625394375530234
1.4254289639021722,-5.6114209267007125,-0.2349184483703627,2.5711490572907243
1.3693147546351652,-5.726726301130809,-0.20920695779745543,2.89726668748982
1.3120474916238571,-5.863372119400892,-0.18023429092255724,3.2445082643016514
1.2534137704298483,-6.025209462331082,-0.14778920827954073,3.617501499536722
1.1931616758065373,-6.21695369998313,-0.1116141932841735,4.022118318319999
1.130992138806706,-6.4444030574704545,-0.07139301010097351,4.4657385876994375
1.0665481082320014,-6.714648441302935,-0.02673562422397914,4.957490374721451
0.999401623818972,-7.036156743467653,0.022839279523235376,5.508297823892155
0.9290400563842955,-7.4184056513603345,0.07792225776215693,6.130279153048547
0.8548559998706922,-7.870250851312398,0.1392250492926424,6.834337020774942
0.7761534913575682,-8.395087455042024,0.20756841950039184,7.623210402395066
0.6922026168071479,-8.978819431472907,0.2838005235243425,8.474383395669028
0.6024144224924188,-9.565281846352905,0.36854435748103276,9.30534632169534
0.5067616040288898,-10.024274441641749,0.46159782069798616,9.928571649757155
0.4065188596124723,-10.165339906108812,0.5608835371955577,10.071213987358076
0.3048654605513842,-9.885018571095179,0.6615956770691385,9.583217575405216
0.20601527484043242,-9.31632873805146,0.7574278528231906,8.648893689974214
0.11285198745991781,-8.69139219858307,0.8439167897229327,7.594544716472774
0.025938065474087113,-8.142891536788207,0.9198622368876604,6.608620698302801
-0.05549084989379496,-7.702531674558423,0.9859484438706885,5.737952825478625
-0.1325161666393792,-7.361611240890833,1.0433279721254747,4.97199583293561
-0.20613227904828754,-7.102901585597031,1.0930479304548308,4.287560958399856
-0.27716129490425784,-6.91050243209982,1.1359235400388294,3.66289929820889
-0.346266319225256,-6.771707778558525,1.1725525330209183,3.0805981962272324
-0.4139833970108413,-6.676690687099979,1.2033585149831907,2.5273898456428987
-0.4807503038818411,-6.617788941481827,1.2286324134396196,1.9933727114865145
-0.5469281932966593,-6.588852673439734,1.2485661405544848,1.471298695304347
-0.6128167200310567,-6.5847372471476255,1.2632791275075284,0.9560431757295418
-0.6786640925025329,-6.60093066861329,1.2728395592648238,0.44423591051914313
-0.7446733991886658,-6.6332900155627605,1.2772819183700153,-0.06599603102579876
-0.8110062993442935,-6.677865735030333,1.2766219580597573,-0.5752197472651824
-0.8777849566945968,-6.730799059404412,1.2708697605871055,-1.0828600740693435
-0.9450929472886409,-6.788281813089565,1.260041159846412,-1.587363055746665
