th1 (rad),w1 (rad/s),th2 (rad),w2 (rad/s),a1 (rad/s^2),a2 (rad/s^2)
4.091393995081629,-1.4270926474499637,1.9978407982979272,0.8008761899976752,6.7471933563120245,-3.786625391027761
4.077123068607129,-1.3596207138868435,2.005849560197904,0.7630099360873975,6.655935980048204,-4.071445567170214
4.063526861468261,-1.2930613540863614,2.013479659558778,0.7222954804156954,6.576465478762803,-4.3391892232226015
4.050596247927397,-1.2272966992987333,2.020702614362935,0.6789035881834693,6.507360266099063,-4.590826884093923
4.03832328093441,-1.1622230966377427,2.02749165024477,0.6329953193425301,6.447263402380285,-4.827209941294717
4.0267010499680325,-1.0977504626139398,2.033821603438195,0.5847232199295829,6.394885711863072,-5.049075494624213
4.015723545341893,-1.0338016054953092,2.039668835637491,0.5342324649833408,6.349007410461942,-5.257054136755768
4.00538552928694,-0.9703115313906898,2.0450111602873244,0.4816619236157831,6.308478806943328,-5.451679742289246
3.995682413973033,-0.9072267433212565,2.0498277795234823,0.42714512619289063,6.272220479361647,-5.633400543295589
3.9866101465398205,-0.8445045385276401,2.054099230785411,0.3708111207599347,6.2392232018310985,-5.80259094079327
3.978165101154544,-0.7821123065093291,2.0578073419930103,0.312785211352002,6.208547798367321,-5.959563627324695
3.970343978089451,-0.7200268285256558,2.06093519410653,0.25318957507875506,6.179325025219287,-6.104581689440842
3.963143709804194,-0.658233578273463,2.0634670898573177,0.19214375818434665,6.150755526490468,-6.237870428363522
3.9565613740214594,-0.5967260230085583,2.0653885274391612,0.1297650539007114,6.122109866387074,-6.359628688757636
3.950594113791374,-0.5355049243446875,2.0666861779781684,0.06616876701313505,6.092728612291454,-6.470039524458414
3.945239064547927,-0.474577638221773,2.0673478656483,0.0014683717685509134,6.06202242376842,-6.569280060071595
3.940493288165709,-0.4139574139840888,2.0673625493659853,-0.06422442883216503,6.029472091746917,-6.657530431556533
3.936353714025868,-0.3536626930666196,2.0667203050776637,-0.13079973314773036,5.994628468001915,-6.73498170938274
3.932817087095202,-0.29371640838660046,2.0654123077461866,-0.19814955024155778,5.957112226478685,-6.801842726141563
3.9298799230113364,-0.23414528612181362,2.063430812243771,-0.2661679775029734,5.91661340393995,-6.858345747592825
3.927538470150118,-0.17497915208241413,2.060769132468741,-0.33475143497890164,5.872890677011711,-6.904750942602861
3.925788678629294,-0.11625024531229702,2.0574216181189517,-0.40379894440493025,5.8257703452050675,-6.941349623517178
3.924626176176171,-0.05799254186024635,2.0533836286749025,-0.47321244064010204,5.775145004236112,-6.968466244171855
3.9240462507575686,-0.00024109181788522366,2.0486515042685016,-0.5428971030818206,5.7209719103622145,-6.986459157736117
3.9240438398393898,0.05696862728573692,2.0432225332376834,-0.6127616946591817,5.663271053969443,-6.995720150489586
3.924613526112247,0.11360133782543136,2.0370949162910916,-0.6827188961640775,5.6021229788087314,-6.996672779949544
3.9257495394905013,0.16962256761351868,2.0302677273294507,-0.752685623963573,5.537666401670737,-6.989769555877358
3.9274457651666363,0.22499923163022606,2.022740871089815,-0.8225833195223465,5.470095705555687,-6.975488009967977
3.9296957574829388,0.27970018868578295,2.0145150378945917,-0.8923381996220263,5.399658397246465,-6.954325703814122
3.9324927593697967,0.3336967726582476,2.0055916558983715,-0.9618814566601676,5.326652637416391,-6.926794224416174
3.935829727096379,0.3869632990324115,1.9959728413317699,-1.0311493989043292,5.2514249678610945,-6.893412211521738
3.939699360086703,0.43947754871102246,1.9856613473427267,-1.1000835210195465,5.174368376077593,-6.854697450968595
3.9440941355738133,0.4912212324717984,1.9746605121325311,-1.1686304955292326,5.095920852230993,-6.8111580526580395
3.949006347898531,0.5421804409941083,1.962974207177239,-1.236742076055813,5.0165646075996575,-6.763282710686075
3.954428152308472,0.5923460870701049,1.9506067864166807,-1.3043749031626737,4.936826136917551,-6.711530016654171
3.960351613179173,0.6417143484392804,1.937563037385054,-1.3714902033292153,4.857277319600144,-6.656316765772221
3.9667687566635657,0.6902871216352818,1.923848135351762,-1.4380533709869376,4.7785377664089985,-6.598005160047258
3.9736716278799187,0.7380724992993718,1.9094676016418926,-1.5040334225874101,4.701278628065563,-6.536888775304001
3.9810523528729123,0.7850852855800274,1.8944272674160185,-1.5694023103404502,4.626228089425353,-6.473177121668824
3.9889032057287124,0.831347566474281,1.8787332443126141,-1.6341340815571384,4.55417877484739,-6.406978594537558
3.9972166813934553,0.8768893542227549,1.8623919034970426,-1.698203867502514,4.485997283649997,-6.338281591032048
4.005985574935683,0.9217493270592549,1.8454098648220174,-1.7615866834128344,4.422636053208838,-6.266933564513449
4.015203068206276,0.9659756875913433,1.827793997987889,-1.8242560190579689,4.365147702487663,-6.192617819920365
4.024862825082189,1.00962716461622,1.8095514377973092,-1.8861821972571726,4.314701927597858,-6.114827934246041
4.034959096728351,1.0527741838921987,1.7906896158247374,-1.947330476599633,4.272604884783349,-6.032839845717402
4.045486838567273,1.0955002327400323,1.771216311058741,-2.007658875056807,4.240320779209596,-5.945681928573193
4.056441840894673,1.1379034405321282,1.751139722308173,-2.0671156943425393,4.219495045323499,-5.852103806722741
4.0678208752999945,1.1800983909853633,1.7304685653647476,-2.1256367324097667,4.211978011203648,-5.7505453227414165
4.0796218592098485,1.2222181710973998,1.7092121980406498,-2.183142185637181,4.219847229472052,-5.639108047879157
4.091844040920822,1.2644166433921205,1.687380776184278,-2.2395332661159726,4.245425666959747,-5.515533086042814
4.104488207354744,1.306870900061718,1.6649854435231184,-2.2946885969764006,4.291291609605242,-5.377190785126204
4.117556916355361,1.3497838161577704,1.6420385575533545,-2.3484605048276626,4.36027440893659,-5.22109039859273
4.1310547545169385,1.3933865602471363,1.6185539525050778,-2.4006714088135896,4.4554280696136175,-5.043920753446583
4.14498862011941,1.4379408409432723,1.594547238416942,-2.4511106163480556,4.579972250598236,-4.84213645857586
4.159368028528842,1.4837405634492546,1.5700361322534613,-2.4995319809338143,4.737187801166272,-4.612107765621482
4.174205434163334,1.5311124414609174,1.545040812444123,-2.545653058590029,4.930252040203716,-4.350355109947379
4.189516558577943,1.5804149618629546,1.5195842818582228,-2.589156609689503,5.161998587946219,-4.053890270845645
4.205320708196573,1.6320349477424168,1.4936927157613278,-2.6296955123979595,5.43458915881629,-3.720682929993611
4.221641057673997,1.6863808393305797,1.4673957606373482,-2.6669023416978956,5.749092301281971,-3.35026138581012
4.238504866067303,1.7438717623433995,1.4407267372203694,-2.700404955555997,6.1049788169372485,-2.944436155174282
4.255943583690737,1.804921550512772,1.4137226876648095,-2.72984931710774,6.499567171031822,-2.5081026705719376
4.273992799195865,1.8699172222230902,1.386424194493732,-2.7549303438134594,6.927484414667149,-2.0500342831439253
4.292691971418096,1.9391920663697617,1.3588748910555974,-2.775430686644899,7.380245041772175,-1.5835244694049764
4.312083892081794,2.0129945167874834,1.3311205841891485,-2.7912659313389487,7.846082392195893,-1.1266903507134671
4.332213837249668,2.0914553407094423,1.303207924875759,-2.8025328348460836,8.310179513536372,-0.7022294825607279
4.353128390656763,2.174557135844806,1.2751825965272983,-2.8095551296716907,8.755420893448273,-0.33645377898239215
4.374873962015211,2.2621113447792887,1.2470870452305813,-2.8129196674615145,9.16371004101959,-0.05752782023543016
4.397495075463003,2.3537484451894843,1.2189578485559662,-2.813494945663869,9.517772863349574,0.10698793323837111
4.421032559914898,2.44892617382298,1.1908228990993275,-2.8124250663314854,9.803219435090982,0.13298029465009475
4.445521821653128,2.54695836817389,1.1626986484360127,-2.8110952633849844,10.01051571162276,0.0025280549591733398
4.470991405334867,2.647063525290118,1.1345876958021628,-2.8110699828353924,10.136476230200378,-0.2940038405237713
4.497462040587768,2.7484282875921218,1.1064769959738088,-2.8140100212406303,10.184961563749104,-0.7569824773886243
4.5249463234636895,2.8502779032296126,1.0783368957614026,-2.8215798460145165,10.166638989231627,-1.3778632462607212
4.553449102495986,2.951944293121929,1.0501210973012574,-2.8353584784771235,10.09788541972488,-2.1408031411136235
4.582968545427205,3.052923147319178,1.0217675125164862,-2.85676650988826,9.999101912800507,-3.0251785694270463
4.613497776900397,3.152914166447183,0.9931998474176036,-2.8870182955825303,9.892808930800948,-4.00850572997797
4.645026918564869,3.2518422557551925,0.9643296644617783,-2.92710335288231,9.801882516125493,-5.069264653974592
4.677545341122421,3.3498610809164475,0.9350586309329552,-2.9777959994220558,9.748197907869894,-6.189254007526168
4.711043951931586,3.4473430599951467,0.9052806709387347,-3.0396885394973174,9.751816500389966,-7.355288563905053
4.7455173825315375,3.5448612249990465,0.8748837855437614,-3.113241425136368,9.830730800481376,-8.560230151048959
4.780965994781528,3.6431685330038603,0.8437513712923977,-3.1988437266468575,10.001099035404561,-9.803474143080125
4.817397680111567,3.743179523357906,0.8117629340259291,-3.296878468077659,10.277864292888218,-11.091084489976176
4.854829475345146,3.8459581662867883,0.7787941493451526,-3.4077893129774206,10.675655519965819,-12.435790054943045
4.893289057008014,3.9527147214864464,0.7447162562153784,-3.532147213526851,11.209896004959118,-13.857043067279207
4.9328162042228785,4.064813681536037,0.7093947840801099,-3.670717644199643,11.898086224080162,-15.381316743758084
4.973464341038238,4.183794543776839,0.6726876076381135,-3.824530811637224,12.761273066703561,-17.04279871665693
5.015302286476007,4.311407274443875,0.6344422995217412,-3.9949587988037933,13.82576141022534,-18.88462837378558
5.058416359220446,4.4496648885461285,0.5944927115337033,-4.1838050825416495,15.125163737239577,-20.9608310067612
5.102913008105907,4.6009165259185245,0.5526546607082868,-4.393413392609261,16.702913603876617,-23.33911182875299
5.148922173365093,4.767945661957291,0.5087205267821943,-4.6268045108967915,18.615372924300246,-26.104662346571907
5.196601629984666,4.954099391200294,0.46245248167322633,-4.887851134362511,20.93559421142626,-29.365030818074807
5.246142623896668,5.163455333314556,0.41357397032960125,-5.181501442543259,23.757531320724127,-33.255739017825924
5.297777177229814,5.401030646521797,0.3617589559041687,-5.514058832721518,27.199700342478675,-37.94523311994452
5.351787483695031,5.673027649946584,0.3066183675769535,-5.893511163920963,31.405144249290032,-43.634774757263436
5.408517760194497,5.987079092439484,0.24768325593774385,-6.329858911493598,36.52894517304157,-50.54106491093173
5.468388551118892,6.3523685441699,0.18438466682280785,-6.8352695606029155,42.690253594736504,-58.829460374889216
5.531912236560591,6.779271080117264,0.11603197121677869,-7.4235641643518075,49.83091440167901,-68.41681725870983
5.599704947361763,7.277580224134055,0.04179632957326061,-8.107732336938906,57.34570214396799,-78.45491131881741
5.672480749603104,7.8510372455737345,-0.03928099379612844,-8.89228145012708,63.227019113187524,-86.13351396065715
5.750991122058841,8.48330743670561,-0.12820380829739925,-9.753616589733651,62.53801297697,-84.54008577080285
5.8358241964258974,9.10868756647531,-0.22573997419473577,-10.59901744744168,46.57331560850839,-61.47808648227248
5.92691107209065,9.574420722560395,-0.33173014866915257,-11.213798312264405,8.97521403246149,-8.030572308998684
6.022655279316254,9.66417286288501,-0.4438681317917966,-11.294104035354392,-37.828950960226415,58.43075678711722
6.119297007945104,9.285883353282745,-0.5568091721453405,-10.70979646748322,-66.28565452226474,99.42898970795379
6.212155841477931,8.623026808060098,-0.6639071368201728,-9.715506570403681,-69.2076347047602,104.98188313036479
6.298386109558532,7.930950461012496,-0.7610622025242095,-8.665687739100033,-59.816088622646355,93.50879166335973
6.3776956141686565,7.332789574786032,-0.8477190799152099,-7.730599822466435,-48.40987295023314,79.3049455538437
6.451023509916517,6.8486908452837,-0.9250250781398742,-6.937550366927998,-38.450447930462055,67.16050800964406
6.519510418369354,6.46418636597908,-0.9944005818091542,-6.265945286831558,-30.434447023243376,57.76084398722492
6.5841522820291445,6.159841895746646,-1.05706003467747,-5.6883368469593085,-24.07267692694249,50.70634841910347
6.645750700986611,5.919115126477221,-1.113943403147063,-5.181273362768274,-18.979061607410106,45.46210359394156
6.704941852251383,5.72932451040312,-1.1657561367747458,-4.726652326828859,-14.833310602749407,41.57967413524824
6.762235097355414,5.5809914043756255,-1.2130226600430343,-4.310855585476376,-11.398561486930559,38.71915366368067
6.81804501139917,5.46700578950632,-1.256131215897798,-3.9236640488395693,-8.506918310466688,36.6272455637873
6.872715069294234,5.381936606401653,-1.2953678563861937,-3.557391593201696,-6.042333015090501,35.11187607475237
6.92653443535825,5.321513276250748,-1.3309417723182106,-3.2062728324541725,-3.9270276238971666,34.02193623317984
6.9797495681207575,5.282243000011777,-1.3630045006427525,-2.866053470122374,-2.111690637688926,33.232695334609694
7.032571998120876,5.261126093634887,-1.3916650353439761,-2.533726516776277,-0.5684379138294665,32.63585764145262
7.085183259057224,5.255441714496593,-1.417002300511739,-2.2073679403617508,0.7145125811828341,32.13327738054538
7.137737676202191,5.262586840308421,-1.4390759799153565,-1.8860351665562969,1.7372876431085145,31.633665802138662
7.190363544605275,5.279959716739506,-1.4579363315809195,-1.5696985085349102,2.4925143698668886,31.051862057986963
7.24316314177267,5.304884860438174,-1.4736333166662685,-1.2591798879550407,2.969518488172771,30.31031165404833
7.296211990377052,5.334580045319902,-1.4862251155458188,-0.9560767714145573,3.158635506742427,29.342300760126008
7.349557790830251,5.366166400387327,-1.4957858832599644,-0.6626537638132972,3.0554390838654713,28.096277463134914
7.403219454834124,5.396720791225981,-1.5024124208980973,-0.38169098918194805,2.6644647750541326,26.54034313091413
7.457186662746384,5.423365438976522,-1.5062293307899168,-0.11628755787280676,2.0018850778942556,24.665842763419096
7.5114203171361495,5.443384289755465,-1.507392206368645,0.1303708697613842,1.0966332665423226,22.489041817560267
7.565854160033704,5.454350622420888,-1.5060884976710311,0.35526128793698686,-0.010304031388339194,20.050205596257054
7.620397666257913,5.454247582107005,-1.5025358847916612,0.5557633438995574,-1.2683539457102975,17.409945793804376
7.674940142078984,5.441564042649902,-1.4969782513526657,0.7298628018376012,-2.6211442121986486,14.643312696497464
7.729355782505483,5.415352600527916,-1.4896796233342897,0.8762959288025759,-4.010912185289885,11.832593831008717
7.783509308510761,5.375243478675017,-1.4809166640462639,0.9946218671126631,-5.3827750080224295,9.059982011071657
7.837261743297511,5.3214157285947925,-1.4709704453751373,1.0852216872233797,-6.68823344581316,6.4011637426641155
7.89047590058346,5.2545333941366605,-1.4601182285029035,1.1492333246500208,-7.887541860605888,3.9205361676196837
7.943021234524826,5.175657975530601,-1.4486258952564033,1.1884386863262177,-8.950861868307694,1.6683332056225466
7.994777814280132,5.086149356847525,-1.4367415083931412,1.2051220183824431,-9.858342970628813,-0.3204339712734017
8.045639307848607,4.987565927141237,-1.4246902882093166,1.2019176786697092,-10.599399630062651,-2.0255613196756954
8.09551496712002,4.88157193084061,-1.4126711114226196,1.1816620654729522,-11.171484490808295,-3.440200328199482
8.144330686428425,4.769857085932527,-1.4008544907678901,1.1472600621909574,-11.578621511686768,-4.568797511708523
8.19202925728775,4.6540708708156595,-1.3893818901459807,1.101572087073872,-11.829896180312222,-5.4247764380031205
8.238569965995907,4.535771909012538,-1.378366169275242,1.047324322693841,-11.938030469794112,-6.028217430458461
8.283927685086033,4.4163916043145965,-1.3678929260483037,0.9870421483892563,-11.918113192778321,-6.403700584323611
8.328091601129179,4.297210472386813,-1.3580225045644112,0.9230051425460202,-11.786516627826316,-6.578407130967839
8.371063705853047,4.17934530610855,-1.348792453138951,0.8572210712363417,-11.560005908611855,-6.5805240011732655
8.412857158914132,4.063745247022431,-1.3402202424265877,0.7914158312246091,-11.255034241877167,-6.43796299925224
8.453494611384357,3.951194904603659,-1.3323060841143415,0.7270362012320867,-10.887210135795593,-6.177384392456607
8.493006560430395,3.842322803245703,-1.3250357221020206,0.6652623573075206,-10.470919274216637,-5.823500871697062
8.531429788462852,3.7376136105035367,-1.3183830985289453,0.60702734859055,-10.019081669906265,-5.398629116950651
8.568805924567886,3.637422793804474,-1.3123128250430398,0.5530410574210435,-9.543023553147256,-4.92245118731799
8.60518015250593,3.5419925582730016,-1.3067824144688294,0.5038165455478636,-9.052442984595928,-4.411945948160618
8.64060007808866,3.4514681284270425,-1.3017442490133508,0.4596970860662574,-8.555448510305268,-3.8814513039195484
8.67511475937293,3.36591364332399,-1.2971472781526883,0.42088257302706195,-8.058651351706187,-3.3428206744663274
8.70877389580617,3.285327129806928,-1.2929384524224177,0.38745436628239865,-7.567293563765147,-2.8056413881548017
8.74162716710424,3.2096541941692767,-1.2890639087595936,0.35939795240085065,-7.085397099906771,-2.2774878542543378
8.773723709045932,3.138800223170209,-1.2854699292355851,0.33662307385830725,-6.615921528481861,-1.7641879244152985
8.805111711277634,3.07264100788539,-1.282103698497002,0.31898119461415425,-6.160920987895299,-1.270086251707996
8.835838121356488,3.011031798006437,-1.2789138865508605,0.3062803320970743,-5.721693627227103,-0.7982933382553856
8.865948439336552,2.9538148617341657,-1.2758510832298897,0.29829739871452043,-5.298919106496907,-0.35091310860892305
8.895486587953894,2.900825670669197,-1.2728681092427445,0.2947882676284312,-4.892781647384246,0.07075483158198587
8.924494844660586,2.8518978541953546,-1.2699202265664602,0.29549581594425106,-4.503077613691549,0.4660395790327589
8.95301382320254,2.8068670780584393,-1.2669652684070176,0.3001562117345786,-4.129307687435446,0.8347495010518441
8.981082493983124,2.765574001184085,-1.2639637062896718,0.3085037067450971,-3.7707544439129586,1.1770473582361465
9.008738233994965,2.7278664567449553,-1.260878669222221,0.3202741803274585,-3.426546581861259,1.4933476631596225
9.036016898562414,2.6936009909263428,-1.2576759274189464,0.33520765695905475,-3.095711298345201,1.7842336318383116
9.062952908471678,2.662643877942891,-1.254323850849356,0.35304999327743786,-2.7772163719450944,2.0503910173501767
9.089579347251107,2.63487171422344,-1.2507933509165816,0.37355390345093964,-2.470003482658832,2.2925562180551657
9.11592806439334,2.6101716793968515,-1.2470578118820723,0.3964794656314913,-2.173014192890266,2.511476259101263
9.14202978118731,2.588441537467949,-1.2430930172257575,0.4215942282225039,-1.8852098713604397,2.707878505764512
9.16791419656199,2.5695894387543445,-1.2388770749435325,0.448673013280149,-1.60558668256577,2.88244824601435
9.193610090949534,2.553533571928687,-1.234390344810731,0.47749749574029254,-1.3331866033315662,3.035812554701078
9.21914542666882,2.540201705895371,-1.229615369853328,0.5078556212873033,-1.067105274460986,3.1685291090235417
9.244547443727773,2.5295306531507613,-1.224536813640455,0.5395409123775388,-0.8064973548367379,3.2810788569739775
9.269842750259281,2.521465679602394,-1.2191414045166797,0.5723517009472785,-0.5505799201426078,3.3738616442069755
9.295057407055305,2.5159598804009677,-1.213417887507207,0.6060903173893483,-0.2986343392744303,3.447194080048353
9.320217005859314,2.5129735370082233,-1.2073569843333136,0.6405622581898318,-0.05000696794096618,3.5013090716903608
9.345346741229397,2.512473467328814,-1.2009513617514154,0.6755753489067354,0.19589108035078337,3.536356579489114
