th1 (rad),w1 (rad/s),th2 (rad),w2 (rad/s),a1 (rad/s^2),a2 (rad/s^2)
5.667610071922182,1.0472708810111895,3.804535956951854,-0.3696105735393266,6.9000335170859435,9.069703340424393
5.678082780732294,1.116271216182049,3.8008398512164607,-0.2789135401350826,6.937931263066458,9.283709109402333
5.6892454928941145,1.1856505288127135,3.79805071581511,-0.1860764490410593,6.96535451800972,9.509015692801112
5.701101998182241,1.2553040739928107,3.796189951324699,-0.09098629211304818,6.981613127473992,9.744786371479595
5.71365503892217,1.3251202052675506,3.7952800884035685,0.006461571601747776,6.985914982838497,9.990050857261254
5.726906240974845,1.3949793550959355,3.795344704119586,0.10636208017436032,6.977364196004549,10.243698447275378
5.740856034525804,1.464752997055981,3.7964083249213294,0.2087990646471141,6.95496040434216,10.504472088991037
5.755503564496364,1.5343026010994025,3.7984963155678004,0.31384378553702447,6.917599415285203,10.770963643932028
5.770846590507358,1.6034785952522546,3.8016347534231705,0.42155342197634477,6.864075407938121,11.041610664169026
5.786881376459881,1.6721193493316358,3.805850287642934,0.531969528618035,6.793084912011289,11.314695015959197
5.803602569953197,1.7400501984517487,3.811169982929114,0.645116478777627,6.703232781472081,11.588343697862834
5.821003071937715,1.8070825262664696,3.81762114771689,0.7609999157562554,6.593040370774346,11.860532205033811
5.83907389720038,1.873012929974213,3.8252311468744526,0.8796052378065935,6.460956104940024,12.129090786225111
5.857804026500122,1.9376224910236133,3.834027199252519,1.0008961456688446,6.30536861093511,12.391713924921037
5.877180251410358,2.000676177132964,3.8440361607092073,1.124813284918055,6.124622546846892,12.645973351036474
5.897187013181688,2.061922402601433,3.855284293558388,1.2512730184284198,5.917037227758235,12.889334855575155
5.917806237207703,2.1210927748790156,3.867797023742672,1.3801663669841713,5.680928103556103,13.119179138868805
5.939017164956493,2.1779020559145765,3.881598687412514,1.5113581583728593,5.414631094870709,13.332826875324587
5.960796185515639,2.2320483668632836,3.8967122689962426,1.6446864271261052,5.116529739382864,13.527568125946514
5.983116669184271,2.2832136642571124,3.9131591332675035,1.7799621083855703,4.785085041824974,13.700696175976642
6.005948805826843,2.331064514675362,3.930958754351359,1.9169690701453368,4.418867856272928,13.849545819770773
6.029259450973596,2.375253193238091,3.9501284450528127,2.0554645283430446,4.016593556790102,13.971536058100751
6.053011982905977,2.415419128805992,3.970683090336243,2.195179888924052,3.5771586688164385,14.064217112230406
6.077166174194037,2.4511907154941563,3.9926348892254837,2.335822060046356,3.099679034228958,14.125321589896537
6.101678081348979,2.4821875058364458,4.015993109825947,2.4770752759453214,2.5835289620085358,14.15281955401642
6.1264999564073435,2.5080227954565313,4.0407638625854005,2.6186034714854856,2.0283806678081815,14.144977136937595
6.151580184361909,2.528306602134613,4.066949897300256,2.7600532428548616,1.4342431240175992,14.100418201851662
6.1768632503832555,2.542649033374789,4.0945504297288045,2.901057424873378,0.8014992240044262,14.018188369882775
6.202289740717004,2.550664025614833,4.123561003977538,3.0412393085722056,0.130939911097845,13.897820500674337
6.227796380973152,2.5519734247258117,4.15397339706326,3.180217513578949,-0.576206358186228,13.739400436252092
6.25331611522041,2.5462113611439494,4.1857755721990495,3.31761151794147,-1.318250740813019,13.543631501633174
6.278778228831849,2.533028853735819,4.218951687378464,3.4530478329578016,-2.0930299293102,13.311895921759303
6.304108517369207,2.512098554442717,4.253482165708042,3.5861667921753946,-2.8979033095149185,13.046310996910405
6.329229502913634,2.4831195213475676,4.289343833629796,3.716629902144499,-3.7297639398304065,12.749777625389008
6.3540606981271095,2.4458218819492634,4.326510132651241,3.844127678398389,-4.585065947316159,12.426018631946903
6.378518916946602,2.399971222476102,4.364951409435225,3.968387864717858,-5.459870763704062,12.079604418687925
6.402518629171363,2.3453725148390614,4.404635288082403,4.0891839089047375,-6.349914234118186,11.71596376646106
6.425972354319754,2.2818733724978797,4.4455271271714505,4.206343546569348,-7.250696004821006,11.34137823252709
6.448791088044732,2.2093664124496697,4.487590562637144,4.319757328894619,-8.157591742925733,10.962959546166541
6.470884752169229,2.1277904950204123,4.53078813592609,4.429386924356285,-9.065987704195622,10.588610697655175
6.492162657119433,2.037130617978456,4.575082005169653,4.535273031332837,-9.971436025613075,10.226973008626082
6.512533963299218,1.937416257722325,4.620434735482982,4.637542761419097,-10.869827992767165,9.887363283767828
6.531908125876441,1.8287179777946534,4.666810163097172,4.736416394256776,-11.757581558722249,9.579707060220196
6.550195305654388,1.711142162207431,4.71417432703974,4.832213464858977,-12.631838719914313,9.314475853692501
6.567306727276462,1.5848237750082879,4.76249646168833,4.925358223395903,-13.490668121307149,9.102638004733729
6.583154965026544,1.4499170937952164,4.811750043922289,5.01638460344324,-14.33326856402367,8.955634122086625
6.597654135964497,1.3065844081549796,4.861913889956721,5.105940944664106,-15.16016995452581,8.885389094637874
6.6107199800460466,1.1549827086097215,4.912973299403363,5.194794835610486,-15.973429602071429,8.904373114058377
6.6222698071321435,0.9952484125890072,4.9649212477594675,5.283838566751069,-16.776823451783635,9.025724026079779
6.632222291258033,0.8274801780711709,5.017759633426978,5.374095807011868,-17.576033472031842,9.263442439028472
6.640497093038745,0.6517198433508524,5.071500591497097,5.466730231402153,-18.378833374241257,9.632668962979897
6.647014291472253,0.4679315096084399,5.126167893811118,5.563056921031952,-19.195274073973444,10.150048816403244
6.651693606568338,0.2759787688687054,5.181798463021438,5.664557409195984,-20.037865965846258,10.834180861374538
6.6544533942570245,0.07560010921024285,5.238444037113398,5.772899217809729,-20.921743876286925,11.706131924389183
6.655209395349127,-0.1336173295526264,5.296173029291495,5.8899605370536205,-21.864776372928922,12.789965138167794
6.6538732220536,-0.35226509328191563,5.355072634662031,6.017860188435298,-22.887532483777402,14.113167647396464
6.650350571120781,-0.5811404181196896,5.415251236546384,6.158991864909263,-24.012924119491196,15.706738752109546
6.644539166939585,-0.8212696593146016,5.476841155195476,6.3160592524303585,-25.2651605743398,17.60445778890729
6.636326470346439,-1.0739212650579997,5.54000174771978,6.492103830319431,-26.667305660746567,19.840384910671766
6.625587257695859,-1.3405943216654654,5.604922786022974,6.690507679426148,-28.236078682191046,22.44276133095928
6.612181314479204,-1.622955108487376,5.671827862817236,6.914935292735741,-29.971349057111837,25.420830021807816
6.59595176339433,-1.9226685990584942,5.740977215744593,7.169143592953819,-31.83569175914444,28.73818851239133
6.576725077403745,-2.2410255166499384,5.812668651674131,7.456525478077733,-33.716105769172415,32.26166043663925
6.554314822237246,-2.5781865743416628,5.887233906454909,7.7791420824441255,-35.356227033299014,35.669169667532366
6.528532956493829,-2.9317488446746527,5.96502532727935,8.13583377911945,-36.24798525761134,38.30033602340103
6.499215468047082,-3.294228697250766,6.046383665070545,8.51883713935346,-35.494349362795035,38.96383794076928
6.466273181074575,-3.6491721908787165,6.131572036464079,8.908475518761152,-31.741995696793357,35.8349918225101
6.429781459165788,-3.96659214784665,6.220656791651691,9.266825436986254,-23.473370731996546,26.840743335094697
6.390115537687322,-4.2013258551666155,6.3133250460215535,9.5352328703372,-10.06326246557201,11.092389807680558
6.348102279135656,-4.301958479822336,6.408677374724926,9.646156768414006,6.679667405653507,-9.014381584834565
6.3050826943374325,-4.2351618057658005,6.505138942409066,9.55601295256566,22.439334228476824,-27.713561308461465
6.262731076279774,-4.010768463481032,6.600699071934723,9.278877339481044,33.21519647499734,-39.72957361538718
6.222623391644964,-3.6786164987310586,6.693487845329533,8.881581603327172,38.08782922970657,-43.9910508548784
6.185837226657654,-3.297738206433993,6.782303661362804,8.441671094778387,38.66810048986136,-42.790674189574
6.152859844593314,-2.911057201535379,6.8667203723105885,8.013764352882648,37.00617155696557,-38.918890319463195
6.12374927257796,-2.5409954859657233,6.946858015839415,7.624575449688016,34.50878561130617,-34.235442966722246
6.098339317718303,-2.1959076298526616,7.023103770336295,7.282221020020794,31.90223099975753,-29.66357219625813
6.076380241419777,-1.8768853198550863,7.095925980536503,6.985585298058212,29.49178374048211,-25.563797950245323
6.057611388221226,-1.5819674824502652,7.165781833517085,6.729947318555759,27.37248792211474,-22.0253108951281
6.041791713396724,-1.3082426032291177,7.233081306702642,6.509694209604477,25.54722681295027,-19.024885878460296
6.028709287364433,-1.052770335099615,7.298178248798687,6.3194453508198745,23.983755638382224,-16.501352402714442
6.018181584013437,-0.8129327787157927,7.361372702306886,6.15443182679273,22.640033176383106,-14.38722924671101
6.010052256226279,-0.5865324469519617,7.422917020574813,6.01055953432562,21.47461999965084,-12.62068797564138
6.0041869317567595,-0.3717862469554533,7.4830226159180695,5.884352654569206,20.450413640014474,-11.14902976888136
6.000469069287205,-0.16728211055530856,7.541866142463761,5.772862356880392,19.53555496427654,-9.928742902957724
5.998796248181652,0.028073439087456825,7.599594766032565,5.673574927850814,18.703224971675812,-8.924348394179844
5.999076982572526,0.21510568880421496,7.6563305153110734,5.584331443909016,17.931079833933197,-8.10695632898483
6.001228039460568,0.39441648714354693,7.712173829750164,5.503261880619168,17.20063400692098,-7.45289204082155
6.005172204332004,0.5664228272127567,7.7672064485563554,5.428732960210953,16.496706748556512,-6.942510903035562
6.0108364326041315,0.7313898946983218,7.821493778158465,5.359307851180597,15.806963077656803,-6.559222632775164
6.018150331551115,0.8894595254748898,7.875086856670271,5.293715624852846,15.121545487462479,-6.2887099106996525
6.027044926805864,1.0406749803495146,7.9280240129188,5.230828525745849,14.432780119436245,-6.11831590869627
6.0374516766093596,1.185002781543877,7.9803322981762586,5.169645366658886,13.734938200323471,-6.036575141375859
6.049301704424798,1.3223521635471118,8.032028751842848,5.109279615245128,13.024034779584094,-6.032865064840845
6.062525226060269,1.4525925113429528,8.0831215479953,5.048950964596719,12.29764970108565,-6.09715921985537
6.077051151173698,1.5755690083538092,8.133611057641266,4.987979372398166,11.55475920894279,-6.219865446377984
6.092806841257237,1.6911166004432372,8.183490851365248,4.925780717934386,10.795570124529227,-6.391734576275304
6.1097180072616695,1.7990723016885295,8.232748658544592,4.861863372171634,10.021351883041092,-6.603826178652672
6.127708730278555,1.8992858205189405,8.281367292266308,4.795825110385107,9.23426471695895,-6.847518652551863
6.146701588483745,1.99162846768853,8.32932554337016,4.727349923859588,8.437184790230086,-7.1145515184886445
6.16661787316063,2.076000315590831,8.376599042608756,4.656204408674702,7.633529018507439,-7.39708839743764
6.187377876316538,2.1523356057759053,8.423161086695503,4.582233524700325,6.827083591622965,-7.687790055496937
6.208901232374298,2.220606441692135,8.468983421942506,4.505355624145356,6.021840827759386,-7.979888120244417
6.231107296791219,2.280824849969729,8.51403697818396,4.425556742942911,5.221848973257555,-8.267251640148416
6.2539155452909165,2.3330433397023045,8.558292545613389,4.342884226541427,4.431079009863226,-8.544440487190744
6.277245978687939,2.3773541298009366,8.601721387878802,4.25743982166952,3.6533115768460114,-8.806741569527892
6.301019519985949,2.4138872455693967,8.644295786095498,4.169372405974241,2.8920459173096713,-9.050185775630487
6.325158392441643,2.4428077047424934,8.68598951015524,4.078870548217936,2.150431477848941,-9.271545366742883
6.349586469489068,2.4643120195209827,8.726778215637419,3.9861550945505075,1.4312215737127887,-9.468313048928733
6.374229589684277,2.4786242352581107,8.766639766582923,3.8914719640612203,0.736747491530311,-9.638665108037314
6.399015832036858,2.4859917101734137,8.805554486223535,3.7950853129808473,0.06891061226062481,-9.781411745768448
6.423875749138593,2.48668081629602,8.843505339353344,3.6972711955231627,-0.5708103691819213,-9.895938122120551
6.448742557301553,2.4809727126042005,8.880478051308575,3.5983118143019572,-1.1813402785739084,-9.982139634326463
6.473552284427595,2.4691593098184614,8.916461169451594,3.4984904179586924,-1.7619794835487828,-10.04035471438851
6.49824387752578,2.4515395149829735,8.951446073631182,3.398086870814807,-2.3123700194720076,-10.07129798725572
6.522759272675609,2.4284158147882535,8.98542694233933,3.29737389094225,-2.83245838740216,-10.075996080145122
6.547043430823491,2.400091230914232,9.018400681248753,3.1966139301407988,-3.322457161875631,-10.055727782296824
6.571044343132633,2.3668666592954755,9.050366820550162,3.0960566523178303,-3.782807088872466,-10.011969681184697
6.594713009725588,2.3290385884067506,9.08132738707334,2.995936955505983,-4.214140909831237,-9.94634788704609
6.618003395609655,2.286897179308438,9.1112867566284,2.8964734766355225,-4.6172497448316685,-9.860596027547999
6.640872367402739,2.2407246818601214,9.140251491394755,2.7978675163600424,-4.993052524552404,-9.756519359342649
6.663279614221341,2.190794156614597,9.168230166558356,2.700302322766616,-5.342568684052588,-9.635964602903108
6.685187555787486,2.137368469774071,9.195233189786022,2.6039426767375846,-5.666894121905987,-9.500794953222243
6.706561240485227,2.0806995285550114,9.221272616553398,2.508934727205362,-5.96718028047022,-9.352869638768318
6.727368235770777,2.0210277257503093,9.246361963825452,2.415406030817679,-6.244616108587683,-9.194027379398952
6.74757851302828,1.9585815646644325,9.270516024133629,2.3234657570236896,-6.50041261677143,-9.026073115424595
6.767164328674925,1.8935774384967181,9.293750681703866,2.233205025869444,-6.7357897167271,-8.850767430548245
6.7861001030598915,1.826219541329447,9.31608273196256,2.1446973515639614,-6.951965042423296,-8.669818158854184
6.804362298473186,1.756699890905214,9.337529705478198,2.0579991699754197,-7.150144470634294,-8.484873740619973
6.821929297382238,1.6851984461988712,9.358109697177953,1.97315043256922,-7.331514088242788,-8.297517966153084
6.838781281844226,1.6118833053164432,9.377841201503646,1.8901752529076892,-7.497233386465489,-8.109265816030723
6.854900114897391,1.5369109714517883,9.396742954032723,1.8090825947473819,-7.648429494860059,-7.921560166919915
6.870269224611909,1.4604266765031877,9.414833779980196,1.7298669930781827,-7.786192298062157,-7.735769183030888
6.884873491376941,1.382564753522566,9.432132449910977,1.6525093012478738,-7.911570304299439,-7.55318425387661
6.898699138912167,1.3034490504795717,9.448657542923456,1.5769774587091077,-8.025567156252176,-7.375018369905247
6.911733629416963,1.22319337891705,9.464427317510548,1.5032272750100553,-8.129138691785036,-7.20240484983126
6.923965563206133,1.1419019919991995,9.47945959026065,1.4312032265117427,-8.223190474864548,-7.036396348517878
6.935384583126125,1.059670087250554,9.493771622525767,1.360839263026564,-8.308575726245648,-6.877964083582274
6.945981283998631,0.9765843299880975,9.507380015156032,1.2920596221907412,-8.38609359001919,-6.727997224008972
6.955747127298512,0.8927233940879056,9.52030061137794,1.2247796499506516,-8.456487676646605,-6.587302386358955
6.964674361239391,0.8081585173214395,9.532548407877446,1.158906626087062,-8.520444826417144,-6.456603184876675
6.972755946412605,0.7229540690572681,9.544137474138317,1.0943405942382953,-8.578594040021047,-6.336539781961599
6.979985487103178,0.6371681286570576,9.5550808800807,1.0309751964186793,-8.631505525715708,-6.227668385928657
6.986357168389749,0.5508530733999005,9.565390632044886,0.9686985125593928,-8.679689815846201,-6.130460644402168
6.991865699123748,0.4640561752414385,9.57507761717048,0.9073939061153711,-8.72359690964082,-6.045302884584066
6.996506260876163,0.3768202061450303,9.584151556231634,0.8469408772695304,-8.763615404520225,-5.972495156396798
7.000274462937613,0.28918405209982806,9.592620965004329,0.7872159257055624,-8.800071584837184,-5.912250041409763
7.003166303458611,0.20118333625145624,9.600493124261385,0.7280934252914648,-8.833228445135468,-5.864691199722869
7.005178136821126,0.11285105180010155,9.6077740585143,0.6694465132942361,-8.863284634750837,-5.829851638744947
7.006306647339127,0.024218205452593178,9.614468523647242,0.6111479969067867,-8.890373321888152,-5.80767170215909
7.006548829393653,-0.06468552776628834,9.62058000361631,0.5530712798851958,-8.914560988153461,-5.797996794345856
7.00590197411599,-0.15383113764782297,9.62611071641516,0.4950913119417372,-8.935846178796414,-5.800574875111668
7.004363662739512,-0.2431895994357871,9.631061629534578,0.43708556319062053,-8.954158249455952,-5.815053781634708
7.001931766745154,-0.3327311819303466,9.635432485166485,0.3789350253742734,-8.969356166750782,-5.840978458880952
6.998604454925851,-0.4224247435978544,9.639221835420228,0.3205252407854639,-8.981227437270087,-5.877788206007786
6.994380207489873,-0.5122370179705553,9.642427087828082,0.26174735872538607,-8.989487256944281,-5.924814073941347
6.989257837310167,-0.6021318905399982,9.645044561415336,0.2024992179859726,-8.993777989826931,-5.981276577656766
6.983236518404767,-0.6920696704382675,9.647069553595196,0.14268645220940493,-8.993669101280108,-6.046283914742468
6.976315821700384,-0.7820063614510686,9.64849641811729,0.08222361306198026,-8.98865768456367,-6.118830908359571
6.968495758085873,-0.8718929382967053,9.64931865424791,0.021035303978384545,-8.978169730888629,-6.197798916215407
6.959776828702906,-0.9616746356055916,9.649529007287693,-0.04094268518376953,-8.96156229999212,-6.281956965894491
6.95016008234685,-1.0512902586055128,9.649119580435856,-0.10376225484271442,-8.93812675003526,-6.3699643888478565
6.939647179760795,-1.1406715261058655,9.64808195788743,-0.167461898731193,-8.90709318090298,-6.460375228401501
6.928240464499736,-1.2297424579148952,9.646407338900117,-0.232065651015208,-8.867636232643747,-6.551644689133979
6.915943039920587,-1.3184188202413327,9.644086682389965,-0.29758209790654777,-8.818882359833454,-6.642137873831536
6.902758851718174,-1.4066076438396673,9.6411108614109,-0.3640034766448631,-8.759918672365847,-6.730141018188216
6.888692775279777,-1.4942068305633258,9.637470826644451,-0.4313048868267453,-8.689803393252554,-6.8138753812221715
6.8737507069741435,-1.5811048644958514,9.633157777776184,-0.499443640638967,-8.607577934684636,-6.891513880509831
6.857939658329185,-1.6671806438426977,9.628163341369794,-0.5683587794440653,-8.512280535738945,-6.9612004762416735
6.841267851890758,-1.752303449200087,9.622479753575353,-0.637970784206482,-8.402961340311993,-7.021072208377641
6.823744817398757,-1.836333062603207,9.616100045733289,-0.7081815062902584,-8.27869872450296,-7.069283679712974
6.805381486772725,-1.9191200498482366,9.609018230670387,-0.7788743430873882,-8.138616611848695,-7.104033658665582
6.786190286274243,-2.0005062159667237,9.601229487239513,-0.849914679674044,-7.981902446262739,-7.123593354518288
6.766185224114576,-2.0803252404293513,9.592730340442772,-0.9211506132192269,-7.807825430399332,-7.126335801169532
6.745381971710282,-2.158403494733345,9.58351883431058,-0.9924139712309222,-7.6157545857573,-7.110765680309448
6.723797936762948,-2.234561040590918,9.57359469459827,-1.0635216280340167,-7.405176154277837,-7.075548828663069
6.701452326357039,-2.3086128021336965,9.56295947831793,-1.1342771163206473,-7.175709843040312,-7.019540613445998
6.678366198335702,-2.3803699005640997,9.551616707154723,-1.2044725224551074,-6.927123416561091,-6.941812331343361
6.654562499330061,-2.4496411347297107,9.539571981930171,-1.273890645768541,-6.659345166548431,-6.841674793403898
