th1 (rad),w1 (rad/s),th2 (rad),w2 (rad/s),a1 (rad/s^2),a2 (rad/s^2)
2.3524059857588924,-0.29023448479087455,3.928811527710097,-0.3808079812053468,-6.864217479202055,6.819514442612399
2.3495036409109837,-0.3588766595828951,3.9250034478980433,-0.3126128367792228,-6.911108446512744,6.754563840737492
2.345914874315155,-0.42798774404802253,3.921877319530251,-0.24506719837184787,-6.953242694569345,6.675029102916414
2.341634996874675,-0.497520170993716,3.9194266475465325,-0.17831690734268374,-6.990885949931371,6.580608314024237
2.3366597951647377,-0.5674290304930297,3.9176434784731056,-0.11251082420244138,-7.024394320041463,6.471053150206229
2.3309855048598074,-0.6376729736934443,3.9165183702310813,-0.04780029270037908,-7.054214694156577,6.3461638235084195
2.324608775122873,-0.7082151206350101,3.9160403673040776,0.015661345534705107,-7.080884431227001,6.205782323107182
2.317526623916523,-0.7790239649472801,3.9161969807594246,0.07771916876577692,-7.105030383163605,6.0497839887869125
2.30973638426705,-0.8500742687789161,3.916974172447082,0.13821700865364606,-7.127367321878765,5.878067479898407
2.301235641579261,-0.9213479419977038,3.9183563425336185,0.19699768345263013,-7.148695856575398,5.6905432308433745
2.292022162159284,-0.9928349005634578,3.920326319368145,0.2539031157610639,-7.169899943060636,5.487120511747532
2.2820938131536495,-1.0645338999940641,3.922865350525756,0.30877432087853923,-7.191944098264181,5.267693240032576
2.2714484741537087,-1.136453340976706,3.9259530937345413,0.361451253278865,-7.215870439377325,5.032124714868712
2.2600839407439417,-1.2086120453704792,3.9295676062673297,0.41177250042755215,-7.242795666710202,4.78023147209182
2.247997820290237,-1.2810400020375812,3.9336853312716054,0.4595748151484704,-7.273908101024459,4.5117664826955
2.235187420269861,-1.3537790830478258,3.9382810794230902,0.5046924799754253,-7.310464868213922,4.22640194471471
2.2216496294393826,-1.426883731729965,3.9433280042228445,0.5469564994225724,-7.35378929520368,3.923711948297773
2.207380792122083,-1.5004216246820017,3.9487975692170703,0.5861936189055501,-7.405268539166631,3.603155330103799
2.1923765758752634,-1.574474310073668,3.9546595054061258,0.6222251722065881,-7.466351415823567,3.2640590800738183
2.1766318327745267,-1.6491378242319037,3.960881757128192,0.6548657630073264,-7.538546319674726,2.9056027265433033
2.1601404545322076,-1.724523287428651,3.967430414758265,0.6839217902727593,-7.6234190371409785,2.5268042113197065
2.142895221657921,-1.8007574778000608,3.9742696326609925,0.7091898323859565,-7.722590139954542,2.1265078827837134
2.1248876468799205,-1.8779833791996061,3.9813615309848522,0.7304549112137936,-7.83773150738941,1.7033753915984367
2.1061078130879243,-1.9563606942735001,3.98866608009699,0.747488665129778,-7.9705613581941686,1.2558804806608055
2.0865442061451893,-2.036066307855442,3.996140966748288,0.760047469936386,-8.12283697213667,0.7823089297360357
2.066183543066635,-2.1172946775768087,4.0037414414476515,0.7678705592337464,-8.296344042625334,0.28076525720184764
2.045010596290867,-2.200258118003062,4.011420147039989,0.7706782118057648,-8.492881322349813,-0.2508117929611992
2.0230080151108365,-2.28518693122656,4.019126929158047,0.7681700938761528,-8.714238901557346,-0.8146224334599731
2.000156145798571,-2.3723293202421334,4.026808630096809,0.760023869541553,-8.962168095424829,-1.4129645283445613
1.9764328525961496,-2.4619510011963817,4.034408868792225,0.7458942242581074,-9.238340521404451,-2.0481739447231706
1.951813342584186,-2.554334406410426,4.041867811034806,0.7254124848108756,-9.544293538088445,-2.722541943766662
1.9262699985200817,-2.6497773417913106,4.049121935882915,0.698187065373209,-9.881358828152624,-3.4382042137131457
1.8997722251021687,-2.748590930072837,4.056103806536647,0.6638050232360775,-10.250570595323808,-4.196995433187112
1.8722863158014402,-2.851096636026075,4.062741856769008,0.6218350689042064,-10.652549694617527,-5.000262734710664
1.8437753494411795,-2.9576221329722503,4.0689602074580495,0.5718324415570997,-11.087360149185583,-5.848631310230774
1.814199128111457,-3.068495734464106,4.07467853187362,0.5133461284547919,-11.554335092364447,-6.741715934665633
1.7835141707668158,-3.1840390853877505,4.0798119931581684,0.44592896910813556,-12.051870420957083,-7.67777373700121
1.7516737799129383,-3.3045577895973213,4.08427128284925,0.3691512317381235,-12.577186602038505,-8.653296557425152
1.718628202016965,-3.4303296556177063,4.087962795166631,0.282618266163872,-13.126062396218813,-9.662546176012775
1.6843249054607878,-3.5615902795798946,4.09078897782827,0.18599280440374422,-13.692548956897737,-10.697043039093545
1.6487090026649889,-3.698515769148872,4.0926489058723075,0.07902237401280876,-14.268678918020495,-11.745029141383565
1.6117238449735,-3.841202558329077,4.0934391296124355,-0.0384279174010269,-14.844192517686661,-12.790938388320107
1.5733118193902094,-3.989644483505944,4.093054850438425,-0.16633730128422797,-15.406310942425593,-13.814922397290276
1.53341537455515,-4.1437075929302,4.091391477425582,-0.3044865252571307,-15.939594790477646,-14.792494752202957
1.491978298625848,-4.303103540834977,4.088346612173011,-0.4524114727791603,-16.425931096793374,-15.694369582807022
1.4489472632174982,-4.4673628518029105,4.08382249744522,-0.6093551686072305,-16.844693467438084,-16.486577332668375
1.404273634699469,-4.635809786477291,4.077728945759147,-0.7742209419339142,-17.1731141026359,-17.13093742442663
1.3579155368346962,-4.80754092750365,4.069986736339808,-0.9455303161781805,-17.38689193841642,-17.58595029091809
1.3098401275596596,-4.981409846887814,4.060531433178026,-1.1213898190873615,-17.46103738997179,-17.8081378074652
1.2600260290907814,-5.156020220787532,4.049317534987153,-1.2994711971620134,-17.37092330018551,-17.753812949792195
1.208465826882906,-5.329729453789387,4.036322823015532,-1.4770093266599353,-17.093478797949025,-17.38120271618908
1.1551685323450123,-5.500664241768877,4.021552729748933,-1.6508213538218262,-16.608435619911223,-16.652793947504243
1.1001618899273236,-5.66674859796799,4.005044516210715,-1.8173492932968687,-15.899523748738051,-15.53773332553844
1.0434944039476437,-5.825743835455371,3.9868710232777462,-1.9727266265522532,-14.955521717109423,-14.014102844663771
0.98523696559309,-5.975299052626465,3.9671437570122237,-2.1128676549988907,-13.771098187164966,-12.070916319159194
0.9254839750668253,-6.113010034498115,3.9460150804622347,-2.2335768181904827,-12.34742962718943,-9.70973636470811
0.8643538747218442,-6.236484330770009,3.92367931228033,-2.330674181837564,-10.692630964887526,-6.945878608180226
0.8019890314141441,-6.343410640418884,3.9003725704619545,-2.400132967919366,-8.822074443062176,-3.8092262566749593
0.7385549250099552,-6.4316313848495055,3.8763712407827606,-2.4382252304861156,-6.758679445764785,-0.34469812219947876
0.6742386111614602,-6.499218179307153,3.8519889884778995,-2.44167221170811,-4.53322165130103,3.3876209267491255
0.6092464293683887,-6.544550395820163,3.8275722663608183,-2.407796002440619,-2.1846328422532135,7.312768111005683
0.5438009254101871,-6.566396724242695,3.803494306336412,-2.3346683213305623,0.2398443294928188,11.341816983259031
0.47813695816776014,-6.563998280947767,3.7801476231231064,-2.221250151497972,2.684892747152565,15.373746612298444
0.41249697535828245,-6.5371493534762415,3.7579351216081265,-2.0675126853749877,5.088069625929063,19.29865166597552
0.34712548182352004,-6.486268657216951,3.7372599947543765,-1.8745261687152324,7.381784182019166,23.002608489590067
0.28226279525135056,-6.41245081539676,3.718514733067224,-1.6445000838193318,9.496498727845315,26.37426806797314
0.21813828709738298,-6.317485828118307,3.702069732229031,-1.3807574031396004,11.365098274464676,29.312832951436963
0.1549634288161999,-6.2038348453736605,3.688262158197635,-1.0876290736252308,12.928033976632857,31.73657162731746
0.0929250803624633,-6.074554505607332,3.6773858674613824,-0.7702633573520561,14.138508737506866,33.59058841064227
0.03217953530638998,-5.933169418232263,3.669683233887862,-0.4343574732456334,14.966767920212613,34.852393331793266
-0.027152158875932655,-5.783501739030137,3.6653396591554057,-0.08583353992770071,15.402597711747077,35.53404835074162
-0.08498717626623403,-5.6294757619126665,3.664481323756129,0.2695069435797155,15.455452475888487,35.680305930612214
-0.1412819338853607,-5.474921237153781,3.667176393191926,0.6263100028858377,15.152149300593813,35.36302868538181
-0.19603114625689852,-5.323399744147843,3.6734394932207843,0.9799402897396559,14.53260993943147,34.67299221931549
-0.24926514369837696,-5.178073644753528,3.683238896118181,1.3266702119328109,13.644511294179074,33.71065211428255
-0.30104588014591227,-5.041628531811737,3.696505598237509,1.6637767330756363,12.537814084412528,32.577471486136794
-0.35146216546402964,-4.916250390967612,3.7131433655682655,1.9895514479370042,11.2599819667426,31.369020399916295
-0.4006246693737058,-4.803650571300186,3.7330388800476357,2.303241651936167,9.852382111614634,30.170469147240834
-0.44866117508670766,-4.705126750184039,3.7560712965669976,2.6049463434085753,8.348006611582491,29.054523246238254
-0.4957124425885481,-4.621646684068215,3.7821207600010833,2.895491575870958,6.7703759600096864,28.081439171757445
-0.5419289094292302,-4.553942924468118,3.811075675759793,3.176305967588532,5.133327210837426,27.300564535576747
-0.5874683386739115,-4.502609652359744,3.842838735435678,3.4493116129442996,3.441344748935669,26.75283176506038
-0.6324944351975089,-4.468196204870387,3.877331851565121,3.7168399305949036,1.6901279985473563,26.473728799924352
-0.6771763972462128,-4.451294924884913,3.91450025087107,3.981577218594147,-0.13282769735006472,26.49639991376367
-0.721689346495062,-4.452623201858414,3.9543160230570114,4.246541217731783,-2.0477552532826,26.85463412721157
-0.7662155785136462,-4.473100754391241,3.9967814352343294,4.5150875590038995,-4.082233158017477,27.58552755094621
-0.8109465860575586,-4.513923085971415,4.041932310824368,4.790942834513362,-6.270696966704655,28.731499188001834
-0.8560858169172728,-4.576630055638462,4.0898417391695014,5.07825782639338,-8.653320759792004,30.34098923778183
-0.9018521174736575,-4.663163263236382,4.140624317433435,5.381667718771198,-11.273110260045556,32.46635106715066
-0.9484837501060213,-4.775894365836837,4.1944409946211465,5.706331229442705,-14.168763272904478,35.155699410055206
-0.9962426937643897,-4.917581998565882,4.251504306915574,6.057888223543257,-17.358254315186993,38.4318858076796
-1.0454185137500485,-5.091164541717752,4.312083189151006,6.442207081620053,-20.803044856818918,42.24473661957042
-1.096330159167226,-5.29919499028594,4.376505259967207,6.864654447815757,-24.33390783193376,46.37021384679069
-1.1493221090700856,-5.542534068605278,4.445151804445365,7.328356586283664,-27.50750906023264,50.21341728936727
-1.2047474497561383,-5.8176091592076045,4.518435370308201,7.830490759177336,-29.363219017075174,52.4721906342914
-1.2629235413482145,-6.111241349378356,4.596740277899975,8.35521266552025,-28.127799106098117,50.7259041075163
-1.324035954841998,-6.392519340439337,4.6802924045551775,8.862471706595413,-21.23470080417908,41.45755446677096
-1.3879611482463914,-6.604866348481128,4.768917121621132,9.277047251263122,-6.621215313558824,21.848228293768877
-1.4540098117312026,-6.671078501616716,4.861687594133763,9.495529534200811,14.142500453612495,-5.890685599389583
-1.5207205967473698,-6.529653497080591,4.956642889475772,9.436622678206914,34.2262423591014,-32.30102199769438
-1.5860171317181757,-6.187391073489577,5.051009116257841,9.113612458229971,46.56016021837088,-47.69767051727029
-1.6478910424530715,-5.721789471305868,5.142145240840141,8.636635753057268,50.05988684919892,-50.749689486334034
-1.70510893716613,-5.221190602813879,5.228511598370714,8.129138858193928,48.140791766788304,-46.29530437041409
-1.7573208431942688,-4.739782685145996,5.309802986952653,7.666185814489787,44.210529714311704,-39.066922660485496
-1.8047186700457287,-4.297677388002879,5.386464845097551,7.275516587884932,40.1137758908945,-31.585859703788593
-1.8476954439257576,-3.896539629093934,5.4592200109764,6.959657990847046,36.55895338747576,-24.792817338392414
-1.8866608402166969,-3.5309500952191764,5.528816590884871,6.711729817463122,33.71870746684051,-18.893178022068376
-1.9219703411688887,-3.1937630205507714,5.595933889059502,6.522798037242438,31.56432215978774,-13.82170247588624
-1.9539079713743963,-2.878119798952894,5.661161869431926,6.384581012483576,30.008991252911336,-9.439507481781817
-1.9826891693639253,-2.5780298864237805,5.725007679556762,6.290185937665758,28.960888496791842,-5.606211565538738
-2.008469468228163,-2.288421001455862,5.78790953893342,6.23412382201037,28.339561572863605,-2.202027389826334
-2.0313536782427217,-2.005025385727226,5.850250777153524,6.212103548112107,28.078634651654205,0.868375935524599
-2.051403932099994,-1.7242390392106839,5.912371812634645,6.2207873074673525,28.12388422600389,3.6778006770645693
-2.068646322492101,-1.443000196950645,5.974579685709319,6.257565314237998,28.43006439196953,6.279656839895145
-2.083076324461607,-1.1586995530309496,6.037155338851699,6.320361882636949,28.95764350150353,8.710768778464056
-2.0946633199919167,-0.8691231180159142,6.100358957678068,6.40746957042159,29.669790173630453,10.99345760954812
-2.103354551172076,-0.5724252162796097,6.164433653382284,6.517404146517071,30.52967050489526,13.136923409226968
-2.109078803334872,-0.2671285112306571,6.229607694847455,6.648773380609341,31.498059365760266,15.138105124175008
-2.1117500884471787,0.04785208242694555,6.296095428653548,6.800154431851091,32.53129888291418,16.982263996428006
-2.1112715676229095,0.37316507125608733,6.364096972972059,6.969977071815371,33.57970615073982,18.643583615126634
-2.1075399169103486,0.7089621327634855,6.4337967436902135,7.1564129079666365,34.58661592669583,20.086123606552405
-2.100450295582714,1.054828292030444,6.50536087276988,7.357274144032161,35.48832274741798,21.265496362587335
-2.0899020126624093,1.4097115195046237,6.578933614210202,7.569929107658034,36.215234522860065,22.13163174620488
-2.075804897467363,1.7718638647332243,6.654632905286782,7.791245425120082,36.69453066502807,22.632915861199805
-2.0580862588200306,2.138809171383505,6.7325453595379825,8.017574583732081,36.854491592266804,22.721796594483052
-2.0366981671061954,2.507354087306173,6.812721105375303,8.244792549676912,36.63040211578749,22.36161691270637
-2.0116246262331337,2.873658108464048,6.895169030872072,8.468408718803976,35.971532590241814,21.533987318739744
-1.9828880451484932,3.2333734343664657,6.979853118060112,8.683748591991375,34.848235357977764,20.245533660465643
-1.9505543108048284,3.5818557879462434,7.066690603980026,8.88620392859603,33.25780215273862,18.532525144918875
-1.914735752925366,3.9144338094736297,7.155552643265986,9.07152918004522,31.227602443078514,16.4619053800305
-1.8755914148306296,4.2267098339044145,7.246267935066439,9.236148233845524,28.814326510821697,14.12776182454569
-1.8333243164915856,4.514853099012631,7.338629417404894,9.377425852090981,26.098918250920093,11.64324515086063
-1.7881757855014593,4.775842281521832,7.432403675925803,9.493858303599588,23.177821469712924,9.129124011379435
-1.740417362686241,5.007620496218962,7.527342258961799,9.585149543713381,20.152126686048792,6.701105393909355
-1.6903411577240512,5.20914176307945,7.623193754398932,9.652160597652475,17.116721442858413,4.458377646087736
-1.6382497400932567,5.380308977508034,7.719715360375457,9.696744374113353,14.151420486514162,2.475406688303497
-1.5844466503181764,5.521823182373176,7.816682804116591,9.721498440996388,11.315368362207526,0.7980322274520294
-1.5292284184944447,5.634976865995251,7.913897788526555,9.729478763270908,8.645073423317307,-0.5562177633067698
-1.4728786498344921,5.721427600228424,8.011192576159264,9.72391658563784,6.155602711003022,-1.5945469121485245
-1.415664373832208,5.782983627338454,8.108431742015641,9.707971116516354,3.843973446053033,-2.3433986291089886
-1.3578345375588234,5.821423361798984,8.205511453180804,9.684537130225264,1.693663635198177,-2.8423570819913597
-1.2996203039408336,5.838359998150966,8.302356824483057,9.65611355940535,-0.32066761314628406,-3.138411968261173
-1.241236703959324,5.8351533220195035,8.39891796007711,9.624729439722739,-2.2288615941294982,-3.2811366209240624
-1.1828851707391288,5.812864706078209,8.495165254474337,9.591918073513497,-4.061655529397085,-3.3189622726470764
-1.1247565236783468,5.772248150784238,8.591084435209472,9.558728450787026,-5.847876140032661,-3.296484499832742
-1.0670340421705045,5.713769389383911,8.686671719717342,9.525763605788699,-7.612378863529878,-3.2526147844227333
-1.0098963482766654,5.637645600748613,8.78192935577523,9.493237457944472,-9.374623657962863,-3.219362414097405
-0.9535198922691793,5.543899364168984,8.876861730354674,9.461043833803497,-11.147776497556487,-3.2210630305446846
-0.8980808986274895,5.43242159919342,8.97147216869271,9.428833203498051,-12.93825313271514,-3.273928281677427
-0.8437566826355554,5.303039067866268,9.06576050072769,9.396093920681277,-14.74565793461441,-3.3858533576401344
-0.7907262919568927,5.155582488520124,9.159721439934502,9.362235387104876,-16.563101250019635,-3.5564709657002758
-0.7391704670716914,4.989951476019927,9.25334379380555,9.326670677447874,-18.377894745713125,-3.777472883449889
-0.6892709523114922,4.806172528562795,9.346610500580029,9.288895948613375,-20.172621586918133,-4.0332294849205175
-0.6412092270258642,4.604446312693614,9.439499460066163,9.248563653764169,-21.92655726707517,-4.301723328191861
-0.5951647638989281,4.385180740022863,9.531985096603805,9.20554642048225,-23.61738206083803,-4.555778728756296
-0.5513129564986995,4.149006919414482,9.624040560808627,9.159988633194686,-25.22308573395115,-4.764522778675027
-0.5098228873045547,3.896776062074971,9.715640447140574,9.112343405407936,-26.72393000432136,-4.894965034686855
-0.470855126683805,3.6295367620317576,9.806763881194653,9.063393755061067,-28.104315016527778,-4.913544583255009
-0.4345597590634874,3.3484936118664796,9.897397818745263,9.014258309228518,-29.354400639214607,-4.7874740371628315
-0.4010748229448226,3.0549496054743335,9.987540401837549,8.96638356885689,-30.471364312183695,-4.485715224630924
-0.3705253268900793,2.7502359623524963,10.077204237526118,8.92152641661058,-31.46023071387484,-3.9794495644434624
-0.3430229672665543,2.435633655213748,10.166419501692223,8.881731920966146,-32.33427549880205,-3.2419498898340304
-0.3186666307144168,2.1122909002257275,10.255236820901885,8.849312422067806,-33.11507372315906,-2.2478082493250398
-0.29754372171215954,1.781140162994137,10.343729945122563,8.826834339574555,-33.832321743578326,-0.9715137385392092
-0.27973232008221816,1.4428169455583537,10.431998288518308,8.817119202189163,-34.52360084683608,0.6146036439578577
-0.2653041506266346,1.097580937089993,10.520169480540199,8.823265238628741,-35.234266958177095,2.5430461088377334
-0.25432834125573467,0.745238267508222,10.608402132926486,8.84869569971712,-36.01764034862443,4.854435335020031
-0.24687595858065245,0.3850618640219776,10.696889089923657,8.89724005306732,-36.93562430846561,7.601420362063196
-0.24302533994043268,0.015705620937321474,10.78586149045433,8.973254256687952,-38.059775780362145,10.853169253716972
-0.24286828373105948,-0.3648921368663,10.87559403302121,9.081785949225122,-39.47260992644829,14.700201624612218
-0.24651720509972247,-0.7596182361307829,10.966411892513461,9.228787965471243,-41.2683572985709,19.258691576188085
-0.2541133874610303,-1.172301809116492,11.058699772168174,9.421374881233124,-43.551052289100916,24.671702774676408
-0.26583640555219523,-1.6078123320075013,11.152913520980505,9.668091908979887,-46.424632181430574,31.10062641730816
-0.28191452887227025,-2.072058653821807,11.249594440070304,9.97909817315297,-49.962145518151004,38.689885436525856
-0.3026351154104883,-2.5716801090033172,11.349385421801834,10.365997027518228,-54.12367215337452,47.463977478734925
