th1 (rad),w1 (rad/s),th2 (rad),w2 (rad/s),a1 (rad/s^2),a2 (rad/s^2)
1.459863484441622,-2.762482765285003,4.048823844713251,1.5363973349379692,-11.82139577044849,-6.347177150043085
1.432238656788772,-2.8806967229894878,4.0641878180626305,1.4729255634375382,-12.17133113351873,-6.860817298331112
1.403431689558877,-3.002410034324675,4.0789170736970055,1.404317390454227,-12.481910183525686,-7.303030907557527
1.3734075892156303,-3.1272291361599316,4.092960247601548,1.3312870813786517,-12.732360809904824,-7.64182876439273
1.342135297854031,-3.2545527442589797,4.106273118415334,1.2548687937347245,-12.899009549332337,-7.840480135181126
1.3095897704114412,-3.383542839752303,4.118821806352681,1.1764639923829132,-12.956073562392746,-7.858650535014489
1.2757543420139181,-3.5131035753762303,4.13058644627651,1.0978774870327683,-12.876986104896337,-7.654379580003973
1.240623306260156,-3.6418734364251937,4.141565221146838,1.0213336912327287,-12.636293092554991,-7.186974084536523
1.204204571895904,-3.7682363673507435,4.151778558059165,0.9494639503873634,-12.21207160053202,-6.420756376342764
1.1665222082223965,-3.8903570833560637,4.161273197563039,0.8852563866239358,-11.58870636074707,-5.329422870405725
1.127618637388836,-4.006244146963534,4.170125761429278,0.8319621579198786,-10.759736073037116,-3.900560751821773
1.0875561959192006,-4.113841507693905,4.178445383008477,0.7929565504016609,-9.730376949074214,-2.1396881099161806
1.0464177808422614,-4.211145277184648,4.186374948512494,0.7715596693024991,-8.519279720263256,-0.0730821446750188
1.004306328070415,-4.296338074387281,4.194090545205519,0.7708288478557489,-7.159105282319997,2.2513083490334873
0.9613429473265421,-4.3679291272104805,4.201798833684077,0.7933419313460838,-5.695623723025467,4.76538053429959
0.9176636560544373,-4.424885364440735,4.209732252997537,0.8409957366890797,-4.185240910558942,7.385003694217322
0.87341480241003,-4.466737773546325,4.218142210364428,0.9148457736312529,-2.69110592369988,10.016501006078043
0.8287474246745667,-4.4936488327833235,4.227290668100741,1.0150107836920332,-1.2782078929459442,12.564787547543089
0.7838109363467335,-4.5064309117127825,4.237440775937661,1.1406586591674641,-0.008082120941121955,14.942101336406257
0.7387466272296057,-4.506511732922194,4.248847362529336,1.2900796725315267,1.0661375578376235,17.07607813997822
0.6936815099003838,-4.4958503573438175,4.261748159254651,1.460840453931309,1.9036005645774667,18.91598116419204
0.6487230063269456,-4.476814351698043,4.276356563793964,1.6500002655732293,2.4780025029318096,20.436217545556605
0.6039548628099651,-4.452034326668725,4.2928565664496965,1.8543624410287953,2.7779663879473095,21.636793902871954
0.5594345195432778,-4.424254662789252,4.311400190859985,2.070730380057515,2.805624430743351,22.54095293052557
0.5151919729153853,-4.396198418481819,4.332107494660559,2.2961399093627706,2.573790060270908,23.190733008925385
0.47122998873056715,-4.37046051787911,4.355068893754187,2.5280472394520244,2.102298186772732,23.641475522198384
0.42752538355177605,-4.349437536011383,4.380349366148708,2.7644619946740083,1.4141230515151864,23.956323046073372
0.38403100819166225,-4.335296305496231,4.407993986095447,3.004025225134742,0.5317741250841382,24.201549630423337
0.34067804513669997,-4.32997856424539,4.438034238346795,3.2460407214389755,-0.5257220330475898,24.44324560567074
0.29737825949424607,-4.335235784575866,4.4704946455611845,3.4904731774956828,-1.7451550876813928,24.745556715315452
0.25402590164848743,-4.352687335452679,4.505399377336142,3.7379287446488374,-3.120854359788736,25.170432255388974
0.21049902829396064,-4.383895879050566,4.54277866478263,3.9896330672027274,-4.655991316796988,25.778702546374436
0.16666006950345497,-4.430455792218536,4.582674995454657,4.247420092666472,-6.363703546959873,26.632273798170353
0.1223555115812696,-4.494092827688135,4.625149196381322,4.513742830648176,-8.268286581099465,27.797263333082924
0.07741458330438825,-4.57677569349913,4.670286624687804,4.7917154639790045,-10.406661376934439,29.3479501772441
0.031646826369396946,-4.680842307268474,4.7182037793275935,5.0851949657514455,-12.830228804799418,31.371415174085335
-0.015161596703287795,-4.809144595316468,4.769055728985108,5.398909117492299,-15.606999594962536,33.97256641372221
-0.06325304265645249,-4.965214591266093,4.823044820160031,5.738634781629521,-18.823350472982252,37.27861671821826
-0.11290518856911341,-5.153448095995916,4.880431167976326,6.111420948811704,-22.58343483280579,41.440348858094005
-0.16443966952907257,-5.379282444323974,4.941545377464443,6.525824437392644,-27.001028960766902,46.62309267215874
-0.2182324939723123,-5.649292733931643,5.00680362183837,6.992055364114231,-32.17071474212571,52.96947836515044
-0.27472542131162875,-5.970999881352901,5.076724175479512,7.521750147765736,-38.08670951987257,60.4902181083013
-0.33443542012515776,-6.3518669765516265,5.151941676957169,8.126652328848749,-44.43685993602642,68.78221358779945
-0.39795408989067405,-6.796235575911891,5.233208200245657,8.814474464726743,-50.12694336197991,76.37160548683774
-0.46591644564979295,-7.29750500953169,5.321352944892924,9.57819051959512,-52.35267449962239,79.42432702995745
-0.5388914957451099,-7.821031754527914,5.417134850088875,10.372433789894695,-45.50006865847554,70.20886603332006
-0.617101813290389,-8.27603244111267,5.5208591879878215,11.074522450227896,-22.440767143469657,38.88435932638757
-0.6998621377015157,-8.500440112547368,5.6316044124901,11.46336604349177,16.475372695753308,-14.00034664420528
-0.7848665388269894,-8.335686385589835,5.746238072925018,11.323362577049718,53.74821210016419,-64.14243402420513
-0.8682234026828878,-7.798204264588192,5.859471698695515,10.681938236807666,70.88782925560805,-86.11989599347815
-0.9462054453287697,-7.089325972032112,5.966291081063591,9.820739276872883,69.8978465765013,-83.03546576535689
-1.017098705049091,-6.3903475062671,6.06449847383232,8.990384619219315,61.79157319293757,-70.24397665174904
-1.081002180111762,-5.772431774337724,6.154402320024514,8.287944852701823,53.05483490060559,-56.653404777948275
-1.1387264978551392,-5.241883425331668,6.237281768551532,7.721410804922341,45.71246585802821,-44.97507897492181
-1.191145332108456,-4.784758766751386,6.3144958766007555,7.271660015173123,40.00852764224661,-35.48215823180265
-1.23899291977597,-4.38467349032892,6.387212476752487,6.916838432855096,35.70883522507271,-27.80989231064267
-1.282839654679259,-4.027585138078193,6.456380861081038,6.638739509748669,32.52052533953478,-21.527488836098158
-1.323115506060041,-3.702379884682845,6.522768256178525,6.423464621387688,30.19661628043453,-16.277208605121206
-1.3601393049068695,-3.4004137218784996,6.587002902392402,6.260692535336476,28.548180165426146,-11.78877236104726
-1.3941434421256544,-3.114931920224238,6.649609827745767,6.142804811726004,27.434017228716222,-7.864744104507808
-1.4252927613278967,-2.8405917479370757,6.711037875863027,6.064157370680926,26.747530027440437,-4.363461597862465
-1.4536986788072674,-2.573116447662671,6.771679449569836,6.020522754702301,26.40546845517994,-1.1856352405527877
-1.4794298432838942,-2.3090617631108716,6.831884677116859,6.0086664022967735,26.33903566351052,1.7348738746901309
-1.502520460915003,-2.0456714064757664,6.8919713411398265,6.026015141043675,26.4868813267575,4.436884772880741
-1.5229771749797605,-1.7808025932081915,6.952231492550263,6.070383988772482,26.78946252232793,6.935272594584964
-1.5407852009118423,-1.512907967984912,7.012935332437988,6.139736714718332,27.184452442760833,9.222754026331614
-1.5559142805916915,-1.2410634435573038,7.074332699585171,6.231964254981648,27.60314164489209,11.270913417285396
-1.5683249150272645,-0.9650320271083829,7.136652342134988,6.344673389154502,27.968060859792036,13.031358750347147
-1.5779752352983483,-0.6853514185104626,7.200099076026532,6.4749869766579735,28.19233252082812,14.438016595984658
-1.584828749483453,-0.4034280933021813,7.264848945793112,6.61936714261782,28.18147393739092,15.411669630974155
-1.5888630304164748,-0.1216133539282721,7.33104261721929,6.773483838927562,27.838419040415182,15.867759601760245
-1.5900791639557574,0.15677083647587975,7.398777455608566,6.932161434945164,27.072240566274207,15.728026259991704
-1.5885114555909987,0.42749324213862183,7.468099069958018,7.089441697545081,25.81029209595588,14.935558876926821
-1.5842365231696125,0.6855961630981806,7.538993486933468,7.238797286314349,24.012236169300476,13.471311127699314
-1.5773805615386307,0.9257185247911854,7.611381459796612,7.3735103975913425,21.682965422548815,11.368449348852598
-1.568123376290719,1.1425481790166736,7.685116563772525,7.487194891079868,18.880416510870937,8.719877952288414
-1.5566978945005523,1.331352344125383,7.759988512683324,7.574393670602753,15.714557010027162,5.6748825074648135
-1.5433843710592985,1.4884979142256545,7.835732449389352,7.631142495677401,12.335874281998693,2.423515693725402
-1.528499391917042,1.6118566570456414,7.912043874346126,7.655377652614655,8.915053008789002,-0.8285826495043246
-1.5123808253465856,1.7010071871335315,7.988597650872272,7.647091826119612,5.618732557955878,-3.8886437835615553
-1.4953707534752503,1.7571945127130904,8.065068569133468,7.608205388283997,2.587610017504143,-6.601039153939739
-1.4777988083481193,1.7830706128881317,8.141150623016308,7.542194996744599,-0.07802801326671698,-8.861782083076422
-1.459968102219238,1.7822903327554647,8.216572572983754,7.453577175913835,-2.3232507600877046,-10.621505975824006
-1.4421451988916834,1.7590578251545876,8.291108344742891,7.347362116155595,-4.134975014710545,-11.87887228579059
-1.4245546206401374,1.7177080750074822,8.364581965904447,7.2285733932976886,-5.533042468893508,-12.66841620722873
-1.4073775398900625,1.6623776503185472,8.436867699837425,7.101889231225401,-6.559297865980326,-13.046944758753938
-1.390753763386877,1.596784671658744,8.50788659214968,6.971419783637862,-7.267313446175112,-13.081442553199556
-1.3747859166702896,1.5241115371969929,8.577600789986057,6.840605358105867,-7.714224025189789,-12.83993896503146
-1.3595448012983196,1.446969296945095,8.646006843567116,6.712205968455552,-7.9551009374604895,-12.385578034077737
-1.3450751083288686,1.36741828757049,8.713128903251672,6.588350188114775,-8.039634138748912,-11.773425860199168
-1.3314009254531636,1.287021946183001,8.77901240513282,6.470615929512783,-8.010598599751654,-11.049286420551796
-1.3185307059913336,1.2069159601854844,8.843718564427947,6.360123065307265,-7.90353770267434,-10.249811597882763
-1.3064615463894786,1.127880583158741,8.907319795081019,6.257624949328438,-7.747180734307167,-9.403333096885502
-1.2951827405578913,1.0504087758156695,8.969896044574304,6.1635916183595825,-7.5642372111536575,-8.531013741064053
-1.2846786527997347,0.9747664037041329,9.0315319607579,6.078281480948942,-7.372330419246524,-7.648064188181021
-1.2749309887626934,0.9010430995116677,9.092314775567388,6.001800839067132,-7.184927321716283,-6.764882272513472
-1.2659205577675767,0.8291938262945049,9.152332783958059,5.934152016341997,-7.0121889961938075,-5.888046985476211
-1.2576286195046318,0.7590719363325669,9.211674304121479,5.875271546487235,-6.861709168194172,-5.021145084674705
-1.2500379001413062,0.6904548446506251,9.27042701958635,5.825060095640488,-6.739134282307644,-4.165433974859599
-1.2431333516948,0.6230635018275487,9.328677620542756,5.783405755891892,-6.648672522786868,-3.3203569908415793
-1.2369027166765245,0.55657677659968,9.386511678101675,5.750202185983476,-6.593505628447252,-2.483931787437183
-1.2313369489105277,0.4906417203152075,9.44401369996151,5.725362868109104,-6.576119312355376,-1.653032745292714
-1.2264305317073756,0.4248805271916537,9.5012673286426,5.708832540656177,-6.598567594185783,-0.8235863745674448
-1.222181726435459,0.35889485124979587,9.558355654049162,5.700596676910503,-6.662684594946267,0.009304006205683042
-1.218592777922961,0.2922680053003332,9.615361620818268,5.700689716972559,-6.770254995258126,0.851290722961438
-1.2156700978699577,0.22456545534775194,9.672368517987994,5.709202624202174,-6.923151708720326,1.708759908541179
-1.2134244433164803,0.15533393826054867,9.729460544230015,5.726290223287585,-7.123446386996452,2.588845236453526
-1.2118711039338748,0.08409947439058414,9.786723446462892,5.752178675652121,-7.373494935807878,3.499467073746457
-1.211030109189969,0.010364525032505359,9.844245233219413,5.787173346389586,-7.675995809102775,4.449384983722195
-1.2109264639396438,-0.0663954330585224,9.902116966683309,5.831667196226808,-8.034012644611838,5.448246687152063
-1.211590418270229,-0.1467355595046408,9.960433638645577,5.886149663098328,-8.45094346006704,6.506607166510606
-1.2130577738652755,-0.23124499410531119,10.019295135276561,5.951215734763434,-8.930403948096377,7.635874708597182
-1.2153702238063286,-0.32054903358627496,10.078807292624196,6.027574481849405,-9.47596882189967,8.848111549385248
-1.2185757141421913,-0.4153087218052717,10.13908303744269,6.116055597343258,-10.090676934962575,10.15556756157383
-1.222728801360244,-0.5162154911548974,10.200243593416122,6.217611272958996,-10.776143985504714,11.569743520215738
-1.227890956271793,-0.6239769310099446,10.262419706145712,6.333308708161153,-11.531027365250376,13.099646533536896
-1.2341307255818925,-0.7392872046624483,10.325752793227323,6.4643051734965224,-12.348432222020378,14.748686788351922
-1.241523597628517,-0.8627715268826521,10.390395844962288,6.611792041380042,-13.21161494218598,16.509339617571978
-1.2501513128973436,-0.9948876763045119,10.456513765376089,6.7768854375557614,-14.087021853332109,18.354242556245904
-1.2601001896603887,-1.135757894837833,10.524282619751647,6.960427863118221,-14.913351013157634,20.22187631926566
-1.2714577686087671,-1.2848914049694093,10.593886898382829,7.1626466263108775,-15.585191513032406,21.994713712431388
-1.2843066826584613,-1.4407433200997335,10.665513364645937,7.3825937634351915,-15.930618622842434,23.468704440643975
-1.2987141158594586,-1.600049506328158,10.739339302280289,7.617280807841631,-15.68566022908729,24.317589988121856
-1.3147146109227401,-1.7569061086190307,10.815512110358705,7.860456707722849,-14.477960119504841,24.0681764393741
-1.3322836720089304,-1.9016857098140791,10.894116677435933,8.10113847211659,-11.850081752668117,22.12736593479011
-1.3513005291070712,-2.02018652734076,10.975128062157099,8.32241213146449,-7.373181212329592,17.929775240551393
-1.3715023943804787,-2.093918339464056,11.058352183471744,8.501709883870005,-0.8889597858765526,11.25808046870477
-1.3924415777751193,-2.1028079373228215,11.143369282310443,8.614290688557052,7.191323855053112,2.640304215069391
-1.4134696571483476,-2.0308946987722902,11.229512189196013,8.640693730707746,15.789418973937083,-6.525723200459295
-1.4337786041360705,-1.8730005090329194,11.31591912650309,8.575436498703153,23.52389757471535,-14.467793700368027
-1.4525086092263997,-1.6377615332857658,11.401673491490122,8.430758561699474,29.369751913575257,-19.920115917238824
-1.4688862245592573,-1.344064014150013,11.485981077107116,8.231557402527086,33.054688784444934,-22.630754436084185
-1.4823268647007575,-1.0135171263055638,11.568296651132387,8.005249858166245,34.922577301976325,-23.149300337981877
-1.4924620359638132,-0.6642913532858006,11.64834914971405,7.773756854786426,35.54681433895084,-22.296066807353725
-1.4991049494966713,-0.3088232098962922,11.726086718261914,7.550796186712889,35.44413214167841,-20.785215624856008
-1.5021931815956342,0.04561811152049189,11.801594680129043,7.342944030464329,34.97453747383005,-19.104539742773017
-1.5017370004804294,0.39536348625879236,11.875024120433686,7.151898633036598,34.35172859031092,-17.540766472010784
-1.4977833656178414,0.7388807721619015,11.946543106764052,6.97649096831649,33.68621547982852,-16.243538739709468
-1.4903945578962223,1.0757429269601868,12.016308016447217,6.814055580919396,33.0250701412281,-15.28082993734782
-1.4796371286266206,1.4059936283724679,12.084448572256411,6.661247281545918,32.37963439905108,-14.675856604891013
-1.465577192342896,1.7297899723629786,12.15106104507187,6.5144887154970075,31.742707298818825,-14.428724355780068
-1.4482792926192662,2.0472170453511667,12.21620593222684,6.370201471939207,31.09865943074974,-14.528092097465807
-1.4278071221657547,2.3582036396586643,12.279907946946231,6.224920550964549,30.429290668217924,-14.95696571061073
-1.404225085769168,2.6624965463408437,12.342157152455878,6.075350893858442,29.717264931199285,-15.695256372589085
-1.3776001203057595,2.9596691956528365,12.402910661394461,5.9183983301325505,28.94819940514948,-16.720664800342814
-1.348003428349231,3.2491511897043313,12.462094644695787,5.7511916821291225,28.112000972861985,-18.008789077519943
-1.3155119164521878,3.530271199432951,12.519606561517078,5.571103791353923,27.203755481412237,-19.532971002374804
-1.2802092044578584,3.8023087542470733,12.575317599430617,5.375774081330174,26.2243132181557,-21.264180125062996
-1.2421861169153876,4.06455188642863,12.629075340243919,5.1631322800795445,25.180627126809476,-23.171110721090816
-1.2015405980511014,4.316358157696724,12.680706663044715,4.931421172868636,24.08585892751633,-25.220590553514466
-1.158377016474134,4.557216746971887,12.730020874773402,4.6792152673334915,22.959254937604356,-27.378346973969137
-1.1128048490044151,4.786809296347931,12.776813027446737,4.4054317975938,21.82579752227164,-29.610133224680684
-1.0649367560409357,5.005067271570647,12.820867345422675,4.109330465346993,20.715652755558047,-31.88318024506209
-1.0148860833252293,5.212223799126228,12.861960650076146,3.790498662896372,19.66345457196745,-34.16790528921395
-0.9627638453339671,5.408858344845902,12.89986563670511,3.4488196100042323,18.70748532868146,-36.43977845203935
-0.9086752618855081,5.595933198132717,12.934353832805153,3.084421825483839,17.88882676719092,-38.68122193014611
-0.8527159299041809,5.774821465804626,12.965198051059991,2.697609606182378,17.2505571574445,-40.883392349799166
-0.7949677152461346,5.947327037379071,12.992174147121816,2.288775682684386,16.837050669454573,-43.04766604193281
-0.7354944448723439,6.115697544073616,13.01506190394866,1.858299022265058,16.693379103281842,-45.18659205283508
-0.6743374694316078,6.2826313351064345,13.03364489417131,1.406433101736707,16.864698016343908,-47.32395888967755
-0.6115111560805434,6.451278315269874,13.047709225188678,0.9331935128399316,17.395269481862304,-49.4933617753882
-0.5469983729278447,6.625231010088497,13.057041160317077,0.43825989508604957,18.326335479530286,-51.73411103932847
-0.48074606282695975,6.808494364883799,13.061423759267937,-0.07908121530723511,19.69122261733297,-54.08221585923347
-0.41266111917812176,7.005406591057129,13.060632947114865,-0.6199033738995698,21.504487367371283,-56.552022677869275
-0.3426070532675505,7.220451464730842,13.054433913375869,-1.1854236006782626,23.739039847748888,-59.10010450386827
-0.27040253862024205,7.457841863208331,13.042579677369085,-1.7764246457169452,26.280365059538607,-61.55631991459763
-0.19582411998815874,7.720645513803717,13.024815430911916,-2.3919878448629217,28.840564867485313,-63.4982365073478
-0.11861766485012157,8.00905116247857,13.000895552463287,-3.0269702099363998,30.812982944245967,-64.04308802790776
-0.038527153225335856,8.31718099192103,12.970625850363923,-3.667401090215477,31.076118595109506,-61.572507975466074
0.044644656693874435,8.627942177872125,12.933951839461768,-4.283126169970138,27.881755205191997,-53.58637536130839
0.13092407847259568,8.906759729924046,12.891120577762067,-4.818989923583222,19.2620122733152,-37.30840775091887
0.21999167577183615,9.099379852657197,12.842930678526235,-5.1920740010924105,4.577756964693193,-11.927597633275187
0.3109854742984081,9.145157422304129,12.79100993851531,-5.311349977425162,-13.341913661646043,18.321707046095298
0.4024370485214494,9.011738285687668,12.737896438741059,-5.128132906964209,-28.658857548214797,44.81190414223135
0.4925544313783261,8.725149710205521,12.686615109671417,-4.680013865541896,-37.03575661229389,61.015884776294314
