th1 (rad),w1 (rad/s),th2 (rad),w2 (rad/s),a1 (rad/s^2),a2 (rad/s^2)
5.858504112462607,1.972044462252516,3.8940313570232488,2.8623702115477125,2.4049745139594436,11.211515563167094
5.878224557085132,1.9960942073921104,3.9226550591387257,2.9744853671793834,1.8811773524002953,11.29870166623871
5.898185499159053,2.0149059809161134,3.9523999128105194,3.0874723838417704,1.3271384087570988,11.3672815141078
5.918334558968215,2.0281773650036845,3.983274636648937,3.2011451989828483,0.7429310355597039,11.41677342708581
5.938616332618252,2.0356066753592814,4.015286088638765,3.3153129332537064,0.12888573398953682,11.447074378211171
5.958972399371844,2.0368955326991767,4.0484392179713025,3.429783677035818,-0.5143963584931647,11.458514003045753
5.979341354698836,2.031751569114245,4.082737054741661,3.5443688170662755,-1.1860366072679498,11.451908450870665
5.999658870389979,2.019891203041565,4.118180742912323,3.6588879015749822,-1.8848803155918987,11.428612974207761
6.019857782420394,2.0010423998856464,4.154769621928073,3.7731740313170596,-2.6095081593626084,11.390572147905678
6.039868206419251,1.9749473182920203,4.192501362241244,3.8870797527961165,-3.3582592888525427,11.34036669717556
6.059617679602171,1.941364725403495,4.231372159769205,4.000483419767872,-4.129267646381145,11.281256119632161
6.079031326856207,1.9000720489396834,4.271376993966884,4.113295980964193,-4.920512843784232,11.217216630510723
6.098032047345604,1.850866920501841,4.312509953776526,4.225468147269301,-5.729886653965902,11.152974458033572
6.116540716550622,1.793568053962182,4.354764635249219,4.336997891849637,-6.555275808017228,11.0940351737778
6.134476397090244,1.7280152958820099,4.398134614167716,4.447938243587415,-7.394661373608691,11.046710555096624
6.151756550049064,1.654068682145923,4.44261399660359,4.558405349138381,-8.24623454890128,11.018145421879193
6.168297236870523,1.5716063366569102,4.488198050094973,4.668586803357173,-9.108528268317137,11.01634792739223
6.184013300237092,1.4805210539737388,4.5348839181285445,4.778750282631095,-9.980563603778585,11.050227846458215
6.19881851077683,1.3807154179359529,4.582671420954855,4.889252561095677,-10.86200955532664,11.129648391670893
6.21262566495619,1.2720953223826865,4.631563946565812,5.000549045012386,-11.75335440632299,11.265497840887802
6.2253466181800166,1.1545617783194566,4.681569437015936,5.113204023421265,-12.656086226286675,11.469787520287513
6.236892235963211,1.02800091605659,4.732701477250148,5.22790189862414,-13.572879031345856,11.755782023171767
6.247172245123776,0.8922721257431314,4.78498049623639,5.3454597188558575,-14.507778966886919,12.138165194545346
6.256094966381208,0.7471943360742622,4.838435093424948,5.466841370801311,-15.466380571538565,12.63324000748525
6.26356690974195,0.5925305303588766,4.893103507132961,5.593173770876164,-16.4559747522338,13.25914950832344
6.269492215045539,0.42797078283653855,4.949035244841723,5.7257652659593985,-17.485634020423927,14.036084951523408
6.273771922873904,0.2531144426322993,5.006292897501317,5.866126115474633,-18.56617047861746,14.986407716911406
6.276303067300227,0.06745273784612471,5.064954158656064,6.015990192643747,-19.70984663464562,16.134538297165893
6.276977594678688,-0.1296457285003315,5.125114060582501,6.177335575615405,-20.92961800680712,17.506330737493887
6.2756811373936845,-0.33894190856840267,5.186887416338655,6.352398882990344,-22.237503651163113,19.127404500166204
6.272291718308001,-0.5613169450800338,5.250411405168558,6.543672927992006,-23.641354164652906,21.019460772101212
6.2666785488572,-0.7977304867265629,5.315848134448478,6.753867535713018,-25.138715709514766,23.19282337418959
6.258701243989934,-1.0491176438217105,5.383386809805608,6.9857957694549135,-26.705530889204933,25.632108320657096
6.248210067551717,-1.3161729527137598,5.453244767500157,7.242116852661485,-28.275945354718925,28.269840208220337
6.23504833802458,-1.598932406260949,5.525665936026773,7.524815254743688,-29.70766864147417,30.9401776141376
6.21905901396197,-1.8960090926756905,5.60091408857421,7.834217030885064,-30.726576196063036,33.30354072783617
6.200098923035213,-2.203274854636321,5.67925625888306,8.167252438163425,-30.84972048999835,34.7398994817097
6.17806617448885,-2.5117720595363044,5.760928783264695,8.514651432980521,-29.311259236863414,34.24255374394897
6.1529484538934875,-2.8048846519049384,5.8460752975945,8.85707697042001,-25.083422458224113,30.436732269046153
6.124899607374438,-3.0557188764871794,5.9346460672987,9.161444293110472,-17.18853343116112,21.99111559601314
6.094342418609566,-3.227604210798791,6.026260510229805,9.381355449070604,-5.474087950086936,8.660350372984237
6.062066376501578,-3.28234509029966,6.1200740647205105,9.467958952800446,8.501974768457282,-7.520875293205997
6.029242925598582,-3.197325342615087,6.214753654248515,9.392750199868386,21.65460759816972,-22.498551581576546
5.997269672172431,-2.98077926663339,6.308681156247199,9.16776468405262,31.182208873378784,-32.654640694065286
5.9674618795060965,-2.6689571778996024,6.400358803087725,8.841218277111969,36.25035129509464,-37.040340506586716
5.940772307727101,-2.306453664948656,6.488770985858845,8.470814872046102,37.78212426362299,-37.02169496101064
5.917707771077614,-1.928632422312426,6.573479134579306,8.100597922435995,37.205182627410515,-34.561210555679644
5.89842144685449,-1.5565805960383208,6.654485113803665,7.7549858168791985,35.63833649352775,-31.146389951717634
5.882855640894107,-1.200197231103043,6.732034971972458,7.443521917362022,33.74091297852612,-27.62315672445872
5.870853668583076,-0.8627881013177818,6.806470191146078,7.167290350117435,31.837350293769124,-24.386363004980222
5.862225787569899,-0.5444145983800905,6.878143094647252,6.923426720067633,30.0607351627313,-21.581773746166277
5.856781641586098,-0.24380724675277754,6.947377361847929,6.70760898260597,28.448003634043115,-19.235423399953913
5.85434356911857,0.040672789587653635,7.0144534516739885,6.515254748606432,26.992326050572235,-17.322478266295306
5.854750297014447,0.310596050093376,7.079605999160052,6.342029965943478,25.669456253117026,-15.800404447417582
5.8578562575153805,0.5672906126245463,7.143026298819487,6.184025921469303,24.450259385734114,-14.623687031343959
5.863529163641626,0.8117932064818874,7.204866558034181,6.037789051155863,23.30635836186539,-13.749648690018601
5.871647095706445,1.0448567901005412,7.265244448545739,5.900292564255677,22.212482506794807,-13.140191372592643
5.88209566360745,1.2669816151684894,7.324247374188296,5.768890650529751,21.147286302874686,-12.761790311330593
5.894765479759135,1.4784544781972362,7.381936280693593,5.641272747416445,20.093485962493858,-12.584832721370073
5.909550024541107,1.6793893378221747,7.438349008167758,5.515424420202744,19.037708765711287,-12.582798333250578
5.926343917919329,1.8697664254792876,7.493503252369785,5.389596436870239,17.970231147206704,-12.731497124480892
5.945041582174122,2.0494687369513547,7.547399216738487,5.2622814656254295,16.88467770211287,-13.00844781167417
5.965536269543636,2.2183155139724833,7.600022031394741,5.132196987508688,15.77770591677805,-13.39241968306499
5.987719424683361,2.376092573140264,7.651344001269828,4.998272790678038,14.648681697412384,-13.863132448545045
6.011480350414764,2.522579390114388,7.701326729176608,4.8596414661925875,13.499344425105186,-14.401096194658196
6.036706144315907,2.65757283436544,7.749923143838534,4.715630504246006,12.33346015384736,-14.987568059106879
6.063281872659561,2.7809074359039134,7.797079448880994,4.565754823654937,11.156464002749303,-15.60460022833517
6.091090947018601,2.8924720759314066,7.842736997117544,4.409708821371585,9.97509583107286,-16.235153758837956
6.120015667777915,2.9922230342421354,7.88683408533126,4.247357283783206,8.797035905066219,-16.8632538858569
6.149937898120337,3.0801933932927974,7.929307658169092,4.078724744924637,7.6305489812768466,-17.47416460918943
6.1807398320532645,3.156498883105566,7.970094905618339,3.9039830988327426,6.484145888598295,-18.0545632132856
6.21230482088432,3.221340341991549,8.009134736606667,3.7234374666998864,5.366271354657131,-18.59269875355954
6.244518224304236,3.27500305553812,8.046369111273666,3.537510479164291,4.285025687400189,-19.078522166979702
6.277268254859617,3.317853312412122,8.081744216065308,3.346725257494494,3.2479262479907978,-19.503779292006048
6.3104467879837385,3.35033257489203,8.115211468640254,3.1516874645744335,2.261712698972803,-19.86206149988216
6.343950113732658,3.372949701881758,8.146728343285998,2.953066849575612,1.3321980079595463,-20.148811698633082
6.377679610751476,3.3862716819613534,8.176259011781754,2.751578732589281,0.46416529845427335,-20.36128609493451
6.411542327571089,3.390913334945896,8.203774799107647,2.547965871639936,-0.3386910311859272,-20.498474268479164
6.445451460920548,3.387526424634037,8.229254457824046,2.3429811289551443,-1.0737829032197073,-20.56098184780236
6.479326725166889,3.37678859560184,8.252684269113598,2.137371310477121,-1.7396089776164012,-20.550881409704434
6.513094611122907,3.359392505825676,8.274057982218368,1.9318624963800763,-2.3357028506359803,-20.47153818675451
6.546688536181163,3.3360354773193164,8.293376607182168,1.7271471145125312,-2.862554587630303,-20.327417776491373
6.580048890954356,3.307409931443013,8.310648078327294,1.5238729367476176,-3.3215114859538257,-20.1238833075058
6.613122990268787,3.274194816583475,8.32588680769477,1.3226341036725595,-3.714664064607601,-19.86698943338568
6.645864938434621,3.237048175937399,8.339113148731496,1.1239642093387028,-4.044723143979816,-19.563280104571163
6.678235420193995,3.1966009444976007,8.350352790824882,0.9283314082929912,-4.3148935268458795,-19.219596336523473
6.710201429638971,3.153452009229142,8.359636104907812,0.7361354449277565,-4.528749246844995,-18.842899198329643
6.741735949731263,3.108164516760692,8.36699745935709,0.5477064529444601,-4.6901146520081,-18.440112058160608
6.77281759489887,3.061263370240611,8.372474523886535,0.363305332362854,-4.802954788896606,-18.017984824867494
6.803430228601275,3.013233822351645,8.376107577210163,0.18312548411417906,-4.8712777047939175,-17.582981607367103
6.833562566824792,2.964521045303706,8.377938832051305,0.007295668040508019,-4.899050449588662,-17.141191958344933
6.863207777277829,2.9155305408078194,8.37801178873171,-0.16411625154294132,-4.8901297892217155,-16.698264743810363
6.892363082685907,2.8666292429156024,8.37637062621628,-0.33109889898104494,-4.848207983214616,-16.259362730879527
6.921029375115062,2.8181471630834563,8.37305963722647,-0.49369252628984023,-4.77677346217659,-15.829135233754721
6.949210846745897,2.7703794284616903,8.368122711963572,-0.6519838786273875,-4.679085886984454,-15.411705598906494
6.976914641030514,2.7235885695918456,8.361602873177299,-0.8061009346164525,-4.558164887900513,-15.010669920604428
7.004150526726432,2.6780069207128405,8.353541863831135,-0.9562076338224967,-4.416791768883218,-14.629103116561867
7.030930595933561,2.633839003024008,8.34397978749291,-1.1024986649881154,-4.25752361394098,-14.269568308954392
7.057268985963801,2.5912637668845986,8.332954800843028,-1.2451943480776593,-4.082719540463995,-13.93412529098673
7.083181623632647,2.550436571479959,8.320502857362252,-1.3845356009875265,-3.894579301008625,-13.624333654938402
7.108685989347446,2.511490778469873,8.306657501352376,-1.5207789375369105,-3.6951950329484635,-13.3412458591591
7.1338008971321445,2.474538828140388,8.291449711977007,-1.6541913961285015,-3.4866176872065537,-13.085385072910658
7.158546285413548,2.4396726512683227,8.274907798015722,-1.7850452468576081,-3.2709405198135597,-12.856702031078676
7.182943011926231,2.406963246070187,8.257057345547146,-1.9136122671683948,-3.0504029737939327,-12.654504359801512
7.207012644386933,2.3764592163322478,8.237921222875462,-2.04015731076641,-2.8275192483243874,-12.477350961246586
7.230777236550256,2.348184023849004,8.217519649767798,-2.164930820378876,-2.6052367122477325,-12.322903235266239
7.254259076788745,2.3221316567265267,8.195870341564008,-2.2881598527315385,-2.3871298114935846,-12.1877245053686
7.277480393356011,2.2982603586115906,8.172988743036694,-2.4100370977852243,-2.1776347804315783,-12.06701962940964
7.300462996942127,2.276484010807275,8.148888372058842,-2.530707294079321,-1.982328507393031,-11.954309480897752
7.323227837050199,2.2566607257333446,8.12358129911805,-2.6502503888882987,-1.8082500614976846,-11.841041508004917
7.345794444307533,2.238578225118368,8.097078795229166,-2.768660803968348,-1.664253770054258,-11.71615050560583
7.368180226558716,2.2219356874178255,8.069392187189482,-2.885822309024406,-1.5613657606894777,-11.565606622702992
7.390399583432894,2.2063220298109307,8.040533964099238,-3.0014783752514362,-1.5130885238377756,-11.3720246553424
7.412462803731004,2.191191144572553,8.010519180346723,-3.1151986218048604,-1.5355578203265052,-11.114463317925624
7.434374715176729,2.1758355663692877,7.979367194128674,-3.2263432549841164,-1.6474035884508276,-10.768614937705529
7.456133070840422,2.1593615304847793,7.947103761578833,-3.334029404361172,-1.869109286620258,-10.307664145121324
7.47772668614527,2.1406704376185766,7.9137634675352215,-3.437106045812385,-2.221624461791358,-9.704148335377434
7.499133390521456,2.118454193000663,7.8793924070770975,-3.5341475291661593,-2.7240062377324845,-8.933123934513503
7.520317932451462,2.091214130623338,7.844050931785436,-3.623478768511294,-3.3900096118491923,-7.976744614096539
7.541230073757696,2.057314034504846,7.807816144100323,-3.7032462146522596,-4.223873597015061,-6.82990883396914
7.561803214102744,2.015075298534695,7.7707836819538,-3.771545302991951,-5.216058948131803,-5.505937449495014
7.581953967088091,1.9629147090533772,7.73306822892388,-3.826604677486901,-6.340238760189144,-4.04049884641671
7.6015831141786245,1.8995123214514857,7.694802182149011,-3.867009665951068,-7.553098300327191,-2.491661820176068
7.620578237393139,1.8239813384482138,7.6561320854895,-3.8919262841528286,-8.798073286603861,-0.9345633986571991
7.638818050777621,1.736000605582175,7.617212822647972,-3.9012719181394004,-10.012909460568267,0.5490897227847773
7.6561780568334425,1.6358715109764923,7.578200103466578,-3.895781020911553,-11.139296331059853,1.8842261087114918
7.672536771943207,1.5244785476658937,7.5392422932574625,-3.876938759824438,-12.131736103898161,3.0143896509195836
7.687781557419866,1.403161186626912,7.500472905659218,-3.846794863315242,-12.963024037831369,3.9089141863998402
7.701813169286135,1.2735309462485984,7.462004957026066,-3.8077057214512435,-13.625170052284881,4.563762945742171
7.714548478748621,1.1372792457257497,7.423927899811553,-3.7620680919938216,-14.126383987318121,4.996987557576668
7.725921271205879,0.9960154058525684,7.386307218891615,-3.712098216418055,-14.485888126786953,5.241308639658579
7.735881425264404,0.8511565245846989,7.349186236727434,-3.6596851300214692,-14.728438392276223,5.336435668540509
7.744392990510251,0.7038721406619367,7.312589385427219,-3.6063207733360643,-14.879834201210432,5.322872596173728
7.7514317119168705,0.5550737986498324,7.276526177693858,-3.553092047374327,-14.963919134459683,5.237860823517388
7.756982449903369,0.4054346073052356,7.240995257220115,-3.5007134391391532,-15.000996398714797,5.11331148068575
7.761036795976421,0.2554246433180877,7.205988122828724,-3.4495803243322958,-15.007306908618114,4.97520757663355
7.763591042409601,0.10535157423190653,7.171492319585401,-3.39982824856596,-14.995173120812797,4.843907730877782
7.76464455815192,-0.04460015697622144,7.137494037099741,-3.3513891712571824,-14.973484837979425,4.7348949450615665
7.764198556582158,-0.1943350053560157,7.10398014538717,-3.3040402218065665,-14.948307937280418,4.659665684711064
7.7622552065285975,-0.3438180847288199,7.070939743169104,-3.257443564959456,-14.923489074246032,4.626585612169547
7.758817025681309,-0.49305297547128024,7.038365307519509,-3.2111777088377607,-14.901194945066623,4.641630430704193
7.753886495926596,-0.6420649249219464,7.006253530431132,-3.1647614045307186,-14.882365095116329,4.708986435519824
7.747465846677377,-0.7908885758731097,6.9746059163858245,-3.1176715401755204,-14.867079106558712,4.831515293101629
7.739556960918646,-0.9395593669386968,6.9434292009840695,-3.069356387244504,-14.85484895726081,5.011100923930096
7.730161367249259,-1.088107856511305,6.912735637111624,-3.019245378005203,-14.84485048734821,5.2489003608139315
7.719280288684146,-1.236556361384787,6.882543183331572,-2.9667563743970637,-14.836107561363717,5.545519769221003
7.706914725070298,-1.384917436998424,6.852875619587602,-2.9113011767048538,-14.82764063836049,5.901134174204116
7.693065550700314,-1.533193843382029,6.823762607820553,-2.8522898349628125,-14.818589120428753,6.315566283320686
7.677733612266493,-1.6813797345863164,6.795239709470925,-2.7891341721296055,-14.808314557126458,6.788336797992449
7.66091981492063,-1.829462880157581,6.767348367749629,-2.721250804149681,-14.796489748570957,7.3186960095639835
7.642625186119054,-1.9774277776432905,6.740135859708133,-2.6480638440540414,-14.783177063716815,7.905644300414585
7.622850908342621,-2.1252595482804586,6.713655221267592,-2.5690074010498956,-14.768897844921867,8.547947325983529
7.601598312859816,-2.272948526729677,6.687965147257093,-2.4835279277900604,-14.754693540487423,9.244150000858241
7.57886882759252,-2.4204954621345514,6.663129867979192,-2.391086427781478,-14.742178107316697,9.992591784220977
7.554663872971174,-2.5679172432077184,6.639219003701378,-2.2911605099392682,-14.73358014888238,10.79142396512751
7.528984700539097,-2.715253044696542,6.616307398601985,-2.1832462702879933,-14.73177205995852,11.638627457206336
7.501832170092132,-2.862570765296127,6.594474935899105,-2.06685999571593,-14.740281946724261,12.532026733355133
7.473206462439171,-3.0099735847633697,6.573806335941946,-1.9415397283823788,-14.763282001431687,13.469291567690373
7.443106726591537,-3.1576064047776864,6.554390938658122,-1.806846812705475,-14.805543925468383,14.447912642648301
7.41153066254376,-3.3056618440323704,6.536322470531067,-1.662367686278992,-14.872347305850859,15.465129008167303
7.378474044103436,-3.454385317090879,6.519698793668277,-1.507716396197319,-14.969319662146807,16.517773656830872
7.343930190932528,-3.604078513712347,6.504621629706303,-1.3425386596290103,-15.102175895077442,17.60198638609836
7.307889405795405,-3.7551002726631215,6.491196243110013,-1.1665187957680268,-15.276308261279276,18.712718254431515
7.270338403068774,-3.9078633552759143,6.479531055152333,-0.9793916132237116,-15.496153354007475,19.842916146927102
7.231259769516014,-4.062824888815989,6.469737139020096,-0.7809624517544406,-15.764227033574288,20.982225611579832
7.190631520627854,-4.220467159151732,6.461927514502552,-0.5711401956386423,-16.079669342954404,22.11498232276372
7.148426849036337,-4.381263852581276,6.456216112546166,-0.34999037241100506,-16.43607947936236,23.21717870862806
7.104614210510524,-4.5456246473749,6.452716208822055,-0.11781858532472445,-16.81835503749818,24.252006972817455
7.059157964036776,-4.713808197749882,6.451538022968808,0.12470148440345011,-17.198211451505323,25.163539851126707
7.012019882059277,-4.885790312264935,6.452785037812843,0.37633688291471723,-17.528127199072106,25.868233095055675
6.963161978936627,-5.0610715842556555,6.45654840664199,0.6350192138652739,-17.733811828179096,26.244469174997676
6.912551263094071,-5.238409702537447,6.462898598780643,0.8974639056152507,-17.706247120639937,26.121765994112735
6.860167166068696,-5.415472173743846,6.471873237836795,1.158681565556378,-17.296363353884445,25.27419097739627
6.806012444331258,-5.588435807282691,6.483460053492359,1.4114234753303407,-16.31878818217475,23.42736190881824
6.750128086258431,-5.751623689104439,6.497574288245662,1.6456970944185232,-14.575010329095868,20.293942635129238
6.6926118493673865,-5.897373792395397,6.5140312591898475,1.8486365207698157,-11.906842241751066,15.653132941632443
6.633638111443433,-6.0164422148129075,6.532517624397546,2.0051678501861403,-8.280186231929683,9.473751787332349
