th1 (rad),w1 (rad/s),th2 (rad),w2 (rad/s),a1 (rad/s^2),a2 (rad/s^2)
0.5125552415196875,1.1006577274401652,3.216268260261914,-2.900516045765433,-4.956570972666694,-4.271469353141865
0.5235618187940891,1.0510920177134984,3.1872630998042597,-2.9432307392968515,-4.844562952727758,-4.362499219992777
0.5340727389712241,1.0026463881862209,3.1578307924112914,-2.9868557314967794,-4.7029723679338025,-4.424876607130304
0.5440992028530863,0.9556166645068829,3.1279622350963234,-3.0311044975680823,-4.5360421692731245,-4.465542469330215
0.5536553694981552,0.9102562428141516,3.0976511901206427,-3.0757599222613843,-4.347658621749166,-4.490853433048799
0.5627579319262968,0.86677965659666,3.066893590898029,-3.120668456591872,-4.141260514829799,-4.50647934432886
0.5714257284922634,0.825367051448362,3.0356869063321104,-3.1657332500351605,-3.9197951329430727,-4.51736748352234
0.579679399006747,0.7861691001189313,3.0040295738317586,-3.210906924870384,-3.6857099540890657,-4.527756897842251
0.5875410900079363,0.7493120005780406,2.971920504583055,-3.2561844938488065,-3.4409696425545193,-4.5412275375863995
0.5950342100137167,0.7149023041524954,2.939358659644567,-3.3015967692246706,-3.1870892955724206,-4.56077120917399
0.6021832330552417,0.6830314111967712,2.9063426919523203,-3.3472044813164104,-2.9251766348138384,-4.588874101871745
0.6090135471672093,0.6537796448486328,2.8728706471391563,-3.393093222335128,-2.6559775836025796,-4.62760334716954
0.6155513436156956,0.6272198690126071,2.838939714915805,-3.4393692558068234,-2.3799212485548153,-4.678692464622965
0.6218235423058217,0.6034206565270589,2.8045460223577368,-3.486156180453053,-2.0971616378836893,-4.7436225170178545
0.6278577488710922,0.582449040148222,2.769684460553206,-3.533592405623232,-1.807614474141395,-4.823697321343089
0.6336822392725745,0.564372895406808,2.7343485364969737,-3.581829378836663,-1.5109882144884121,-4.9201121787443585
0.6393259682266426,0.549263013261924,2.6985302427086073,-3.6310305006241066,-1.2068089156563142,-5.0340163623485825
0.6448185983592618,0.5371949241053608,2.6622199377023663,-3.6813706642475923,-0.8944389200657649,-5.166570109748108
0.6501905476003154,0.5282505349047032,2.6254062310598902,-3.7330363653450735,-0.5730895399199332,-5.31899717527861
0.6554730529493624,0.5225196395055038,2.5880758674064395,-3.7862263370978595,-0.2418280188403979,-5.492634163176596
0.6606982493444175,0.5201013593170999,2.550213604035461,-3.8411526787296255,0.10042090843421442,-5.6889779297298455
0.6658992629375885,0.5211055684014421,2.5118020772481646,-3.898042458026924,0.4548785273218952,-5.90973233960661
0.671110318621603,0.5256543536746611,2.4728216526678954,-3.95713978142299,0.8229203856110249,-6.156855602682526
0.6763668621583496,0.5338835575307713,2.4332502548536654,-4.018708337449815,1.2060888882868355,-6.432609300647647
0.6817056977336573,0.5459444464136397,2.3930631714791675,-4.0830344304562916,1.6061097618991205,-6.739610015703796
0.6871651421977937,0.5620055440326309,2.3522328271746047,-4.150430530613329,2.024911682967417,-7.080884148747517
0.69278519763812,0.582254660862305,2.310728521868471,-4.221239372100804,2.4646479484863395,-7.459925975144618
0.698607744246743,0.6069011403471685,2.2685161281474633,-4.29583863185225,2.9277183377185545,-7.880758086779523
0.7046767556502147,0.636178323724354,2.2255577418289407,-4.374646212720045,3.4167880857068633,-8.34799186953311
0.7110385388874583,0.6703462045814227,2.18181127970174,-4.458126131415376,3.934798861016308,-8.86688317411594
0.7177420009332725,0.7096941931915858,2.1372300183875863,-4.546794963156536,4.484963333417362,-9.443374218383312
0.7248389428651884,0.7545438265257594,2.091762068756021,-4.641228705340369,5.070729561847639,-10.084105977120984
0.7323843811304459,0.8052511221442358,2.045349781702617,-4.742069765111579,5.6956927960780295,-10.79637419765912
0.7404368923518883,0.8622080501050161,1.9979290840515014,-4.85003350708817,6.363418402136398,-11.587984033764771
0.7490589728529384,0.9258422341263801,1.9494287489806197,-4.965913347425818,7.077117393823485,-12.466928828532259
0.7583173951942023,0.996613408064615,1.8997696155063615,-5.090582635711141,7.839080694451907,-13.44077110487447
0.7682835292748484,1.0750042150091341,1.84886378914925,-5.224990346759886,8.649722641835691,-14.515528251832654
0.7790335714249398,1.1615014414274911,1.7966138856816511,-5.370145629278213,9.505998528147217,-15.693747518331275
0.7906485858392147,1.2565614267089633,1.742912429388869,-5.527083104461525,10.398833530790114,-16.971277456617166
0.8032142001063044,1.3605497620168645,1.6876415983442536,-5.696795879027697,11.309023447319744,-18.331992643730885
0.816819697726473,1.473639996490062,1.6306736395539767,-5.880115805465006,12.20085529254446,-19.739420226173515
0.8315560976913736,1.5956485494155066,1.5718724814993266,-6.077510007726741,13.012532409303432,-21.12395927145724
0.8475125831855287,1.7257738735085408,1.5110973814220592,-6.288749600441314,13.642640935679573,-22.364533578000298
0.8647703219206141,1.8622002828653366,1.448209885417646,-6.512394936221317,13.933027463304118,-23.2649803431465
0.8833923247492674,2.001530557498378,1.3830859360554328,-6.745044739652782,13.651920101908042,-23.53010688568898
0.9034076303242512,2.1380497585174583,1.315635488658905,-6.9803458085096715,12.488868977557692,-22.756866401670464
0.9247881279094258,2.2629384482930353,1.2458320305738082,-7.207914472526376,10.085662124545365,-20.47337377432649
0.9474175123923562,2.363795069538489,1.1737528858485444,-7.412648210269641,6.137155019162583,-16.272155259367985
0.971055463087741,2.4251666197301147,1.099626403745848,-7.57536976286332,0.5769327085032294,-10.058441348352709
0.9953071292850422,2.430935946815147,1.0238727061172148,-7.675954176346847,-6.219257416364754,-2.3225227244364732
1.0196164887531936,2.3687433726514993,0.9471131643537464,-7.699179403591212,-13.39245129216525,5.808739936121175
1.0433039224797085,2.2348188597298466,0.8701213703178342,-7.64109200423,-19.875283983129364,12.947414431472328
1.065652111077007,2.036066019898553,0.7937104502755342,-7.511617859915277,-24.85677237016943,18.069815700630112
1.0860127712759926,1.7874982961968586,0.7185942716763815,-7.330919702908976,-28.073991724216864,20.896385544620582
1.1038877542379613,1.50675837895469,0.6452850746472917,-7.12195584746277,-29.74370774524878,21.781432840094993
1.1189553380275081,1.209321301502202,0.574065516172664,-6.90414151906182,-30.297427249581684,21.346020811500566
1.13104855104253,0.9063470290063851,0.5050241009820458,-6.690681310946815,-30.158392429066403,20.179053630790644
1.140112021332594,0.604763104715721,0.4381172878725776,-6.488890774638908,-29.64425574744879,18.713704691733138
1.146159652379751,0.30832054724123314,0.37322838012618853,-6.301753727721577,-28.958818490909067,17.223728939928588
1.1492428578521634,0.018732362332142483,0.31021084284897277,-6.129516438322291,-28.218335197445512,15.863739525404494
1.1494301814754848,-0.26345098964231267,0.24891567846574986,-5.970879043068246,-27.481370819471405,14.711744865267793
1.1467956715790617,-0.5382646978370267,0.1892068880350674,-5.823761594415568,-26.771772862158443,13.800741154786829
1.1414130246006915,-0.8059824264586111,0.13096927209091175,-5.685754182867699,-26.093871841637014,13.138927494014693
1.1333532003361053,-1.0669211448749811,0.07411173026223475,-5.554364907927552,-25.441816290462498,12.721592819005773
1.1226839888873554,-1.321339307779606,0.018568081182959224,-5.4271489797374945,-24.80508740226339,12.537690249468232
1.1094705958095594,-1.56939018180224,-0.035703408614415726,-5.301772077242812,-24.17169859029225,12.573257981703462
1.093776693991537,-1.8111071677051624,-0.08872112938684384,-5.176039497425777,-23.53004584277159,12.81305499894636
1.0756656223144854,-2.0464076261328783,-0.14048152436110162,-5.047908947436314,-22.869987269310865,13.24123045221637
1.0552015460531565,-2.275107498825987,-0.19096061383546475,-4.9154966429141504,-22.183483373203757,13.841503601762556
1.0324504710648967,-2.4969423325580244,-0.24011558026460628,-4.777081606896525,-21.464981095504903,14.597129059685857
1.0074810477393166,-2.7115921435130734,-0.28788639633357155,-4.631110316299666,-20.711638317491,15.49080521174997
0.9803651263041858,-2.9187085266879835,-0.3341974994965682,-4.476202264182167,-19.92343675892758,16.504616187914376
0.951178041037306,-3.117942894277259,-0.37895952213838985,-4.3111561023030225,-19.103204927266706,17.620057853781763
0.9199986120945334,-3.3089749435499263,-0.42207108316142006,-4.134955523765205,-18.256559949202476,18.818173458294325
0.8869088626590341,-3.491540543041951,-0.4634206383990721,-3.946773789182262,-17.391772419465276,20.07980781649535
0.8519934572286146,-3.6654582672366036,-0.5028883762908947,-3.7459757110173086,-16.519558598651223,21.385976526012627
0.8153388745562486,-3.830653853223116,-0.5403481334010678,-3.5321159457571825,-15.652807307009295,22.718336903015146
0.7770323360240174,-3.987181926293209,-0.5756692928586397,-3.304932576727031,-14.806253244272408,24.05973933850573
0.7371605167610854,-4.135244458735933,-0.6087186186259099,-3.064335183341974,-13.996113098377258,25.39483144120146
0.6958080721737261,-4.275205589719706,-0.6393619704593296,-2.8103868689299594,-13.23970474120267,26.710682691541013
0.653056016276529,-4.407602637131732,-0.6674658391486292,-2.5432800420145494,-12.555072175477406,27.997394377723616
0.6089799899052116,-4.533153358886506,-0.6928986395687747,-2.2633060982373134,-11.960638815962685,29.248658007947448
0.5636484563163465,-4.652759747046133,-0.7155317005511479,-1.970819518157839,-11.474908162689541,30.462224271426813
0.5171208588458852,-4.767508828673028,-0.7352398957327263,-1.6661972754435708,-11.116222631470002,31.64024200958412
0.46944577055915493,-4.878671054987728,-0.751901868487162,-1.3497948553477295,-10.90257620571758,32.78941897132192
0.42065906000927766,-4.987696817044903,-0.7653998170406393,-1.0219006656345102,-10.851451174665938,33.920937133261006
0.3707820918388286,-5.096211328791563,-0.7756188236969844,-0.6826912943019001,-10.979607282863517,35.05001450284397
0.319819978550913,-5.206007401620198,-0.7824457366400034,-0.3321911492734604,-11.3026818823068,36.19492479305335
0.267759904534711,-5.319034220443266,-0.785767648132738,0.02975809865707313,-11.834342183079471,37.3751363126761
0.21456956233027832,-5.43737764227406,-0.7854700671461673,0.4035094617838341,-12.584531142811608,38.607962564287206
0.16019578590753772,-5.5632229537021765,-0.7814349725283289,0.7895890874267062,-13.556011334922834,39.902651519692085
0.10456355637051595,-5.698783067051405,-0.7735390816540619,1.188615602623627,-14.737856135727947,41.250068250975374
0.0475757257000019,-5.846161628408685,-0.7616529256278257,1.6011162851333807,-16.093680649782247,42.60493479926633
-0.010885890584084942,-6.007098434906507,-0.7456417627764919,2.027165633126044,-17.54126733363489,43.856025393328196
-0.07095687493315002,-6.182511108242856,-0.7253701064452314,2.465725887059326,-18.919326526502317,44.778507539376754
-0.13278198601557858,-6.371704373507879,-0.7007128475746381,2.9135109624530937,-19.93846064113147,44.96465574228975
-0.19649902975065736,-6.571088979919194,-0.6715777379501072,3.3631575198759913,-20.12268875914569,43.742545946063075
-0.2622099195498493,-6.772315867510651,-0.6379461627513473,3.800582979336622,-18.776751525521266,40.13343639863719
-0.32993307822495577,-6.9600833827658635,-0.5999403329579811,4.201917343322994,-15.07305349447702,32.98150059874753
-0.3995339120526144,-7.110813917710634,-0.5579211595247512,4.531732349310469,-8.404663418421986,21.463012817420555
-0.47064205122972075,-7.194860551894854,-0.5126038360316465,4.746362477484675,0.9692417512395728,6.009559670297266
-0.5425906567486692,-7.185168134382458,-0.4651402112567997,4.806458074187648,11.439515919515225,-11.003961103789331
-0.6144423380924938,-7.070772975187306,-0.41707563051492325,4.6964184631497545,20.55456081461879,-25.989228650733494
-0.6851500678443669,-6.865227367041118,-0.3701114458834257,4.4365261766424195,26.47433757551864,-36.23033630547948
-0.7538023415147781,-6.600483991285932,-0.3257461841170015,4.074222813587625,28.92120210491607,-41.260157587563484
-0.8198071814276374,-6.3112719702367714,-0.28500395598112527,3.66162123771199,28.780974753116585,-42.30820000709113
-0.8829199011300052,-6.023462222705605,-0.24838774360400537,3.2385392376410786,27.187449463500744,-40.994198137827574
-0.9431545233570613,-5.751587728070598,-0.2160023512275946,2.828597256262803,24.996610773669197,-38.564094372975276
-1.0006704006377674,-5.501621620333906,-0.18771637866496657,2.44295631253305,22.708717335454306,-35.76429672933386
-1.0556866168411063,-5.274534446979363,-0.1632868155396361,2.0853133452397112,20.567751847695824,-32.974739164479594
-1.1084319613109,-5.068856928502405,-0.14243368208723897,1.7555659535949153,18.670040498265696,-30.360326993083753
-1.159120530595924,-4.882156523519748,-0.12487802255128982,1.4519626836640778,17.037118579161852,-27.97434365822316
-1.2079420958311216,-4.711785337728129,-0.11035839571464905,1.1722192470818462,15.656554661151432,-25.817362352903654
-1.255059949208403,-4.555219791116615,-0.09863620324383059,0.9140456235528096,14.502747654365594,-23.86789965974627
-1.300612147119569,-4.410192314572959,-0.08949574700830248,0.6753666269553469,13.546809042438786,-22.09744014523344
-1.3447140702652987,-4.274724224148572,-0.08274208073874902,0.4543922255030125,12.760896460227228,-20.477371510547727
-1.3874613125067843,-4.1471152595462994,-0.07819815848371889,0.24961851039753524,12.119855845900775,-18.98189419395067
-1.4289324651022473,-4.025916701087292,-0.07570197337974353,0.05979956845802856,11.601619585231823,-17.58899300358024
-1.4691916321131202,-3.909900505234974,-0.07510397769516325,-0.11609036157777383,11.187071423107055,-16.28051494864624
-1.5082906371654698,-3.7980297910039034,-0.07626488131094099,-0.2788955110642362,10.85971718467796,-15.041865145765694
-1.5462709350755088,-3.689432619157124,-0.07905383642158335,-0.42931416252189314,10.605316421082179,-13.861565957779668
-1.5831652612670801,-3.583379454946302,-0.08334697804680229,-0.5679298220996898,10.411540547691734,-12.73079256650858
-1.6189990558165432,-3.4792640494693843,-0.08902627626779919,-0.6952377477647755,10.267680369626518,-11.642933851231408
-1.6537916963112371,-3.376587245773119,-0.09597865374544694,-0.8116670862770896,10.164406313890833,-10.593196806482073
-1.6875575687689683,-3.274943182634211,-0.10409532460821783,-0.9175990543419104,10.093576389241301,-9.578258728393552
-1.7203070005953105,-3.1740074187417977,-0.11327131515163694,-1.0133816416258459,10.048084015016228,-8.59596547327721
-1.7520470747827286,-3.0735265785916352,-0.1234051315678954,-1.099341296358618,10.021737503368728,-7.645071969860739
-1.782782340568645,-2.973309203557948,-0.1343985445314816,-1.1757920160572253,10.00916372230385,-6.725020730854846
-1.8125154326042243,-2.873217566334909,-0.14615646469205384,-1.2430422233657736,10.005729616881586,-5.8357543347937
-1.8412476082675735,-2.7731602701660933,-0.15858688692571157,-1.3013997667137107,10.007476492171454,-4.977558260734063
-1.8689792109692345,-2.6730855052443787,-0.17160088459284867,-1.3511753493210514,10.011063112119272,-4.150930856961207
-1.8957100660216784,-2.572974874123186,-0.18511263808605918,-1.3926846578906635,10.01371467956532,-3.3564775446953687
-1.9214398147629101,-2.472837727327533,-0.19903948466496582,-1.4262494333376172,10.013175613672571,-2.5948265943624382
-1.9461681920361855,-2.372705971190807,-0.213301978998342,-1.4521976992812415,10.00766473270665,-1.8665639847162745
-1.9698952517480937,-2.2726293238637405,-0.2278239559911544,-1.4708633391284043,9.995831993613713,-1.172184989025206
-1.992621544986731,-2.1726710039276034,-0.24253258938243843,-1.4825851890186563,9.976716351300357,-0.5120602498926577
-2.014348255026007,-2.0729038404146,-0.25735844127262497,-1.4877057915175829,9.949704598135376,0.11358577867655631
-2.035077293430153,-1.973406794433246,-0.2722354991878008,-1.4865699337308174,9.91449124657688,0.7046860167967522
-2.0548113613744854,-1.8742618819674772,-0.287101198525109,-1.4795230735628497,9.871039642945865,1.2613334263003146
-2.07355398019416,-1.7755514855380186,-0.3018964292607375,-1.4669097392998467,9.81954456486035,1.7837768607122353
-2.0913094950495403,-1.677356039889415,-0.316565526653736,-1.4490719706927244,9.760396573593512,2.2724116325671386
-2.1080830554484344,-1.5797520741534798,-0.3310562463606632,-1.4263478543670531,9.694148378512104,2.727766160830715
-2.1238805761899693,-1.4828105903683588,-0.34531972490433377,-1.399070192758746,9.621483434605123,3.1504858869373744
-2.138708682093653,-1.3865957560223077,-0.3593104268319212,-1.367565333889372,9.543186944725626,3.5413154763640877
-2.152574639653876,-1.2911638865750514,-0.3729860801708149,-1.3321521791257311,9.460119382462846,3.901080157867885
-2.1654862785196265,-1.196562692750423,-0.38630760196207226,-1.2931413775470524,9.373192594780532,4.230666897865065
-2.1774519054471306,-1.1028307668026176,-0.3992390157375428,-1.2508347085684017,9.283348489497017,4.531005965392262
-2.188480213115157,-1.0099972819076475,-0.41174736282322677,-1.205524648914479,9.191540263924765,4.803053315278496
-2.198580185934233,-0.9180818792683998,-0.42380260931237157,-1.157494115761694,9.098716089129395,5.0477741044211
-2.207761004726917,-0.8270947183771058,-0.4353775504699885,-1.107016374717483,9.005805130128982,5.266127558595341
-2.216031951910688,-0.7370366670758159,-0.44644771421716334,-1.0543550991315296,8.913705756157615,5.459053324713854
-2.223402318581446,-0.6478996095142397,-0.45699126520847866,-0.999764565884391,8.82327577664915,5.627459375165701
-2.2298813146765886,-0.5596668517477482,-0.4669889108673226,-0.943489972132734,8.735324527338388,5.772211475799271
-2.235477983194066,-0.4723136064743643,-0.4764238105886499,-0.8857678573747413,8.65060662610899,5.894124186073457
-2.24020111925881,-0.3858075402132744,-0.48528148916239733,-0.8268266155140067,8.569817219110416,5.99395332758715
-2.2440591946609425,-0.30010936802217025,-0.4935497553175374,-0.7668870822381352,8.493588543344837,6.072389834265963
-2.247060288341164,-0.21517348258872188,-0.5012186261399187,-0.7061631838954755,8.422487641520474,6.1300548826049965
-2.2492120231670514,-0.1309486061735171,-0.5082802579788736,-0.6448626350694255,8.357015077654552,6.1674961922518055
-2.2505215092287867,-0.047378455396971594,-0.5147288843295678,-0.5831876731469074,8.297604516930976,6.185185384652034
-2.2509952937827564,0.035597589772338165,-0.5205607610610369,-0.5213358193003871,8.24462305000195,6.183516289347257
-2.250639317885033,0.11804382027235767,-0.5257741192540407,-0.4595006564069145,8.198372159689608,6.1628040927837135
-2.2494588796823094,0.20002754186925376,-0.5303691258181099,-0.3978726154790774,8.159089246405886,6.123285232232282
-2.247458604263617,0.28161843433331263,-0.5343478519729007,-0.33663976315675453,8.12694964716935,6.065117946799427
-2.2446424199202837,0.36288793080500614,-0.5377142496044682,-0.2759885836887603,8.102069101541097,5.988383407774926
-2.241013540612234,0.4439086218204171,-0.5404741354413558,-0.21610474961101103,8.084506635886004,5.893087361040182
-2.2365744543940296,0.5247536881792771,-0.5426351829374659,-0.15717387600060923,8.074267854909353,5.779162224334134
-2.231326917512237,0.6054963667283707,-0.544206921697472,-0.09938225375726789,8.071308646291154,5.646469591274477
-2.2252719538449535,0.6862094531912822,-0.5452007442350446,-0.04291755784452312,8.075539320349037,5.494803101621975
-2.2184098593130406,0.7669648463947726,-0.5456299198134898,0.012030473171696629,8.086829221941148,5.323891642836021
-2.210740210849093,0.8478331386141841,-0.5455096150817729,0.06526938960005683,8.105011866229194,5.133402850985932
-2.202261879462951,0.928883257276476,-0.5448569211857723,0.11660341810991615,8.129890663427727,4.922946879033898
-2.1929730468901862,1.0101821639107533,-0.5436908870046732,0.16583288690025513,8.1612453102486,4.692080396857833
