th1 (rad),w1 (rad/s),th2 (rad),w2 (rad/s)
4.169504116776298,-2.830169760682768,5.857418676641527,-0.8114753507168733
4.1412024191694705,-2.7446894434021045,5.849303923134358,-0.8405609402713409
4.113755524735449,-2.6602429964435315,5.840898313731644,-0.8624278245571387
4.087153094771014,-2.5767760670859903,5.832274035486073,-0.8773921726476386
4.061385334100154,-2.4942503980612494,5.8235001137595965,-0.8857630704298721
4.036442830119542,-2.4126402044548736,5.814642483055298,-0.8878430802989168
4.0123164280749934,-2.331928988456664,5.805764052252309,-0.883928431331647
3.988997138190427,-2.252106751533975,5.796924767938993,-0.8743089417732344
3.9664760706750872,-2.1731675690590806,5.78818167852126,-0.8592677579534896
3.9447443949844962,-2.0951074962308747,5.7795890009417255,-0.8390809781863982
3.9237933200221873,-2.0179227768026937,5.771198191159861,-0.8140172166046101
3.9036140922541605,-1.941608328054555,5.763058018993815,-0.7843371500835595
3.884198008973615,-1.8661564769223387,5.75521464749298,-0.7502930812776849
3.8655364442043916,-1.7915559234289284,5.747711716680203,-0.7121285421923418
3.847620884970102,-1.7177909086976135,5.74059043125828,-0.6700779555201839
3.830442975883126,-1.6448405659590042,5.733889651703078,-0.6243663650505983
3.813994570223536,-1.5726784341429774,5.727645988052572,-0.5752092416853689
3.798267785882106,-1.5012721149015995,5.721893895635718,-0.522812367834014
3.78325506473309,-1.4305830552422307,5.716665771957378,-0.46737180009171575
3.768949234180668,-1.3605664393534607,5.711992053956461,-0.4090739079996062
3.7553435697871334,-1.2911711746635157,5.707901314876465,-0.3480954852360686
3.742431858040498,-1.2223399586607049,5.704420360024105,-0.2846039286813913
3.730208458453891,-1.1540094145066164,5.701574320737291,-0.21875748033837739
3.718668364308825,-1.0861102849642672,5.699386745933907,-0.150705526989893
3.707807261459182,-1.0185676756264173,5.697879690664008,-0.08058895265219419
3.697621584702918,-0.9513013398476441,5.697073801137486,-0.0085405392712367
3.6881085713044413,-0.8842259991442473,5.696988395744773,0.06531458835179689
3.6792663113129986,-0.8172516941180864,5.6976415416282915,0.1408584767812413
3.6710937943718176,-0.7502841621758994,5.699050126396104,0.2179798199958302
3.6635909527500585,-0.6832252394482562,5.7012299245960625,0.29657339923595494
3.656758700355576,-0.6159732853571581,5.704195658588422,0.3765394879217132
3.6505989675020047,-0.5484236292341933,5.707961053467639,0.4577832222573867
3.645114731209663,-0.48046903924800377,5.712538885690213,0.5402139375459342
3.640310040817183,-0.41200021465605413,5.717941025065673,0.6237444697306966
3.6361900386706223,-0.34290630304576597,5.72417846976298,0.7082904212797735
3.6327609756401644,-0.27307544476704243,5.731261373975777,0.7937693902490888
3.630030221192494,-0.20239534717335347,5.7391990678782685,0.8801001612198065
3.6280062677207607,-0.13075389157126932,5.748000069490467,0.9672018568206202
3.626698728805048,-0.058039775916055095,5.757672088058673,1.054993048731114
3.6261183310458875,0.01585680373063575,5.768222018545984,1.1433908274336029
3.626276899083194,0.09104343016143791,5.77965592682032,1.2323098305510027
3.6271873333848084,0.167624697970448,5.79197902512583,1.3216612303885007
3.628863580364513,0.24570140064960377,5.805195637429715,1.4113516822947665
3.631320594371009,0.3253696708123723,5.819309154252663,1.5012822366767795
3.6345742910791325,0.4067200735692741,5.834321976619431,1.5913472189365814
3.638641491814825,0.4898366543615817,5.850235448808797,1.6814330832346176
3.643539858358441,0.5747959440726851,5.867049779641143,1.7714172477971568
3.6492878177991677,0.6616659259659023,5.884763952119115,1.8611669214345155
3.6559044770588267,0.7505049709136564,5.90337562133346,1.9505379329655668
3.663409526767963,0.841360749439867,5.922881000663115,2.0393735772766752
3.671823134262362,0.9342691312299816,5.943274736435882,2.1275034936844217
3.681165825574662,1.0292530848856882,5.964549771372726,2.214742594006679
3.691458356423519,1.1263215927080015,5.986697197312792,2.3008900591442862
3.702721572350599,1.2254685970586068,6.009706097904235,2.3857284238924406
3.714976258321185,1.3266719962367337,6.03356338214316,2.469022769989991
3.7282429782835522,1.4298927086727489,6.058253609843059,2.5505200469369758
3.7425419053702798,1.535073824440277,6.083758810312429,2.629948538750317
3.7578926436146824,1.642139862505504,6.1100582956999325,2.707017492510917
3.7743140422397374,1.7509961506821838,6.137128470625042,2.7814169212724122
3.791824003746559,1.8615283429180076,6.164942639837766,2.852817589728685
3.8104392871757393,1.9736020853552574,6.193470815735052,2.9208711861579144
3.830175308029292,2.0870628387376025,6.222679527596632,2.9852106788854607
3.851045936416668,2.201735860441762,6.252531634385486,3.0454508502826583
3.8730632950210855,2.317426345087758,6.282986142888312,3.101188996726472
3.896237558471963,2.4339197188374806,6.313998032855577,3.1520057796897514
3.920576755660338,2.55098207974916,6.345518090652474,3.1974662120050854
3.9460865764578297,2.668360775613187,6.377492752772525,3.2371207651721816
3.9727701842139616,2.7857851122795316,6.409863960424247,3.2705065891421574
4.0006280353367565,2.9029671902883973,6.4425690263156685,3.297148845955556
4.0296577072396405,3.0196028762027574,6.475540514775224,3.3165621733219686
4.059853736001668,3.1353729277658187,6.508706136508444,3.328252313709153
4.091207465279326,3.2499443088954703,6.541988659645535,3.3317179682341047
4.1237069083682805,3.3629717511735073,6.575305839327877,3.3264529614290663
4.157336625880015,3.47409964193891,6.608570368942168,3.311948830812165
4.192077622299404,3.582964343763442,6.64168985725029,3.2876979812558087
4.227907265737039,3.6891970736810533,6.674566837062848,3.2531975646085822
4.264799236473849,3.7924274900402803,6.707098812708934,3.207954255175762
4.302723511374253,3.892288146555713,6.739178355260692,3.1514900860379065
4.3416463928398095,3.988419972837453,6.770693256121071,3.083349483903633
4.381530592568184,4.080478923951243,6.801526750960107,3.0031075855039826
4.422335381807696,4.168143904263411,6.831557826815147,2.910379831657798
4.46401682085033,4.251126009803448,6.860661625131725,2.804832713366369
4.506528080948365,4.329179047395761,6.888709952265389,2.6861953883628447
4.549819871422322,4.402111179613467,6.915571906149017,2.5542717020613668
4.593840983218457,4.469797417973085,6.94111462316963,2.408951945578403
4.638538957398188,4.532192553344316,6.9652041426254145,2.2502234839897133
4.683860882931631,4.589343987968049,6.987706377465312,2.078179215141081
4.729754322811312,4.64140383772821,7.008488169616722,1.8930227023345345
4.776168361188594,4.688639628676421,7.027418396640067,1.6950687925764016
4.823054757475358,4.731442939538805,7.044369084565831,1.4847386099172408
4.870369186870746,4.770335458088027,7.059216470665004,1.262548012729806
4.918072541451626,4.805972130270253,7.071841950792302,1.0290889181037315
4.9661322627543285,4.839141380298831,7.082132839973339,0.785003296926812
5.0145236765573165,4.870762747035858,7.089982872942608,0.5309500782441325
5.063231304027675,4.90188268461329,7.09529237372505,0.2675656024151933
5.112250130873808,4.933669675072399,7.097968029749202,-0.004581446586203575
5.161586827624532,4.967410161609964,7.09792221528334,-0.28503958905714094
5.211260929240632,5.004507107414339,7.095071819392769,-0.5735276592061265
5.261306000314776,5.046483209187126,7.089336542800708,-0.8699909373878724
5.311770832406648,5.0949909581309285,7.080636633426829,-1.1746603947938414
5.362720741987957,5.151831871441724,7.068890029478891,-1.4881159800977124
5.414239060702374,5.218987342409138,7.054008869677914,-1.8113558548702118
5.466428934126466,5.298663678112749,7.035895311129212,-2.1458744764532254
5.519415570907593,5.393353928042805,7.0144365663646795,-2.4937532042956088
5.573349110188021,5.505918772499285,6.989499034321724,-2.8577671869029295
5.628408297913014,5.639687299775131,6.960921362452694,-3.241510589042117
5.684805170910765,5.798574193528001,6.928506256562273,-3.6495362580702775
5.742790912846045,5.987198590822459,6.8920108939815705,-4.087489993771689
5.80266289875427,6.210962316652138,6.851135994043854,-4.5621806263935
5.864772521920791,6.475980302097375,6.805514187779918,-5.081435680263155
5.929532324941765,6.788607797801422,6.7546998309772865,-5.653384185357394
5.997418402919779,7.153985116798159,6.698165989123712,-6.284353845572066
6.068958254087761,7.572375709007619,6.635322450667991,-6.973665867886634
6.144682011177837,8.031079147212262,6.565585791989125,-7.702219304983127
6.224992802649959,8.489460756704764,6.488563598939294,-8.411432684629768
6.309887410217007,8.860578209900282,6.404449272092996,-8.977485988610779
6.3984931923160095,9.015661837809672,6.314674412206888,-9.217861302602042
6.488649810694106,8.858341167483609,6.222495799180868,-8.996128399837886
6.5772332223689425,8.430242017197942,6.132534515182488,-8.370764309667843
6.661535642540922,7.883849767417123,6.04882687208581,-7.557077260024596
6.740374140215093,7.348900822651932,5.973256099485564,-6.739236726400487
6.813863148441612,6.881125724606519,5.905863732221559,-5.997751541473807
6.882674405687678,6.489698920901832,5.845886216806821,-5.347543895795516
6.947571394896697,6.166664347309876,5.792410777848866,-4.779095703029975
7.009238038369795,5.900507071132109,5.744619820818566,-4.277540059742141
7.068243109081116,5.680616296169081,5.7018444202211445,-3.8290288130454933
7.125049272042808,5.4982761393785875,5.66355413209069,-3.422225040552966
7.180032033436594,5.3465738056329455,5.62933188168516,-3.0482583778886023
7.233497771492923,5.220054212501753,5.598849297906274,-2.7003067391248594
7.2856983136179405,5.114374983884237,5.571846230515026,-2.373164086056916
7.336842063456783,5.026024151993634,5.548114589654457,-2.0628845587639573
7.387102304976719,4.952104356717819,5.5274857440668175,-1.7665099043684007
7.436623348543897,4.890172516461686,5.509820645023133,-1.4818652762910312
7.485525073708514,4.838122588319978,5.495001992260223,-1.2074058270859205
7.533906299591714,4.794101165837147,5.482927933989363,-0.9420991132297232
7.581847311250086,4.756448158237511,5.473506942857066,-0.685331779598066
7.629411792832461,4.723656808699193,5.466653625061085,-0.43683208751855196
7.676648360919453,4.694348721860062,5.462285304185899,-0.19660239153912118
7.723591848138053,4.667260476001234,5.460319280270508,0.03514227580382484
7.770264452898065,4.64123893445621,5.460670703028547,0.25803168734060444
7.816676842242627,4.615242682534904,5.463251019901953,0.4715948134008194
7.862829269067976,4.58834722186712,5.46796696803596,0.6753109390796496
7.908712741286648,4.559751750226291,5.474720077426757,0.8686566176499018
7.954310258788911,4.528785607972875,5.4834066436032565,1.0511471952518123
7.99959811486864,4.494912814302216,5.493918115555775,1.222371588074596
8.044547243011662,4.457733545129201,5.506141831436521,1.382019222977673
8.089124578462954,4.416981888426674,5.519962023666298,1.5298984949930612
8.133294397347221,4.37251970272756,5.535261008616229,1.6659466559635612
8.177019594374496,4.324326846303397,5.551920475175865,1.7902316261045361
8.22026286283753,4.272488392666043,5.56982279143691,1.9029467240436375
8.262987746764189,4.2171796745353145,5.588852258677346,2.004399676188179
8.305159543509543,4.158650096530316,5.6088962554392285,2.0949974615915194
8.346746044474846,4.0972066391911435,5.6298462300551435,2.175228574841324
8.387718110866757,4.03319786975271,5.651598515803557,2.2456441732370496
8.428050089564284,3.9669991109111873,5.674054957535928,2.3068393568885597
8.467720080673395,3.8989992297263436,5.697123351104813,2.3594355568158374
8.506710072970659,3.82958932156544,5.720717706672971,2.40406471794885
8.545005966186313,3.7591533976163634,5.744758353852459,2.4413556931152147
8.582597500162477,3.688061049849322,5.769171910783611,2.4719230315060687
8.61947811066097,3.6166619682339407,5.793891141098672,2.4963581610377608
8.655644730343308,3.5452821201808864,5.818854722709049,2.5152228303415116
8.691097551545116,3.474221367009028,5.844006951012464,2.5290445888589432
8.725839765215207,3.403752280655683,5.869297396901053,2.5383140354311617
8.759877288021764,3.3341199295116786,5.894680537255365,2.543483548287905
8.793218487316881,3.265542419394622,5.920115372738244,2.5449672140444473
8.825873911510827,3.198211999467651,5.9455650448786885,2.5431416927458104
8.857856031505504,3.1322965696675253,5.970996461806147,2.5383477840766244
8.88917899720218,3.067941453279323,5.996379939646913,2.5308924919418687
8.919858411734973,3.0052713239427358,6.021688864566332,2.5210514174098897
8.9499111249744,2.944392199571482,6.046899378740431,2.509071341305605
8.979355046970115,2.885393435919358,6.071990092153487,2.495172886240478
9.00820898132931,2.828349669710767,6.096941821015892,2.4795531729110136
9.036492478026418,2.7733226754863334,6.121737352745002,2.462388406889276
9.06422570478128,2.7203631118509968,6.1463612368138945,2.443836349965079
9.091429335899791,2.6695121419767354,6.170799600313545,2.4240386446556763
9.118124457319558,2.620802920348614,6.195039986760102,2.4031229721419436
9.144332486523044,2.574261943184445,6.219071216481521,2.3812050330195045
9.170075105954888,2.529910264010127,6.242883266811716,2.3583903472624446
9.19537420859499,2.4877645788031435,6.26646717028434,2.3347758750513554
9.22025185438302,2.447838187155069,6.289814929034853,2.310451463941565
9.244730236254572,2.4101418372414725,6.312919443674269,2.2855011305223973
9.268831654626986,2.3746844631807456,6.335774454979493,2.2600041864808795
9.292578499258793,2.3414738237380455,6.358374496844302,2.2340362200293407
9.315993237496174,2.310517051386499,6.380714859044596,2.2076699441449965
9.33909840801004,2.281821120553288,6.4027915584860455,2.1809759231286456
9.361916619215572,2.255393243513743,6.424601317717332,2.154023188720039
9.38447055165071,2.231241201898431,6.446141549604532,2.126879756488426
9.406782963669693,2.2093736211816295,6.467410347169416,2.0996130525093752
9.42887669988151,2.189800194850836,6.48840647769451,2.072290259490026
9.450774701830019,2.1725318642357077,6.50912938028941,2.0449785905497038
9.472500020472376,2.157580959215321,6.529579166194908,2.017745497827708
9.49407583006453,2.1449613042351996,6.549756621173184,1.99065882199414
9.515525443106881,2.1346882932573643,6.569663209393125,1.9637868875965672
9.536872326039456,2.126778936442415,6.589301078269091,1.9371985479943539
9.55814011540388,2.1212518805253753,6.608673063749034,1.9109631824195505
9.579352634209133,2.118127403998081,6.62778269557323,1.8851506464616445
9.600533908249114,2.1174273873507907,6.646634202037847,1.859831176004675
9.621708182122621,2.1191752577540295,6.665232513797894,1.8350752433493642
9.64289993470016,2.123395906677783,6.683583266231388,1.8109533629295425
9.66413389376694,2.1301155780482115,6.701692799860683,1.787535842680775
9.685435049547422,2.1393617236316764,6.71956815828749,1.7648924757400517
9.70682866678374,2.1511628214125413,6.737217083044891,1.7430921657506662
9.728340294997864,2.1655481517968895,6.754648004702398,1.722202477620697
9.749995776515833,2.182547525533164,6.771870029478605,1.702289104145551
9.771821251771165,2.202190956300076,6.788892920520061,1.683415237469128
9.793843161334166,2.224508269983357,6.805727072894752,1.6656408329459986
9.816088244034,2.249528641762865,6.822383481224212,1.649021751609773
9.83858353045163,2.2772800512837805,6.83887369874031,1.6336087661938867
9.861356330964467,2.3077886454223417,6.8552097864022485,1.6194464145486254
9.88443421741869,2.3410779975201303,6.871404250547735,1.606571683428879
9.907844997393891,2.3771682515064994,6.887469967382024,1.595012505089368
9.931616679908956,2.4160751391261166,6.903420092432917,1.5847860490422596
9.955777431300216,2.457808858625201,6.91926795292334,1.5758967918606983
9.980355519886468,2.502372803833396,6.935026920841947,1.5683343492395718
10.005379247924802,2.5497621337388243,6.950710264334343,1.562071056878957
10.03087686926219,2.599962174547942,6.966330974903133,1.557059290404934
10.05687649100767,2.6529466490335456,6.981901567807182,1.5532285197994766
10.083405957498005,2.7086757319178614,6.997433853005177,1.5504821010325722
10.110492714817184,2.767093935357571,7.012938674015502,1.5486938171731082
10.138163654170759,2.828127835567643,7.028425612187234,1.547704193630973
10.166444932526435,2.89168366053949,7.043902654123544,1.5473166278000474
10.19536176913183,2.9576447699906705,7.059375820401544,1.5472933926726018
10.224938216831736,3.025869072442552,7.07484875432827,1.547351597377549
10.255196907556162,3.0961864409477933,7.090322270302046,1.5471592153537448
10.28615877196564,3.168396208704273,7.105793862455584,1.5463313231178366
10.317842734052682,3.2422648486949566,7.121257175686762,1.5444267291414164
10.350265382539632,3.31752396747465,7.136701442978176,1.540945212586399
10.383440622214378,3.393868771852619,7.15211089510404,1.5353256342938213
10.417379309932905,3.4709571975903533,7.167464151446978,1.5269452253368703
10.452088881908809,3.548409919785041,7.182733603700347,1.515120398341252
10.48757298110666,3.625811492910952,7.19788480768376,1.4991094589155203
10.523831096035769,3.702712891026262,7.212875902272915,1.4781176125005728
10.560858224946031,3.77863573064164,7.227657078397921,1.4513046574912363
10.598644582252447,3.8530784540809826,7.242170124972833,1.417795718621015
10.637175366793258,3.9255247225633068,7.256348082159043,1.3766952941184816
10.67643061401889,3.9954542077576245,7.270115035100228,1.327104754692044
10.716385156096466,4.062355870627958,7.283386082647149,1.2681432323847168
10.757008714802746,4.1257436714107065,7.296067514970996,1.1989715677035402
10.798266151516852,4.185174463242129,7.308057230648032,1.1188186472326622
10.840117896149273,4.240267589965258,7.319245417120358,1.02700907633395
10.882520572048925,4.290725451355168,7.3295155078836975,0.9229907232158476
10.925427826562476,4.336354043256902,7.338745415115856,0.8063602894193226
10.968791366995045,4.37708226408927,7.346809018010049,0.6768847705673383
11.012562189635938,4.41297864901,7.353577865715723,0.5345165410420796
11.056691976126038,4.444264195893514,7.358923031126143,0.3793998933718963
11.101134618084973,4.471320120742961,7.362717030059862,0.2118672318356436
11.145847819292403,4.494689740320676,7.364835702378219,0.032423764244268655
11.19079471669561,4.515074211069199,7.3651599400206615,-0.1582795935960055
11.235945458806302,4.533322504459383,7.363577144084702,-0.3594843956921473
11.281278683850896,4.550416687749644,7.35998230012778,-0.5703722604896005
11.326782850728392,4.567454208271817,7.354278577522884,-0.7901194534662703
11.37245739281111,4.585629357976145,7.346377382988221,-1.0179556100119191
11.418313686390873,4.606216362089018,7.336197826888102,-1.2532237705870093
11.464375850011763,4.630556576941513,7.323665589182232,-1.495439377712651
11.510681415781178,4.660052134378049,7.308711195405105,-1.7443467642757393
11.557281937124959,4.696168114005852,7.291267727762348,-1.9999728351099963
11.604243618265016,4.740445065457057,7.271267999411248,-2.2626789786426516
11.651648068919586,4.794523549490118,7.248641209624822,-2.5332136273330277
11.699593304414487,4.860182410058902,7.2233090733514915,-2.8127692382945506
11.748195128515075,4.939392783515591,7.195181380968546,-3.1030487525978465
11.797589056350231,5.034390388138934,7.164150893442568,-3.4063477829715816
11.84793296023162,5.147769293667374,7.130087415612852,-3.725659756066418
11.899410653168294,5.282600770936784,7.092830818052188,-4.06481157127829
11.952236660877661,5.442579996882522,7.0521827023394055,-4.428635796609771
12.006662460846487,5.632198938583532,7.007896344373307,-4.823178765565475
12.062984450232323,5.856929791915356,6.9596645567176525,-5.255924075832425
12.121553748151475,6.123365665244732,6.9071053159593285,-5.735958119077813
12.182787404803923,6.439169607323591,6.84974573476855,-6.27387070235522
12.247179100877158,6.812449901447171,6.787007027744998,-6.880858103347235
12.31530359989163,7.249637076931942,6.718198446711526,-7.565737404416779
