th1 (rad),w1 (rad/s),th2 (rad),w2 (rad/s),a1 (rad/s^2),a2 (rad/s^2)
3.813866712298065,-2.783776362099996,5.616250591823555,-1.9784225797174344,8.050090596122624,0.36724239611812143
3.786028948677065,-2.7032754561387695,5.59646636602638,-1.9747501557562532,7.898821870738364,0.9891810432720943
3.758996194115677,-2.624287237431386,5.576718864468818,-1.9648583453235322,7.737679040658199,1.5749572619282328
3.732753321741363,-2.546910447024804,5.557070281015583,-1.94910877270425,7.567125139013612,2.1254338977505296
3.707284217271115,-2.4712391956346678,5.53757919328854,-1.9278544337267447,7.3878048648156485,2.641617844012494
3.6825718253147683,-2.3973611469865115,5.518300648951272,-1.9014382552866198,7.200507406833991,3.1246408723093926
3.658598213844903,-2.3253560729181717,5.499286266398406,-1.8701918465635259,7.0061328857625655,3.5757390019543362
3.6353446531157214,-2.255294744060546,5.480584347932771,-1.8344344565439825,6.805662424934397,3.9962314460982724
3.6127917056751158,-2.187238119811202,5.462240003367331,-1.7944721420829999,6.600131795243909,4.387499952924001
3.590919324477004,-2.121236801858763,5.444295281946501,-1.7505971425537599,6.390608521368389,4.7509691646467
3.569706956458416,-2.057330716645079,5.426789310520964,-1.7030874509072929,6.178172286590366,5.088088446342019
3.5491336492919654,-1.9955489937791755,5.409758436011891,-1.6522065664438728,5.9638984338690655,5.400315490622063
3.529178159354174,-1.9359100094404849,5.393236370347452,-1.5982034115376522,5.748844331627907,5.689101881884299
3.509819059259769,-1.8784215661242059,5.377254336232076,-1.5413123927188093,5.534038353628606,5.955880703671656
3.491034843598527,-1.8230811825879198,5.3618412123048875,-1.4817535856820927,5.320471212420282,6.202056192615496
3.4728040317726476,-1.769876470463717,5.3470236764480665,-1.4197330237559378,5.109089384022364,6.428995380277281
3.4551052670680105,-1.7187855766234934,5.332826346210507,-1.355443069953165,4.900790366416641,6.638021617667044
3.4379174113017754,-1.669777672959327,5.319271915510976,-1.2890628537764945,4.696419524743229,6.830409844029787
3.421219634572182,-1.6228134777118948,5.306381286973211,-1.2207587553361967,4.496768290515793,7.007383439488334
3.404991499795063,-1.5778457948067368,5.29417369941985,-1.1506849209413135,4.302573499483512,7.170112488303552
3.3892130418469955,-1.5348200598119017,5.282666850210437,-1.078983796058278,4.114517671887766,7.319713274038636
3.3738648412488765,-1.493674883093024,5.271877012249854,-1.0057866633178916,3.933230058848064,7.457248828177503
3.3589280924179463,-1.4543425825045433,5.261819145616675,-0.9312141750361165,3.7592882986695386,7.583730358340167
3.3443846665929007,-1.416749699517848,5.252507003866314,-0.8553768714527148,3.5932205463418945,7.700119389954992
3.3302171695977223,-1.3808174940544289,5.243953235151787,-0.7783756775531648,3.4355079578791976,7.807330465072534
3.316408994657178,-1.346462414475637,5.236169478376255,-0.7003023729024395,3.2865874280339478,7.906234253092334
3.3029443705124217,-1.3135965401952976,5.229166454647231,-0.6212400303715161,3.1468544950147885,7.9976609398278455
3.2898084051104686,-1.2821279952451496,5.222954054343516,-0.5412634209732377,3.016666338939409,8.082403772988135
3.276987125158017,-1.2519613318557556,5.2175414201337835,-0.4604393832433563,2.8963448117286603,8.16122265334689
3.2644675118394595,-1.222997883738469,5.21293702630135,-0.3788271567098874,2.786179444913732,8.234847671222376
3.252237533002075,-1.1951360892893317,5.209148754734251,-0.29647867999766364,2.686430388343933,8.3039824970925
3.240286172109182,-1.1682717854058924,5.206183967934274,-0.21343885502673865,2.597331237030427,8.36930754294877
3.228603454255123,-1.142298473035588,5.204049579384007,-0.12974577959725095,2.5190917053345796,8.431482817111158
3.217180469524767,-1.1171075559822423,5.202752121588034,-0.04543095142613937,2.451900107401425,8.491150399456304
3.2060093939649446,-1.0925885549082281,5.202297812073772,0.03948055256842367,2.3959256001312736,8.548936466129192
3.195083508415862,-1.0686292989069155,5.202692617599457,0.1249699172297156,2.351320140038431,8.60545279258018
3.184397215426793,-1.0451160975065312,5.203942316771754,0.21102444515551738,2.318220098002031,8.66129766094602
3.1739460544517275,-1.021933896526511,5.206052561223309,0.2976374217649776,2.2967474660756473,8.717056092107125
3.1637267154864626,-0.9989664218657546,5.209028935440959,0.3848079826860489,2.2870105780622167,8.773299313914078
3.153737051267805,-0.9760963160851324,5.21287701526782,0.47254097582518967,2.2891042503201704,8.830583364778393
3.1439760881069536,-0.9532052735819306,5.2176024250260715,0.5608468094729736,2.303109231062486,8.889446715751976
3.1344440353711343,-0.9301741812713058,5.223210893120801,0.6497412766304934,2.3290908250482363,8.950406774073492
3.125142293558421,-0.9068832730208234,5.229708305887106,0.7392453443712284,2.3670965358657043,9.013955106672793
3.1160734608282126,-0.8832123076621663,5.2371007593308185,0.8293848954379562,2.4171525398363722,9.080551193115234
3.107241337751591,-0.8590407822638025,5.245394608285198,0.9201904073691086,2.479258773906166,9.150614483900915
3.0986509299289526,-0.8342481945247409,5.25459651235889,1.0116965522081178,2.553382384898439,9.224514502116577
3.090308447983705,-0.8087143706757565,5.264713477880971,1.1039416972292835,2.639449249649663,9.302558684748236
3.0822213042769473,-0.7823198781792599,5.275752894853263,1.1969672840767658,2.737333235764318,9.384977615634643
3.074398105495155,-0.7549465458216167,5.287722567694031,1.2908170602331122,2.8468428326205397,9.471907257011193
3.066848640036939,-0.7264781174954112,5.300630738296362,1.385536132803224,2.96770474441085,9.56336774392823
3.0595838588619846,-0.6968010700513028,5.314486099624394,1.4811698102425064,3.099544005333461,9.659238270157164
3.0526158481614716,-0.6658056299979681,5.329297797726818,1.577762192944078,3.241860157295552,9.759227572258576
3.045957791861492,-0.6333870284250126,5.3450754196562595,1.6753544686666637,3.3939990307858574,9.862839519796168
3.039623921577242,-0.599447038117154,5.361828964342926,1.7739828638646253,3.555119701136181,9.969333357328647
3.03362945119607,-0.5638958411057923,5.379568792981573,1.873676197437912,3.724156270276274,10.077678235343642
3.0279904927850123,-0.5266542784030295,5.398305554955952,1.9744529797913484,3.899774267947185,10.186501835603432
3.022723950000982,-0.4876565357235576,5.418050084753865,2.0763179981473825,4.0803217010503605,10.294033170424314
3.0178473846437464,-0.446853318713054,5.438813264735339,2.1792583298516255,4.263775135718207,10.398040050576585
3.0133788514566158,-0.40421556735587194,5.460605848033856,2.2832387303573913,4.44768170910933,10.49576231397207
3.009336695783057,-0.35973875026477864,5.48343823533743,2.3881963534971122,4.629098675312338,10.5838427320437
3.0057393082804094,-0.31344776351165526,5.507320198872401,2.4940347808175494,4.804533029748556,10.658258606842043
3.002604830645293,-0.2654024332141697,5.532260546680576,2.60061736688597,4.969884958908353,10.714258474463636
2.999950806313151,-0.21570358362508613,5.558266720349436,2.707759951630606,5.120400337751728,10.7463100522577
2.9977937704769,-0.16449958024756883,5.585344319865742,2.815223052153183,5.250639220337348,10.74806757915431
2.9961487746744244,-0.11199318804419535,5.613496550387274,2.922703727944726,5.354469156294551,10.712368902580659
2.9950288427939826,-0.05844849648124984,5.642723587666722,3.029827416970533,5.425094046218569,10.631274862348931
2.99444435782917,-0.004197556019064151,5.673021861836427,3.136140165594022,5.455130836244033,10.496165375198677
2.994402382268979,0.050353752343376176,5.7043832634923675,3.241101819346009,5.4367472183907966,10.297907630678326
2.994905919792413,0.10472122452728413,5.736794281685827,3.344080895652792,5.361873073787965,10.027111292567566
2.9959531320376858,0.15833995526516378,5.770235090642355,3.4443520085784676,5.222495978014125,9.674482743254746
2.9975365315903373,0.21056491504530503,5.80467861072814,3.541096836011015,5.011045960388512,9.231284359846262
2.9996421807407905,0.26067537464919016,5.84008957908825,3.633409679609478,4.720866290860332,8.68989488341554
3.0022489344872825,0.3078840375577935,5.876423675884345,3.7203086284436333,4.346755172219147,8.044452915967462
3.0053277748628604,0.35135158927998494,5.913626762168781,3.800753157603308,3.8855483641135913,7.2915480723668695
3.0088412907556603,0.39020707292112083,5.951634293744815,3.8736686383269765,3.3366964917979143,6.43090514187817
3.0127433614848713,0.42357403783909997,5.990370980128084,3.9379776897457583,2.7027757963044587,5.4659889707013365
3.0169791018632623,0.45060179580214454,6.029750757025542,3.9926375794527718,1.9898610736821933,4.4044460472333595
3.0214851198212838,0.47050040653896646,6.069677132820069,4.036682039925106,1.2076886362687869,3.2582977976941945
3.0261901238866735,0.48257729290165435,6.1100439532193205,4.0692650179020475,0.3695487228771935,2.043814384563842
3.03101589681569,0.4862727801304263,6.150736603398341,4.0897031617476856,-0.5081277608301464,0.7810278894828784
3.0358786246169944,0.48119150252212484,6.191633635015818,4.097513440642515,-1.4064858853098219,-0.5071121609749967
3.0406905396422155,0.4671266436690266,6.232608769422243,4.092442319032765,-2.3052206918634313,-1.7958865742048458
3.0453618060789056,0.4440744367503923,6.273533192612571,4.074483453290716,-3.1837209443013643,-3.060154565496144
3.0498025504464095,0.41223722730737866,6.314278027145478,4.043881907635755,-4.0222650337642065,-4.2757641768986305
3.0539249227194833,0.3720145769697366,6.3547168462218355,4.0011242658667685,-4.803140431378701,-5.420874509886652
3.0576450684891805,0.3239831726559496,6.394728088880504,3.946915520767902,-5.511569164436616,-6.477052470104145
3.06088490021574,0.2688674810115835,6.434197244088183,3.8821449960668604,-6.1363525360934,-7.430042779032057
3.0635735750258557,0.20750395565064947,6.473018694048851,3.80784456827654,-6.670191539292857,-8.270160409001262
3.0656486145823623,0.14080204025772092,6.511097139731616,3.725142964186527,-7.109685492068583,-8.992308092071246
3.0670566349849393,0.06970518533703508,6.5483485693734815,3.6352198832658145,-7.455051137686666,-9.595667499466487
3.0677536868383095,-0.0048453260398315795,6.584700768206139,3.5392632082711497,-7.709631426324788,-10.08314379587902
3.0677052335779114,-0.08194164030307946,6.620093400288851,3.4384317703123597,-7.87927499215103,-10.460656846910036
3.0668858171748807,-0.16073439022458977,6.654477717991974,3.3338252018432595,-7.971665222061526,-10.736369945536456
3.065278473272635,-0.24045104244520504,6.687815970010407,3.226461502387895,-7.995665515065128,-10.919932871913677
3.062873962848183,-0.3204076975958563,6.720080585034285,3.1172621736687582,-7.960729523741375,-11.021795778556282
3.0596698858722244,-0.40001499283327,6.751253206770973,3.0070442158831954,-7.876406151156498,-11.052628706599458
3.0556697359438916,-0.47877905434483503,6.7813236489298045,2.8965179288172007,-7.751951999968681,-11.022862063545332
3.050881945400443,-0.5562985743445219,6.810288828217977,2.7862893081817472,-7.596050606398196,-10.942348126022164
3.045318959656998,-0.6322590804085039,6.838151721299794,2.6768658269215257,-7.416628694219642,-10.820133190971989
3.0389963688529127,-0.7064253673507003,6.864920379569009,2.568664495011806,-7.220754548998841,-10.664324038269449
3.031932115179406,-0.7786329128406887,6.890607024519126,2.462021254629111,-7.014601666971131,-10.482030015036639
3.024145786050999,-0.8487789295104,6.915227237065418,2.3572009544787447,-6.80346115056996,-10.279362266580227
3.0156579967558947,-0.9168135410160996,6.9387992466102055,2.2544073318129425,-6.59178803543603,-10.061473446451362
3.0064898613457336,-0.9827314213704599,6.961343319928335,2.1537925973484287,-6.383269138826399,-9.832623849497342
2.996662547132029,-1.046564112758724,6.982881245901819,2.0554663588534554,-6.180902611014318,-9.596262758154307
2.9861969060044418,-1.1083731388688671,7.003435909490354,1.9595037312719124,-5.987081826761184,-9.355116508850069
2.9751131746157533,-1.1682439571364789,7.023030946803073,1.8659525661834118,-5.803678397265233,-9.111277171171217
2.9634307350443887,-1.2262807411091312,7.041690472464907,1.7748397944716996,-5.632120843577224,-8.866287704079872
2.9511679276332976,-1.2826019495449035,7.0594388704096245,1.686176917430901,-5.473466847849966,-8.621221003991241
2.938341908137849,-1.3373366180234032,7.076300639583933,1.5999647073909884,-5.328468025202024,-8.376751425769665
2.9249685419576146,-1.3906212982754234,7.092300286657843,1.5161971931332918,-5.197626890505119,-8.133218197071912
2.9110623289748605,-1.4425975671804745,7.107462258589176,1.4348650111625727,-5.081246189467415,-7.890680721897908
2.8966363533030557,-1.4934100290751486,7.121810908700802,1.3559582039435936,-4.979471076918363,-7.648966140387967
2.881702253012304,-1.5432047398443323,7.135370490740238,1.2794685425397139,-4.8923248048187205,-7.407709730883618
2.8662702056138607,-1.5921279878925194,7.148165176165635,1.2053914452308776,-4.819738667218062,-7.16638884990673
2.8503489257349357,-1.6403253745647,7.160219090617943,1.1337275567318104,-4.76157696973899,-6.92435113978533
2.8339456719892886,-1.68794114426209,7.1715563661852615,1.064484045333957,-4.717657770297401,-6.680837717823892
2.817066260546668,-1.735117721965064,7.182201206638601,0.9976756681557181,-4.687770092574453,-6.435002014033664
2.7997150833270172,-1.7819954228908086,7.192177963320159,0.9333256480153814,-4.671688256201418,-6.18592485990258
2.781895129098109,-1.8287123054528227,7.201511219800312,0.8714663994163556,-4.669183905880087,-5.932626357675532
2.763608006043581,-1.8754041445116236,7.210225883794476,0.8121401358396003,-4.680036261103323,-5.674074984146024
2.7448539645984646,-1.9222045071226568,7.2183472851528725,0.75539938599814,-4.704041052102439,-5.409194308731143
2.7256319195272383,-1.9692449176436813,7.225901279012854,0.7013074429108286,-4.741018558052609,-5.136867634662851
2.7059394703508013,-2.0166551032242075,7.232914353441962,0.6499387665642,-4.790821121383529,-4.855940805396365
2.685772919318559,-2.064563314438043,7.239413741107604,0.6013793585102364,-4.853340477616651,-4.565223355964398
2.6651272861741786,-2.113096719214209,7.245427534692706,0.5557271249505924,-4.928515213451243,-4.26348813067909
2.6439963189820364,-2.1623818713487215,7.250984805942212,0.5130922436438015,-5.016338646594348,-3.949469433722116
2.622372500268549,-2.212545257814665,7.25611572837865,0.47359754930658027,-5.116867408700492,-3.6218597271037822
2.6002470476904027,-2.26371393190167,7.260851703871716,0.43737895203554245,-5.230231007303961,-3.279304840609755
2.577609908371386,-2.31601624197471,7.265225493392071,0.4045859036294449,-5.356642643260413,-2.920397610310253
2.5544497459516387,-2.3695826684073142,7.269271352428365,0.37538192752634236,-5.4964115662979465,-2.5436698160169167
2.5307539192675654,-2.424546784070294,7.273025171703629,0.34994522936617317,-5.6499572618796465,-2.147582244462509
2.5065084514268623,-2.4810463566890903,7.2765246239972905,0.3284694069215481,-5.81782577627774,-1.7305126657616807
2.481697987859971,-2.5392246144518675,7.279809318066506,0.3111642802639313,-6.00070850126754,-1.2907414794032575
2.4563057417154526,-2.599231699464543,7.282920960869145,0.2982568654698987,-6.199463751411314,-0.8264347687953032
2.4303134247208074,-2.6612263369786557,7.285903529523844,0.2899925177819457,-6.415141469325654,-0.33562451054061143
2.403701161351021,-2.725377751671912,7.288803454701664,0.28663627267653957,-6.649011377440087,0.18381426706578913
2.376447383834302,-2.791867865446313,7.291669817428429,0.2884744153471975,-6.9025948419563585,0.7341894654611885
2.348528705179839,-2.860893813865877,7.294554561581901,0.29581631000180936,-7.177700599060474,1.3180208991161613
2.31991976704118,-2.9326708198564817,7.297512724681919,0.308996518992971,-7.47646427140183,1.9380717368926097
2.290593058842615,-3.0074354625705,7.300602689871849,0.3283772363618971,-7.80139120439855,2.597381166145156
2.26051870421691,-3.0854493746144858,7.303886462235468,0.35435104802334866,-8.155401464643335,3.2992958977124816
2.229664210470765,-3.1670033892609193,7.307429972715702,0.38734400700047344,-8.541874686506855,4.047496260734028
2.1979941765781557,-3.252422136125988,7.311303412785707,0.42781896960781374,-8.9646905400762,4.846009621361861
2.1654699552168957,-3.34206904152675,7.315581602481784,0.47627906582143237,-9.428257464623938,5.699199030951019
2.132049264801628,-3.4363516161729892,7.320344393139998,0.5332710561309426,-9.937517237141337,6.611707315020949
2.0976857486398983,-3.5357267885444026,7.325677103701308,0.5993881292811521,-10.497904772652966,7.588324605717481
2.0623284807544544,-3.640705836270932,7.331670984994119,0.6752713753383269,-11.115229481352909,8.633728041155125
2.025921422391745,-3.7518581310844614,7.338423698747502,0.7616086557498782,-11.795423773891661,9.752012111382951
1.9884028410809005,-3.869812368823378,7.346039785305001,0.8591287768637077,-12.544071800618216,10.945881180056555
1.9497047173926667,-3.9952530868295604,7.354631073073638,0.9685875886642732,-13.365581455165808,12.215304066457911
1.9097521865243712,-4.128908901381219,7.364316948960281,1.0907406293288524,-14.261787810308542,13.555324384146836
1.868463097510559,-4.271526779484304,7.375224355253569,1.2262938731703208,-15.229669687893148,14.952570834906178
1.825747829715716,-4.423823476363236,7.387487293985272,1.3758195815193826,-16.257723399467597,16.379821057662742
1.7815095949520836,-4.586400710357911,7.401245489800465,1.53961779209601,-17.320394745039142,17.787780580495404
1.7356455878485044,-4.759604657808302,7.416641667721425,1.7174955979009638,-18.36991649303129,19.093183553978974
1.6880495412704213,-4.943303822738615,7.433816623700435,1.9084274334407536,-19.325183338001214,20.162765361465464
1.638616503043035,-5.136555656118627,7.452900898034843,2.1100550870554082,-20.05846203602566,20.794376875638882
1.5872509464818487,-5.337140276478884,7.474001448905397,2.317998855811797,-20.38371857867157,20.700841873710623
1.5338795437170598,-5.5409774622656,7.497181437463515,2.5250072745489036,-20.05614763756546,19.51051291293949
1.4784697690944038,-5.741538938641255,7.522431510209004,2.7201124036782987,-18.80039369444441,16.809786432412285
1.421054379707991,-5.929542875585699,7.549632634245787,2.8882102680024215,-16.388209039761954,12.257391648952956
1.3617589509521342,-6.093424965983318,7.578514736925811,3.010784184491951,-12.768340377504725,5.774357740257689
1.300824701292301,-6.221108369758365,7.6086225787707304,3.068527761894528,-8.197579683420905,-2.263859015015493
1.2386136175947176,-6.3030841665925745,7.639307856389676,3.045889171744373,-3.26136288291996,-10.993938903630871
1.1755827759287918,-6.335697795421774,7.6697667481071194,2.935949782708064,1.3002266404555498,-19.31258345422254
1.112225797974574,-6.322695529017219,7.6991262459342,2.7428239481658387,4.885903834399964,-26.300677780442143
1.048998842684402,-6.27383649067322,7.726554485415858,2.479817170361417,7.239369484767995,-31.52777462575093
0.9862604777776697,-6.20144279582554,7.751352657119472,2.164539424103908,8.444185101374355,-35.0550039782043
0.9242460498194143,-6.117000944811796,7.772998051360512,1.813989384321865,8.775558136637175,-37.22888866467892
0.8630760403712963,-6.029245363445424,7.79113794520373,1.4417004976750758,8.547322208892368,-38.462512250166824
0.802783586736842,-5.943772141356501,7.805554950180481,1.0570753751734077,8.02540796402982,-39.1082757680612
0.7433458653232771,-5.863518061716203,7.816125703932215,0.6659926174927957,7.403242274244201,-39.418579309169786
0.6847106847061151,-5.789485638973761,7.822785630107143,0.2718068244010978,6.809443485576455,-39.55367065494121
0.6268158283163775,-5.721391204117997,7.825503698351154,-0.12372988214831426,6.325020800161803,-39.60446828212067
0.5696019162751975,-5.658140996116379,7.824266399529671,-0.5197745649695209,5.999392605176171,-39.614897327775786
0.5130205063140337,-5.598147070064617,7.8190686538799765,-0.9159235382472788,5.862153539368907,-39.5990398706672
