th1 (rad),w1 (rad/s),th2 (rad),w2 (rad/s)
2.6940890249976754,-2.5731041790766276,2.9935381012923257,-0.2898652018901895
2.668357983206909,-2.6210236373032956,2.9906394492734236,-0.2780657410159738
2.642147746833876,-2.6705261895092836,2.987858791863264,-0.2676078112542953
2.615442484938783,-2.7214517883720735,2.985182713750721,-0.2588688044491632
2.5882279670550625,-2.7736376067955595,2.98259402570623,-0.25223977537716563
2.560491590987107,-2.8269205697427706,2.980071627952458,-0.24812161702757657
2.5322223852896792,-2.8811400075358025,2.9775904117821823,-0.24692093774788892
2.5034109852143214,-2.9361402970596253,2.9751212024047033,-0.24904581639158835
2.474049582243725,-2.991773345355076,2.9726307442407873,-0.2549016277786715
2.444131848790174,-3.0479007690187125,2.9700817279630005,-0.2648871308039755
2.413652841099987,-3.1043956332410745,2.967432856654961,-0.2793909944051628
2.3826088847675764,-3.161143635325026,2.964638946710909,-0.2987889034979119
2.350997448414326,-3.218043646849539,2.96165105767593,-0.3234413411303618
2.3188170119458307,-3.2750075629525286,2.9584166442646262,-0.3536920893082641
2.2860669363163053,-3.331959442668509,2.9548797233715436,-0.3898674348094164
2.25274734188962,-3.3888339571586594,2.9509810490234494,-0.43227601337922095
2.2188590023180335,-3.4455741899729446,2.9466582888896573,-0.48120918064194373
2.184403260418304,-3.5021288532120742,2.9418461970832377,-0.5369417641000163
2.149381971886183,-3.558448994866817,2.9364767794422377,-0.5997330292753852
2.1137974819375147,-3.6144842761291427,2.930479449149484,-0.6698276843293386
2.077652639176223,-3.6701788944569707,2.9237811723061906,-0.7474567500822799
2.0409508502316536,-3.7254672206043606,2.9163066048053676,-0.8328381341670739
2.00369617802561,-3.780269207939698,2.907978223463697,-0.9261767667380226
1.965893485946213,-3.8344856223720387,2.8987164557963165,-1.0276641785292544
1.9275486297224926,-3.8879931330491275,2.888439814011024,-1.1374774283847602
1.8886686983920014,-3.9406392992651806,2.877065039727176,-1.2557773155732745
1.8492623053993495,-3.9922374888846295,2.8645072665714433,-1.3827058418274494
1.8093399305105033,-4.042561768790792,2.8506802081531686,-1.518382919279041
1.7689143128225955,-4.091341818751434,2.835496378960378,-1.6629023539284455
1.728000894635081,-4.138257936631523,2.818867355421094,-1.8163271708908504
1.686618315268766,-4.1829362246882065,2.8007040837121853,-1.978684388375867
1.6447889530218838,-4.22494407298001,2.7809172398284265,-2.14995939301427
1.6025395122920836,-4.263786085501623,2.7594176458982838,-2.3300901202218456
1.5599016514370674,-4.298900625798498,2.7361167446960653,-2.518961299703411
1.5169126451790824,-4.329657189211018,2.710927131699031,-2.7163990871133383
1.4736160732869723,-4.355354835569754,2.6837631408278977,-2.9221664665445486
1.4300625249312748,-4.375221935431053,2.654541476162452,-3.1359598721125783
1.3863103055769643,-4.38841749044881,2.6231818774413265,-3.357407536531666
1.3424261306724763,-4.394034279317408,2.5896078020760096,-3.5860701252895772
1.2984857878793021,-4.391104049701089,2.553747100823114,-3.8214442509905293
1.2545747473822912,-4.378604918646982,2.5155326583132087,-4.062969477303937
1.2107886981958214,-4.355471054913277,2.474902963540169,-4.310039409397804
1.1672339876466886,-4.320604593829724,2.431802569446191,-4.5620174221419285
1.1240279417083914,-4.272889578872133,2.386182395224772,-4.818257494688243
1.08129904591967,-4.211207538220426,2.3379998202778896,-5.078130498605142
1.039186970537466,-4.134454098820976,2.2872185152918383,-5.341056127836166
0.9978424295492562,-4.041555831707093,2.2338079540134768,-5.60654046647135
0.9574268712321853,-3.931486336559712,2.177742549348763,-5.8742189700727625
0.9181120078665882,-3.803280448678333,2.1190003596480356,-6.143904390758227
0.8800792033798048,-3.6560454420884914,2.057561315740453,-6.4156388968927365
0.8435187489589199,-3.488968287626999,1.9934049267715257,-6.689749289283749
0.8086290660826498,-3.3013185248352572,1.9265074338786883,-6.966903704974231
0.7756158808342972,-3.0924473149051543,1.856838396828946,-7.248167325964679
0.7446914076852457,-2.8617850873938555,1.7843567235692992,-7.535052969676835
0.7160735568113071,-2.608843455381174,1.709006193872531,-7.829559256234557
0.6899851222574954,-2.3332327910253126,1.6307106013101853,-8.134182881814153
0.6666527943472423,-2.034716879785295,1.5493687724920437,-8.451879756298329
0.6463056255493894,-1.7133436179253674,1.4648499749290604,-8.785927788808625
0.6291721893701357,-1.3697209647318314,1.3769906970409742,-9.139604374015477
0.6154749797228174,-1.0055573332070584,1.2855946533008193,-9.515523495976744
0.6054194063907468,-0.6246601395776135,1.1904394183410518,-9.91437196393467
0.5991728049949706,-0.23467014199488329,1.091295698701705,-10.332657932098005
0.5968261035750217,0.15018867716411716,0.987969119380725,-10.759054536484376
0.598327990346663,0.5054381259085368,0.8803785740158812,-11.169380547287949
0.6033823716057484,0.7932244198777729,0.7686847685430016,-11.522062538758547
0.6113146158045261,0.9640575470914565,0.6534641431554161,-11.75973099988813
0.6209551912754406,0.9697427263212274,0.5358668331565348,-11.825380925116983
0.630652618538653,0.7872420572035448,0.417613023905365,-11.69277878860262
0.6385250391106884,0.4358696517291973,0.3006852360193388,-11.387786411280699
0.6428837356279803,-0.0325300656061524,0.1868073719065318,-10.97425942008523
0.6425584349719188,-0.5615137351240114,0.07706477770567949,-10.517540671138395
0.6369432976206787,-1.1094354895175513,-0.028110629005704463,-10.060772488967896
0.6258489427255032,-1.6521141077256054,-0.1287183538953834,-9.623397578496437
0.6093278016482471,-2.1775421733111995,-0.22495232968034778,-9.20931168747631
0.5875523799151351,-2.680347479371786,-0.3170454465551109,-8.814584827278482
0.5607489051214172,-3.1582426500663994,-0.40519129482789573,-8.432211208983817
0.5291664786207532,-3.610178529235978,-0.48951340691773393,-8.054541029512587
0.49306469332839337,-4.035519762127575,-0.5700588172128598,-7.67440598171944
0.4527094957071176,-4.433755212729688,-0.6468028770300542,-7.285602322460429
0.4083719435798207,-4.804467854395364,-0.7196589002546585,-6.883077193016974
0.3603272650358671,-5.147419957070586,-0.7884896721848282,-6.462977936580367
0.3088530654651612,-5.462678727768771,-0.853119451550632,-6.022630880458918
0.2542262781874735,-5.750742540609515,-0.9133457603552211,-5.560473444544856
0.19671885278137835,-6.012646003324682,-0.9689504948006696,-5.075946374895656
0.13659239274813154,-6.25003246060159,-1.019709958549626,-4.569348340715308
0.07409206814211564,-6.465189352419712,-1.0654034419567793,-4.041656508326295
0.009440174617918518,-6.661046755865434,-1.1058200070400421,-3.49432065860257
-0.05717029294073582,-6.841142720914626,-1.140763213626068,-2.929043270271205
-0.1255817201498821,-7.009560201702931,-1.17005364632878,-2.3475632151804118
-0.19567732216691142,-7.170838489463702,-1.1935292784805842,-1.7514669015781306
-0.26738570706154846,-7.329855426031216,-1.2110439474963655,-1.142059943571907
-0.34068426132186064,-7.491662551864914,-1.2224645469320845,-0.5203489942974231
-0.4156008868405098,-7.6612289994631695,-1.2276680368750588,0.11278528131542642
-0.4922131768351415,-7.843003854155307,-1.2265401840619046,0.7560854912633311
-0.5706432153766946,-8.040131562803179,-1.2189793291492712,1.4068489763762833
-0.6510445310047264,-8.25304970477879,-1.2049108393855084,2.0589193122499356
-0.7335750280525143,-8.477110324882528,-1.184321646263009,2.69925485541415
-0.8183461313013396,-8.699005517632305,-1.1573290977088675,3.302814844211074
-0.9053361864776627,-8.89272429430823,-1.1243009492667568,3.8268845777939053
-0.994263429420745,-9.018385570256706,-1.0860321034888178,4.209716228697868
-1.084447285123312,-9.030766027179443,-1.0439349412018393,4.383285427305661
-1.1747549453951065,-8.901560592269897,-1.0001020869287827,4.305865479623636
-1.2637705513178055,-8.641974014502452,-0.9570434321325463,3.995009024440608
-1.3501902914628299,-8.299566037091942,-0.9170933418881402,3.5231964335021466
-1.4331859518337493,-7.929599735814498,-0.8818613775531187,2.9760950948768765
-1.5124819491918944,-7.571255059540878,-0.8521004266043499,2.4171264226011724
-1.5881944997873032,-7.243590243091719,-0.8279291623783382,1.8804763387240124
-1.6606304022182203,-6.952006909140528,-0.8091243989910981,1.3797844808555797
-1.7301504713096256,-6.695065788403362,-0.7953265541825423,0.9178427386620972
-1.7971011291936592,-6.468674953761876,-0.7861481267959213,0.49275079797789795
-1.8617878787312778,-6.268136548089876,-0.7812206188161422,0.10104442311733652
-1.9244692442121765,-6.08900158181577,-0.7802101745849689,-0.26091308030011556
-1.9853592600303342,-5.92735983829728,-0.7828193053879701,-0.5963923806907729
-2.044632858413307,-5.779888348630688,-0.7887832291948778,-0.9081441409422827
-2.102431741899614,-5.643808246121995,-0.7978646706043006,-1.198405563489988
-2.158869824360834,-5.516814785491647,-0.8098487262392005,-1.4689660148330697
-2.2140379722157504,-5.39700649015616,-0.8245383863875312,-1.7212477398622872
-2.268008037117312,-5.282822428720857,-0.841750863786154,-1.9563837139933709
-2.3208362614045206,-5.172989559314019,-0.8613147009260878,-2.1752861737645297
-2.3725661569976606,-5.066479384218944,-0.8830675626637331,-2.3787042659858426
-2.42323095083985,-4.962472333420981,-0.9068546053235915,-2.5672712168919576
-2.47285567417406,-4.860328236185082,-0.932527317492511,-2.7415421066154586
-2.521458956535911,-4.759561459436466,-0.9599427385586656,-2.902023487086594
-2.5690545711302755,-4.65981958330637,-0.9889629734295315,-3.0491960323992133
-2.6156527669633394,-4.560864763762401,-1.0194549337535237,-3.1835312994369622
-2.6612614146009634,-4.462557169869133,-1.0512902467478933,-3.305503557764364
-2.705886986299655,-4.3648400722180005,-1.0843452823255368,-3.4155975391340543
-2.749535387021835,-4.267726302226831,-1.1185012577168774,-3.5143128611919034
-2.792212650044103,-4.171285905614941,-1.1536443863287964,-3.6021657947783035
-2.8339255091002524,-4.075634884541898,-1.1896660442765794,-3.6796889664840453
-2.874681857945671,-3.9809249685264163,-1.22646293394142,-3.747429515387675
-2.914491107630935,-3.8873343804860667,-1.2639372290952966,-3.805946153805615
-2.953364451435796,-3.7950595763254884,-1.3019966906333527,-3.8558055159788203
-2.991315047199051,-3.7043079388115676,-1.3405547457931408,-3.89757811608247
-3.028358126587167,-3.615291402508806,-1.3795305269539655,-3.931834178294365
-3.064511040612255,-3.52822097902861,-1.4188488687369092,-3.9591395475084266
-3.099793250402541,-3.4433021428155577,-1.4584402642119934,-3.980051840186124
-3.1342262718306966,-3.3607310286214362,-1.4982407826138546,-3.9951169512025593
-3.167833582116911,-3.280691383702386,-1.5381919521258802,-4.004865994575828
-3.2006404959539347,-3.203352211237051,-1.5782406120716386,-4.009812723684394
-3.232674018066305,-3.128866036831327,-1.6183387393084825,-4.010451449818954
-3.2639626784346185,-3.0573677273522266,-1.658443253806672,-4.007255456379024
-3.2945363557081406,-2.9889737906607174,-1.6985158083704623,-4.0006758892967955
-3.324426093614748,-2.9237820859187416,-1.7385225672634304,-3.9911410918620844
-3.3536639144739353,-2.8618718767839626,-1.7784339781820513,-3.9790563434988373
-3.382282633241775,-2.8033041636919585,-1.8182245416170397,-3.9648039566553526
-3.4103156748786945,-2.748122236260663,-1.8578725811835932,-3.948743683273465
-3.437796897241301,-2.696352392342906,-1.897360018016328,-3.9312133817777792
-3.46476042116473,-2.6480047761278414,-1.9366721518341057,-3.912529896695055
-3.491240468926008,-2.6030742937095614,-1.9757974508010563,-3.8929901054450653
-3.5172712118631035,-2.5615415704967477,-2.014727351855507,-3.8728720901612075
-3.542886627568071,-2.523373920565587,-2.053456072757119,-3.8524363962820107
-3.568120366773727,-2.4885263034332312,-2.0919804367199393,-3.831927343839951
-3.5930056298080593,-2.456942248661636,-2.1302997101583387,-3.811574361651525
-3.6175750522946757,-2.428554733135614,-2.168415453774854,-3.791593318821269
-3.641860599626032,-2.403286999767084,-2.206331386963067,-3.7721878319947852
-3.6658934696237027,-2.381053309756221,-2.2440532652830147,-3.7535505305517574
-3.689704002721265,-2.36175962340486,-2.2815887705885323,-3.735864265370603
-3.7133215989553134,-2.3453042068576497,-2.3189474132422383,-3.7193032498982492
-3.73677464102389,-2.3315781640818725,-2.3561404457412207,-3.704034125017754
-3.760090422664709,-2.3204658949338017,-2.3931807869913984,-3.690216941634101
-3.783295081614047,-2.311845481347981,-2.4300829564077393,-3.6780060570159567
-3.806413536427527,-2.305589004577096,-2.4668630169778987,-3.6675509427670314
-3.829469426473298,-2.3015627970550327,-2.503538526405569,-3.6589969038875085
-3.8524850544438483,-2.299627632903325,-2.5401284954444443,-3.652485709758388
-3.8754813307728817,-2.2996388613979635,-2.5766533525420283,-3.648156139074192
-3.8984777193868614,-2.3014464879028544,-2.6131349139327704,-3.6461444417961317
-3.92149218426589,-2.304895206898025,-2.6495963583507316,-3.646584722130314
-3.94454113633487,-2.309824391821611,-2.6860622055720347,-3.6496092473832578
-3.967639380253086,-2.3160680465380312,-2.7225582980458674,-3.6553486883362374
-3.9908000607184664,-2.323454723370972,-2.75911178492923,-3.6639322975336466
-4.014034607952176,-2.331807412826688,-2.7957511079045663,-3.675488032617635
-4.037352682080443,-2.340943410406599,-2.8325059882307424,-3.690142632575952
-4.060762116184509,-2.3506741662929542,-2.869407414556502,-3.7080216555108207
-4.084268857847438,-2.36080512421203,-2.90648763111161,-3.729249487285209
-4.107876909089558,-2.3711355564618337,-2.943780125984462,-3.753949331151311
-4.131588264654177,-2.3814584029645895,-2.981319619295975,-3.7822431891946047
-4.155402848683822,-2.3915601233033636,-3.019142051187921,-3.8142518470995914
-4.179318449916856,-2.4012205720714666,-3.057284569658917,-3.850094874302874
-4.203330655637571,-2.410212909561976,-3.0957855184019456,-3.88989065195925
-4.227432784733191,-2.418303561934051,-3.134684424921538,-3.9337564411815302
-4.251615820352531,-2.425252247625918,-3.174021989333353,-3.981808503546671
-4.27586834282879,-2.4308120901008023,-3.21384007436882,-4.034162284639713
-4.300176463729798,-2.434729841236507,-3.254181697215217,-4.090932669085986
-4.324523762142163,-2.436746245118729,-3.295091023906077,-4.15223431162183
-4.34889122459335,-2.436596579118444,-3.336613367022295,-4.218182042614939
-4.3732571903845345,-2.4340114185493245,-3.3787951874484445,-4.288891337161307
-4.397597304570028,-2.4287176837830375,-3.4216841008200576,-4.364478823213515
-4.421884481407859,-2.42044004565561,-3.4653288890521927,-4.445062784432304
-4.446088881864415,-2.4089027879893146,-3.509779516896516,-4.530763585272335
-4.470177909744308,-2.3938322573520794,-3.5550871527492394,-4.621703906042142
-4.494116232317829,-2.374960072848381,-3.601304191809661,-4.718008620020208
-4.517865833046312,-2.3520273268693757,-3.648484278009863,-4.819804067393145
-4.541386106315006,-2.3247900866628144,-3.6966823186837945,-4.927216374170095
-4.564634007181634,-2.29302661307859,-3.7459544824254953,-5.0403683184367605
-4.587564273312419,-2.256546855076168,-3.796358165609863,-5.159374049016479
-4.610129741863181,-2.215204965626767,-3.8479519061000276,-5.284330698366447
-4.632281791519449,-2.1689158249497424,-3.900795213083692,-5.415305587377907
-4.653970949768946,-2.1176768547661973,-3.9549482689574713,-5.552317283318913
-4.675147718316608,-2.0615967548080856,-4.010471441790661,-5.69530824490952
-4.695763685864689,-2.0009331563235504,-4.067424524239756,-5.844106202967695
-4.715773017427924,-1.9361414808653223,-4.125865586269433,-5.998370878340716
-4.735134432236578,-1.867937335613432,-4.18584929505284,-6.157522349511317
-4.753813805592712,-1.797374230082321,-4.2474245185479536,-6.320647776855376
-4.771787547893535,-1.7259366883715614,-4.310630996316507,-6.486385013517925
-4.78904691477725,-1.655645088890771,-4.375494846451686,-6.65278603479036
-4.805603365666158,-1.5891616997098759,-4.44202270679959,-6.81717158554994
-4.821494982663257,-1.5298764935950744,-4.51019442265509,-6.976002282324104
-4.8367937475992075,-1.4819368046053396,-4.5799544454783305,-7.124810312818637
-4.851613115645261,-1.4501703771815253,-4.651202548606517,-7.258255309408358
-4.866114819417076,-1.4398460540516642,-4.723785101700601,-7.370376068590922
-4.880513279957593,-1.4562349695840002,-4.79748886238651,-7.455087276262875
-4.895075629653433,-1.5039908597055447,-4.872039735149139,-7.506899850828778
-4.910115538250488,-1.5864561703267577,-4.947108733657426,-7.521731163352328
-4.9259800999537555,-1.7050822684340967,-5.022326045290949,-7.497568173867095
-4.943030922638097,-1.8591642533957746,-5.09730172702962,-7.43473460371775
-4.961622565172054,-2.0459959847258378,-5.171649073066797,-7.335639941549411
-4.982082525019313,-2.2613879128202177,-5.245005472482291,-7.204099054950731
-5.004696404147515,-2.5003588247974067,-5.317046463031799,-7.044474519654123
-5.029699992395488,-2.7577886371823057,-5.38749120822834,-6.860913486298739
-5.057277878767311,-3.0288935221148803,-5.456100343091328,-6.656845404479091
-5.0875668139884604,-3.3094883547478604,-5.522668797136119,-6.434769658183347
-5.120661697535939,-3.5960748792552892,-5.587016493717953,-6.196270222885204
-5.156622446328492,-3.8858202412715004,-5.648979195946805,-5.94216606057811
-5.195480648741207,-4.176483719700253,-5.708400856552586,-5.6727195552028755
-5.23724548593821,-4.466329916163563,-5.765128052104615,-5.387853212362561
-5.281908785099846,-4.754047456871289,-5.81900658422824,-5.087350350539066
-5.329449259668559,-5.0386782332264195,-5.86988008773363,-4.771033241392515
-5.379836042000823,-5.319553329124187,-5.9175904201475555,-4.438922956340638
-5.433031575292065,-5.596226362370183,-5.961979649710962,-4.0913917544230936
-5.488993838915767,-5.868391280596117,-6.002893567255192,-3.729323657430729
-5.547677751721728,-6.135768533112765,-6.0401868038295,-3.354303388676109
-5.609035437052856,-6.397940627626577,-6.073729837716261,-2.968858319895389
-5.673014843329121,-6.654116228060809,-6.103418420915215,-2.576780849095767
-5.73955600560973,-6.90280415549945,-6.129186229406173,-2.1835549284464015
-5.808584047164724,-7.141391643998991,-6.151021778690637,-1.796890118113915
-5.879997963604715,-7.365656991210454,-6.168990679871777,-1.4273119939492205
-5.953654533516819,-7.569321060312859,-6.183263799811269,-1.08864670763204
-6.029347744119948,-7.74386167623562,-6.194150266887589,-0.7980619867372062
-6.106786360882305,-7.878942668036438,-6.202130886754961,-0.5751441220649445
-6.185575787562669,-7.963814623526216,-6.207882327975611,-0.43949419017028746
-6.265213933797932,-7.989717673070884,-6.212277269877314,-0.4068241468295221
-6.345111110528641,-7.952593460627223,-6.216345511345609,-0.4846161713872875
-6.424637045134913,-7.854745388215814,-6.221191673059482,-0.6694109265141527
-6.503184499017071,-7.70431754821096,-6.227885782324623,-0.9474635241737803
-6.580227674499181,-7.512770444214977,-6.237360417566361,-1.298565749727671
-6.655355378941331,-7.291776637699075,-6.2503460750636375,-1.7009365520589976
-6.7282731453183215,-7.0509770971468795,-6.267355440584227,-2.1349771179122112
-6.79878291628979,-6.797102939920722,-6.288705211763349,-2.5850326300850197
-6.866753945688997,-6.534137937524539,-6.3145555380642,-3.0395551566578614
-6.9320953250642425,-6.263962420344114,-6.344951089630778,-3.490462365772475
-6.994734949267683,-5.987071158490357,-6.379855713288503,-3.932301026949962
-7.054605660852587,-5.703176068746292,-6.4191787235580025,-4.361515371650152
-7.11163742154005,-5.411648089260992,-6.462793877274504,-4.775906120036536
-7.16575390243266,-5.111816318086734,-6.51055293847487,-5.174264625314321
-7.2168720656135275,-4.803160132977853,-6.562295584728013,-5.556134451672187
-7.264903666943306,-4.4854288536474956,-6.617856929244735,-5.921651141403073
-7.309757955479781,-4.1587178326610905,-6.6770734406587655,-6.271418644460008
-7.351345133806392,-3.8235252964192408,-6.739787627103365,-6.606388707102081
