th1 (rad),w1 (rad/s),th2 (rad),w2 (rad/s),a1 (rad/s^2),a2 (rad/s^2)
0.7904065844354579,2.095430629470865,3.2089728665915556,-2.201079376822589,-8.628926296263405,-8.71542322375081
0.8113608907301665,2.009141366508231,3.18696207282333,-2.2882336090600974,-8.294626826291596,-8.331845939715903
0.8314523043952488,1.9261950982453149,3.164079736732729,-2.3715520684572566,-7.951149652019071,-7.952528277998274
0.850714255377702,1.8466836017251242,3.1403642160481566,-2.4510773512372395,-7.604361739080131,-7.586095500883177
0.8691810913949531,1.770639984334323,3.1158534425357844,-2.526938306246071,-7.2587386270375465,-7.2390739962030635
0.8868874912382964,1.6980525980639476,3.090584059473324,-2.599329046208102,-6.917549144010358,-6.91621519388928
0.9038680172189358,1.628877106623844,3.0645907690112426,-2.6684911981469948,-6.583042291415058,-6.620812806030905
0.9201567882851743,1.5630466837096935,3.037905857029773,-2.734699326207304,-6.256624420439122,-6.354996549708593
0.9357872551222712,1.5004804395053022,3.0105588637676997,-2.7982492917043897,-5.939019623718413,-6.119993117525178
0.9507920595173243,1.441090243268118,2.982576370850656,-2.8594492228796415,-5.630409904016056,-5.9163507411578555
0.9652029619500054,1.3847861442279574,2.9539818786218595,-2.91861273029122,-5.3305542471876395,-5.744127480284241
0.979050823392285,1.331480601756081,2.924795751318947,-2.9760540050940625,-5.038887399122012,-5.603045708774879
0.9923656294098459,1.2810917277648608,2.8950352112680067,-3.0320844621818113,-4.75460013085255,-5.492616524013886
1.0051765466874945,1.2335457264563352,2.8647143666461887,-3.08701062742195,-4.476703265723527,-5.412238297165442
1.0175120039520578,1.1887786937990998,2.8338442603719693,-3.1411330103936046,-4.204077900451353,-5.361273574142099
1.0293997908900487,1.1467379147945862,2.8024329302680333,-3.1947457461350255,-3.935514206164778,-5.339108225534783
1.0408671700379946,1.1073827727329384,2.770485472806683,-3.2481368283903733,-3.6697410412719167,-5.345196266351554
1.051940997765324,1.0706853623202193,2.7380041045227794,-3.301588791053889,-3.4054484134289473,-5.379093211905082
1.0626478513885262,1.0366308781859297,2.7049882166122403,-3.3553797231729394,-3.1413046408083445,-5.440480255424807
1.0730141601703855,1.0052178317778462,2.671434419380511,-3.4097845257271873,-2.875969917404481,-5.529180967954804
1.083066338488164,0.9764581326038013,2.637336574123239,-3.465076335406735,-2.608107909606839,-5.645171631797703
1.092830919814202,0.9503770535077329,2.602685810769172,-3.521528051724712,-2.336397025486972,-5.788585707332292
1.1023346903492794,0.9270130832528632,2.5674705302519247,-3.579413908798035,-2.05954313011957,-5.959712265531879
1.1116048211818081,0.9064176519516676,2.5316763911639444,-3.6390110314533537,-1.776295762454908,-6.158987444239674
1.1206689977013249,0.8886546943271185,2.495286280849411,-3.7006009058957505,-1.4854703859286196,-6.386977034761134
1.1295555446445962,0.8737999904678323,2.4582802717904535,-3.764470676243362,-1.185979936998618,-6.64434708117861
1.1382935445492746,0.8619401910978461,2.42063556502802,-3.830914147055148,-0.8768800064929658,-6.931817750325694
1.146912946460253,0.8531713910329165,2.382326423557468,-3.900232324558405,-0.5574335097841611,-7.250093537164358
1.1554446603705821,0.8475970559350748,2.343324100311884,-3.9727332599300484,-0.22720281804066725,-7.5997598914058235
1.1639206309299328,0.8453250277546681,2.3035967677125835,-4.048730858844107,0.11381978884354053,-7.981132318847115
1.1723738812074795,0.8464632256431035,2.2631094591241423,-4.128542182032578,0.4650286310312626,-8.394038620621028
1.1808385134639106,0.8511135119534161,2.2218240373038167,-4.212482568238788,0.8249483885113482,-8.837507896755765
1.1893496485834447,0.8593629958385296,2.1796992116214287,-4.300857647206346,1.1908792290690497,-9.309331118392413
1.19794327854183,0.8712717881292201,2.1366906351493653,-4.3939509583902705,1.5584103887258889,-9.80544777282066
1.2066559964231223,0.886855892016479,2.0927511255654627,-4.492005436118477,1.920762518054487,-10.319102658117625
1.215524555343287,0.9060635171970238,2.047831071204278,-4.595196462699653,2.2679153609699534,-10.83970986917586
1.2245851905152572,0.9287426708067233,2.0018791065772814,-4.703593561391412,2.5854824458054924,-11.35136502229127
1.2338726172233243,0.9545974952647782,1.9548431709633673,-4.817107211614325,2.853319579722632,-11.830976666739764
1.2434185921759722,0.9831306910620046,1.906672098847224,-4.935416978281723,3.043918361692057,-12.246069730991465
1.2532498990865921,1.0135698746789252,1.8573179290644068,-5.057877675591638,3.12076935711322,-12.552488348626902
1.2633855978333814,1.0447775682500575,1.8067391523084904,-5.183402559077908,3.037119311189847,-12.69254426523149
1.273833373515882,1.075148761361956,1.7549051267177114,-5.310328001730222,2.735919979673768,-12.594659514244116
1.2845848611295017,1.1025079611586937,1.7018018467004092,-5.436274596872663,2.1522398800729574,-12.17619721163957
1.2956099407410886,1.1240303599594232,1.6474391007316826,-5.558036568989059,1.2197938549296503,-11.35170746430361
1.3068502443406829,1.1362282985087198,1.591858735041792,-5.6715536436320955,-0.1169293813341069,-10.04860288856075
1.31821252732577,1.1350590046953788,1.535143198605471,-5.772039672517703,-1.8849338937986766,-8.230313653117829
1.3295631173727238,1.116209665757392,1.477422801880294,-5.854342809048881,-4.0626973133976225,-5.922493390929367
1.3407252140302977,1.075582692623416,1.418879373789805,-5.9135677429581746,-6.565621446084279,-3.231874214914399
1.3514810409565319,1.0099264781625732,1.3597436963602234,-5.9458864851073185,-9.247124693367939,-0.3441656025807187
1.3615803057381577,0.9174552312288938,1.3002848315091502,-5.949328141133126,-11.921616033149926,2.5071725427491773
1.3707548580504467,0.7982390708973945,1.2407915500978188,-5.924256415705634,-14.40454809262692,5.094447521945945
1.3787372487594207,0.6541935899711253,1.1815489859407624,-5.873311940486174,-16.553451877273073,7.249601815724577
1.385279184659132,0.4886590711983946,1.1228158665359007,-5.800815922328929,-18.292309781691266,8.894850942416907
1.3901657753711159,0.30573597338148195,1.0648077073126114,-5.71186741290476,-19.611940610578166,10.040886893682933
1.3932231351049307,0.1096165672757003,1.0076890331835637,-5.611458543967931,-20.552302223014596,10.761350212263693
1.3943193007776877,-0.09590645495444566,0.9515744477438844,-5.503845041845294,-21.178795562225485,11.160220800280287
1.3933602362281432,-0.30769441057670055,0.8965359973254315,-5.3922428338424915,-21.56227072814694,11.345076915238634
1.3902832921223762,-0.5233171178581699,0.8426135689870067,-5.278792064690105,-21.766618027494214,11.41106285306184
1.3850501209437944,-0.740983298133112,0.7898256483401056,-5.164681436159486,-21.84336094473093,11.4343913660271
1.3776402879624634,-0.9594169075804213,0.7381788339785107,-5.050337522499215,-21.830902677678267,11.47197150748011
1.3680461188866593,-1.177725934357204,0.6876754587535185,-4.935617807424414,-21.756148797011054,11.563997520507773
1.3562688595430872,-1.3952874223273146,0.6383192806792743,-4.819977832219337,-21.63696176570121,11.737419530051321
1.342315985319814,-1.6116570399843266,0.590119502357081,-4.702603636918823,-21.484618264478772,12.009224959401461
1.3261994149199707,-1.8265032226291145,0.5430934659878928,-4.582511387324809,-21.305922715218106,12.389120832811658
1.3079343826936796,-2.0395624497812954,0.49726835211464465,-4.458620178996692,-21.104893130500766,12.881557080245384
1.2875387581958666,-2.250611381086303,0.45268215032467773,-4.329804608194238,-20.884052664653325,13.487180436883012
1.2650326443850035,-2.4594519077328365,0.40938410424273536,-4.194932803825409,-20.645398020532046,14.203851262345063
1.240438125307675,-2.665905887938157,0.3674347762044813,-4.052894291201958,-20.391116726702943,15.027350225871999
1.2137790664282935,-2.8698170552051865,0.3269058332924617,-3.902620788943238,-20.124112347330716,15.951879186724208
1.1850808958762415,-3.0710581786784936,0.2878796254030293,-3.743101997075996,-19.848380855723647,16.97043471764449
1.1543703140894566,-3.26954198723573,0.2504486054322693,-3.573397649899551,-19.56926702796257,18.075108653219278
1.1216748942170993,-3.4652346575153556,0.2147146289332738,-3.392646563367358,-19.293617871799075,19.257348673407204
1.0870225476419457,-3.6581708362333463,0.18078816329960024,-3.200073076633286,-19.02984033463363,20.508192310470122
1.0504408392796123,-3.8484692395796825,0.14878743253326737,-2.9949911535285847,-18.787861577419,21.818468136809393
1.0119561468838154,-4.036347855353872,0.11883752099798153,-2.776806472160491,-18.578980114218805,23.178935929680257
0.9715926683302767,-4.22213765649606,0.09106945627637662,-2.5450171128636883,-18.415582552278597,24.58031023418817
0.9293712917653161,-4.406293482018846,0.06561928514773974,-2.2992140105218066,-18.310679944155343,26.01307461305448
0.8853083569451277,-4.589400281460399,0.04262714504252167,-2.039083264391262,-18.277184768943275,27.466940635430177
0.8394143541305237,-4.7721721291498325,0.022236312398609053,-1.7644138580369602,-18.326797071106924,28.929727151687487
0.7916926328390254,-4.955440099860902,0.00459217381823945,-1.4751165865200853,-18.468286641902576,30.385319242002655
0.7421382318404164,-5.140122966279928,-0.010158992046961402,-1.1712633941000588,-18.704836184808645,31.810198366668075
0.6907370021776171,-5.327171328128014,-0.02187162598796199,-0.853161410433378,-19.029940587548502,33.16780757368796
0.637465288896337,-5.517470734003499,-0.03040324009229577,-0.5214833346964984,-19.42115179213006,34.39974949319282
0.582290581556302,-5.7116822519248,-0.03561807343926075,-0.17748583976457022,-19.83079127786842,35.412622088734786
0.525173759037054,-5.909990164703484,-0.03739293183690646,0.17664038112277763,-20.172855280500347,36.05951787755089
0.46607385739001916,-6.111718717508488,-0.03562652802567868,0.5372355598982865,-20.30628754955333,36.116676632312306
0.4049566702149343,-6.314781593004021,-0.030254172426695813,0.8984023262214096,-20.017758485365242,35.26015420101642
0.3418088542848941,-6.514959177857674,-0.021270149164481715,1.2510038682315738,-19.013803066469862,33.05709246107337
0.27665926250631734,-6.705097208522372,-0.008760110482165977,1.5815747928423076,-16.94341597153156,29.00225705408963
0.20960829042109363,-6.874531368237688,0.007055637446257099,1.871597363383204,-13.482411006246922,22.644786160178736
0.14086297673871676,-7.009355478300157,0.025771611080089137,2.0980452249849915,-8.499097240029057,13.832422033746747
0.07076942195571519,-7.0943464507004474,0.04675206332993905,2.2363694453224587,-2.2551818107166897,3.005199563524025
-0.00017404255128929125,-7.116898268807614,0.06911575778316364,2.266421440957699,4.51091652196206,-8.683625003488482
-0.07134302523936543,-7.071789103587994,0.09177997219274064,2.1795851909228143,10.784336034252686,-19.66103792742906
-0.14206091627524536,-6.963945743245467,0.11357582410196879,1.9829748116485237,15.70418100965726,-28.567394126884984
-0.21170037370770003,-6.806903933148894,0.13340557221845403,1.697300870379674,18.90632323046899,-34.76970381566619
-0.279769413039189,-6.617840700844204,0.15037858092225076,1.349603832223012,20.53473130116477,-38.39535042013433
-0.345947820047631,-6.412493387832557,0.16387461924448088,0.9656503280216686,21.00868262912634,-40.003336805532165
-0.4100727539259566,-6.202406561541293,0.17353112252469757,0.565616959966347,20.78174003012128,-40.232302747935805
-0.4720968195413695,-5.99458916124008,0.17918729212436105,0.16329393248698892,20.214832289647514,-39.607781727350066
-0.5320427111537703,-5.792440838343605,0.18082023144923093,-0.23278388478651174,19.549800939001344,-38.49500333652232
-0.5899671195372064,-5.596942828953591,0.17849239260136582,-0.617733918151735,18.929891688330258,-37.122508898276
-0.6459365478267423,-5.407643912070289,0.17231505341984846,-0.9889590071344949,18.43018807578523,-35.62305012571705
-0.7000129869474452,-5.223342031312437,0.1624254633485035,-1.3451895083916654,18.083026622202322,-34.06916405219634
-0.7522464072605696,-5.042511765090413,0.14897356826458685,-1.6858811489136287,17.89551967920511,-32.49833248629636
-0.8026715249114738,-4.863556568298362,0.13211475677545056,-2.0108644737765924,17.860570791776038,-30.92909958455815
-0.8513070905944574,-4.684950860380602,0.11200611203768464,-2.320155469622174,17.96347224675962,-29.370815504684764
-0.8981565991982634,-4.505316137913006,0.08880455734146289,-2.6138636246690217,18.18577007649688,-27.82927156883188
-0.9432097605773935,-4.323458437148037,0.06266592109477268,-2.8921563403573405,18.50752728107217,-26.30979814221739
-0.9864443449488739,-4.1383831643373155,0.03374435769119927,-3.1552543217795144,18.908680142675703,-24.818827225960234
-1.027828176592247,-3.9492963629105584,0.0021918144734041217,-3.4034425940391166,19.36989184505213,-23.36453606675942
-1.0673211402213525,-3.755597444460037,-0.031842611466987046,-3.6370879547067108,19.8731276236901,-21.95694725008412
-1.1048771146659528,-3.556866168223136,-0.06821349101405416,-3.856657427207552,20.402068640283495,-20.607715888744362
-1.1404457763481841,-3.3528454818203013,-0.10678006528612968,-4.0627345860949955,20.942419931251777,-19.32974816065208
-1.1739742311663872,-3.1434212825077834,-0.14740741114707964,-4.256032067701517,21.482133058796826,-18.136742824835043
-1.205408443991465,-2.928599951919815,-0.18996773182409482,-4.437399495949867,22.011545208320495,-17.042713108094002
-1.234694443510663,-2.70848449983661,-0.2343417267835935,-4.607826627030807,22.52342630510551,-16.06152122356734
-1.261779288509029,-2.483250236785555,-0.2804199930539016,-4.7684418392664805,23.01291949290372,-15.206436051002067
-1.2866117908768846,-2.253121041856518,-0.3281044114465664,-4.920506199776501,23.47735445035843,-14.48970234546358
-1.3091430012954497,-2.018347497352934,-0.3773094734443314,-5.065403223231137,23.915904411880213,-13.922084117487934
-1.329326476268979,-1.7791884532341318,-0.42796350567664276,-5.2046240644060155,24.32904331122635,-13.51231228468116
-1.3471183608013202,-1.5358980201218682,-0.4800097463207029,-5.3397471872528275,24.717735841824638,-13.266323406429619
-1.3624773410025388,-1.2887206617036218,-0.5334072181932312,-5.472410421317123,25.082256940602736,-13.186117632255767
-1.375364547619575,-1.0378980922975944,-0.5881313224064024,-5.604271597639681,25.4204855159086,-13.267985634798096
-1.385743528542551,-0.7836932371385085,-0.6441740383827992,-5.736951453987661,25.725451050088207,-13.49975616309456
-1.3935804609139362,-0.5264387266376265,-0.7015435529226758,-5.871949015618607,25.98184289253535,-13.856612067665177
-1.3988448481803124,-0.26662029771227297,-0.7602630430788618,-6.0105151362952585,26.161160001688838,-14.294964401413578
-1.4015110511574351,-0.00500869769538459,-0.8203681944418144,-6.1534647803093945,26.215283212478315,-14.743995443130455
-1.4015611381343889,0.25714413442939854,-0.8819028422449083,-6.3009047347406995,26.068706469090706,-15.095075058384454
-1.398989696790095,0.5178311991203056,-0.9449118895923153,-6.451855485324544,25.610852082714747,-15.19085495220551
-1.393811384798892,0.7739397199474531,-1.0094304444455608,-6.603764034846599,24.6923284323894,-14.819175353307738
-1.3860719875994174,1.0208630042713471,-1.0754680847940268,-6.751955788379677,23.13285561894179,-13.722284068341004
-1.3758633575567039,1.252191560460765,-1.1429876426778236,-6.889178629063087,20.752382547715083,-11.637267427319589
-1.3633414419520962,1.4597153859379157,-1.2118794289684545,-7.005551303336283,17.435182143662484,-8.381551531691999
-1.348744288092717,1.6340672073745406,-1.2819349420018173,-7.089366818653203,13.219979599504338,-3.9747722963822327
-1.3324036160189716,1.766267003369584,-1.3528286101883493,-7.129114541617025,8.374353607187624,1.2592301401344255
-1.3147409459852757,1.85001053944146,-1.4241197556045195,-7.116522240215681,3.3839995826061715,6.7046002887793295
-1.296240840590861,1.8838505352675219,-1.4952849780066764,-7.049476237327887,-1.1812633073149243,11.631745340757602
-1.2774023352381858,1.8720379021943727,-1.5657797403799552,-6.9331587839203115,-4.865351431591073,15.460997889252555
-1.2586819562162421,1.823384387878462,-1.6351113282191583,-6.778548805027786,-7.461158181880245,17.940668062815195
-1.2404481123374576,1.7487728060596595,-1.7028968162694362,-6.599142124399633,-9.010469661576343,19.143042069097408
-1.222960384276861,1.658668109443896,-1.7688882375134325,-6.407711703708659,-9.707554945011623,19.333315738615635
-1.206373703182422,1.5615925599937797,-1.8329653545505191,-6.214378546322503,-9.791188008347541,18.82624621373543
-1.1907577775824842,1.4636806799103041,-1.895109140013744,-6.026116084185149,-9.47575069363904,17.89721183815958
-1.1761209707833813,1.3689231729739137,-1.9553703008555956,-5.847143965803553,-8.925135955485597,16.75081234104455
-1.162431739053642,1.279671813419058,-2.013841740513631,-5.6796358423931075,-8.25274293858649,15.523526022686816
-1.1496350209194515,1.197144384033193,-2.0706380989375623,-5.52440058216624,-7.531730077097671,14.299003826433175
-1.1376635770791195,1.1218270832622164,-2.1258821047592247,-5.381410543901908,-6.806654147719147,13.124358580991867
-1.1264453062464974,1.0537605417850249,-2.1796962101982436,-5.25016695809199,-6.103075915738388,12.023197211864924
-1.115907700828647,0.992729782627641,-2.2321978797791635,-5.129934985973341,-5.434496357982364,11.004801417056184
-1.1059804030023708,0.9383848190478173,-2.283497229638897,-5.019886971802779,-4.807021896029416,10.070152282080647
-1.0965965548118926,0.8903146000875232,-2.3336960993569247,-4.919185448981973,-4.222372148842763,9.215708629954806
-1.0876934088110173,0.8480908785990955,-2.3828879538467445,-4.827028362682425,-3.679765621044802,8.43569808107843
-1.0792125000250263,0.8112932223886474,-2.4311582374735687,-4.742671381871641,-3.1770768605625888,7.723464138165673
-1.07109956780114,0.7795224537830215,-2.478584951292285,-4.665436740489984,-2.7115322442230756,7.072230494610295
-1.0633043432633096,0.7524071313407907,-2.525239318697185,-4.594714435543881,-2.2801182408098204,6.475513063948855
-1.0557802719499016,0.7296059489326925,-2.5711864630526238,-4.529959304904392,-1.8798125921203748,5.927323254146891
-1.0484842124605747,0.7108078230114887,-2.616486056101668,-4.470686072362923,-1.507707571948792,5.422250429617126
-1.0413761342304597,0.6957307472920008,-2.6611929168252972,-4.416463568066752,-1.1610682324597625,4.955476801159001
-1.0344188267575396,0.6841200649674032,-2.7053575525059648,-4.366908800055162,-0.837352070786373,4.5227566206704894
-1.0275776261078655,0.6757465442595395,-2.7490266405065165,-4.321681233848457,-0.5342062809059172,4.1203785283271275
-1.02082016066527,0.6704044814504804,-2.792243452845001,-4.280477448565185,-0.24945238375853893,3.7451220107093808
-1.0141161158507652,0.667909957612895,-2.835048227330653,-4.243026228458091,0.018935913194221537,3.39421418342121
-1.0074370162746362,0.6680993167448371,-2.8774784896152337,-4.209084086623879,0.27285820297162405,3.065290277586245
-1.000756023107188,0.6708278987745534,-2.9195693304814725,-4.178431183848016,0.5141142685143666,2.756359526499359
-0.9940477441194424,0.675969041459697,-2.9613536423199527,-4.150867588583022,0.7444313113132998,2.465777147086351
-0.9872880537048454,0.68341335457283,-3.002862318205783,-4.126209817112159,0.9654909485569743,2.192222496537161
-0.9804539201591171,0.6930682640583998,-3.0441244163769046,-4.104287592146787,1.1789556357376547,1.9346830675333626
-0.9735232375185331,0.7048578204157764,-3.0851672922983724,-4.0849407614714535,1.3864942008493,1.692443635726242
-0.9664746593143754,0.7187227624242694,-3.126016699913087,-4.068016325114191,1.589806035517366,1.4650794926023454
-0.9592874316901326,0.7346208227794431,-3.166696863164229,-4.0533655301881675,1.7906431795903215,1.2524522030744014
-0.9519412234623382,0.7525272545753463,-3.2072305184661105,-4.0408410081574235,1.990829042802957,1.0547056440384508
-0.9444159509165848,0.7724355450033759,-3.2476389285476848,-4.030293951717039,2.1922718042172074,0.8722591367629141
