th1 (rad),w1 (rad/s),th2 (rad),w2 (rad/s)
4.207312249554118,-2.978036020148126,1.617186884932284,-0.2652906314156352
4.177531889352636,-2.8781122273504605,1.6145339786181276,-0.23160799784600308
4.1487507670791315,-2.782435216757572,1.6122178986396676,-0.20411211359511044
4.120926414911556,-2.6909148161194696,1.6101767775037166,-0.18271838647272684
4.094017266750361,-2.6034299872160296,1.6083495936389893,-0.16728631899449448
4.067982966878201,-2.519838139134162,1.6066767304490444,-0.1576344248462207
4.04278458548686,-2.439982955115465,1.6051003862005822,-0.15355263820562648
4.018384755935705,-2.363700846346609,1.603564859818526,-0.1548124363168271
3.994747747472239,-2.290826173251806,1.6020167354553576,-0.16117493474965788
3.971839485739721,-2.2211953865474294,1.600404986107861,-0.17239722800450347
3.949627531874247,-2.154650240685583,1.598681013827816,-0.18823724308002204
3.928081029467391,-2.091040224962921,1.5967986413970159,-0.20845735662586107
3.9071706272177615,-2.030224345453373,1.5947140678307572,-0.23282700234344048
3.8868683837632276,-1.97207237630919,1.5923857978073228,-0.2611244680964155
3.8671476600001355,-1.9164656835149287,1.5897745531263587,-0.2931380543671578
3.847983003164986,-1.8632977090014595,1.5868431725826873,-0.3286667389674724
3.8293500260749718,-1.8124741888437594,1.5835565051930125,-0.36752046831065815
3.811225284186534,-1.7639131664751941,1.579881300509906,-0.40952017360240184
3.793586152521782,-1.7175448506252171,1.5757860987738819,-0.45449759118384164
3.77641070401553,-1.673311358046895,1.5712411228620435,-0.5022949499067371
3.7596775904350612,-1.6311663729680903,1.566218173362976,-0.5527645746459009
3.7433659267053803,-1.59107474844187,1.560690527616517,-0.6057684435935686
3.7274551792209616,-1.5530120692267724,1.5546328431805814,-0.6611777275422153
3.711925058528694,-1.5169641913270353,1.5480210659051592,-0.7188723316554642
3.6967554166154235,-1.4829267697022386,1.5408323425886046,-0.7787404539782844
3.681926148918401,-1.450904782762183,1.5330449380488218,-0.8406781699019067
3.6674171010907792,-1.4209120599586378,1.5246381563498028,-0.9045890477608498
3.6532079804911928,-1.3929708169499972,1.5155922658721943,-0.9703837975151143
3.6392782723216928,-1.367111201343596,1.5058884278970432,-1.0379799519050072
3.625607160308257,-1.3433708508247901,1.4955086283779933,-1.107301577430347
3.612173451800009,-1.3217944644875133,1.4844356126036897,-1.1782790108938308
3.5989555071551336,-1.302433387326157,1.4726528224947515,-1.2508486159733683
3.585931173281872,-1.2853452070828013,1.4601443363350177,-1.3249525532796251
3.573077721211044,-1.2705933619263456,1.4468948108022215,-1.400538556555851
3.56037178759178,-1.2582467567388793,1.432889425236663,-1.4775597070413937
3.5477893200243913,-1.248379385075224,1.418113828166249,-1.555974197511692
3.535305526173639,-1.2410699531264273,1.402554086191132,-1.6357450770975817
3.522894826642375,-1.236401501245904,1.3861966354201563,-1.7168399676542752
3.510530811629916,-1.2344610177828945,1.3690282357436134,-1.7992307421809646
3.498186201452087,-1.235339039113078,1.3510359283218039,-1.8828931555779775
3.4858328110609564,-1.2391292288681157,1.3322069967660242,-1.967806417869226
3.473441518772275,-1.245927928459194,1.312528932587332,-2.0539526999204574
3.460982239487683,-1.255833670086625,1.2919894055881274,-2.1413165616644543
3.448423902786817,-1.2689466425594584,1.2705762399714828,-2.229884292928575
3.4357344363612223,-1.2853680994571761,1.248277397042197,-2.319643157184841
3.4228807553666507,-1.3051996985027357,1.2250809654703485,-2.4105805289577256
3.4098287583816234,-1.3285427605483502,1.2009751601807712,-2.5026829162931525
3.3965433307761397,-1.3554974363827,1.1759483310178398,-2.595934860692037
3.3829883564123127,-1.3861617697463993,1.1499889824109195,-2.6903177083359227
3.3691267387148485,-1.4206306456029458,1.1230858053275603,-2.78580824838814
3.354920432258819,-1.4589946139815932,1.0952277228436789,-2.8823772167607005
3.340330486119003,-1.5013385817259415,1.0664039506760719,-2.979987667122053
3.325317100301744,-1.5477403673950962,1.0366040740048512,-3.0785932152120976
3.309839696627793,-1.5982691185212659,1.0058181418527303,-3.178136167847517
3.29385700544258,-1.6529835955662642,0.9740367801742551,-3.278545554438274
3.2773271694869175,-1.7119303333507825,0.9412513246298724,-3.379735086448409
3.2602078661534097,-1.7751416985184487,0.9074539737653883,-3.481601079008678
3.242456449168225,-1.8426338707323622,0.8726379629753015,-3.5840203787185487
3.2240301104609013,-1.9144047856719302,0.836797759188116,-3.686848352328487
3.204886062604182,-1.9904320892518872,0.7999292756648312,-3.789917002079527
3.1849817417116633,-2.0706711644013045,0.762030105644036,-3.893033284416193
3.16427503006765,-2.1550533035949075,0.723099772799874,-3.995977718789793
3.142724497031701,-2.2434841112780592,0.6831399956119761,-4.098503381321533
3.1202896559189206,-2.335842229304353,0.6421549617987609,-4.200335382984708
3.096931233625877,-2.4319784842486416,0.6001516079689138,-4.301170932322346
3.0726114487833907,-2.531715556571532,0.5571398986456902,-4.400680077102556
3.0472942932176754,-2.6348482666660766,0.5131330978746647,-4.498507206354839
3.0209458105510145,-2.741144560503885,0.46814802581111625,-4.594273372794428
2.9935343649459756,-2.850347256913346,0.422205292083172,-4.687579465049761
2.9650308923768423,-2.9621765889861695,0.37532949743267435,-4.778010219362255
2.9354091264869804,-3.076333533976172,0.3275493952390518,-4.865139012419664
2.9046457911472188,-3.1925038804996246,0.2788980051148552,-4.948533322649476
2.8727207523422225,-3.310362931063184,0.22941267188836043,-5.027760689663679
2.8396171230315908,-3.429580685130583,0.17913506499172363,-5.102394944634246
2.805321316180285,-3.549827297125534,0.12811111554538118,-5.172022432944298
2.7698230432090294,-3.670778559493675,0.0763908912159382,-5.23624790955434
2.7331152576140925,-3.792121127780717,0.024028412120394797,-5.2946997619275695
2.6951940463362853,-3.9135571866663277,-0.0289185854988809,-5.34703420895832
2.656058474469622,-4.034808255964071,-0.0823889275884641,-5.392938139550636
2.6157103919099813,-4.155617855127624,-0.13631830898397046,-5.432130291805215
2.574154213358705,-4.275752783318397,-0.1906396119020226,-5.464360531630786
2.531396685525521,-4.395002827265012,-0.24528321721833046,-5.4894070645290824
2.487446657252871,-4.513178777095918,-0.3001772878636213,-5.507071501411822
2.442314869481912,-4.630108706163522,-0.3552480028777395,-5.5171717930146045
2.3960137824202765,-4.745632549447077,-0.4104197208078855,-5.519533142411477
2.3485574569258056,-4.859595091802885,-0.4656150522320003,-5.513977097046917
2.2999615060077767,-4.971837548771616,-0.5207548232024695,-5.500309108175509
2.2502431305200608,-5.0821879873128575,-0.5757579142842245,-5.478304926524136
2.199421250646932,-5.1904508922648525,-0.6305409635494659,-5.447696280662196
2.1475167417242838,-5.296396239131946,-0.6850179263560878,-5.408156363391968
2.094552779332964,-5.399748489315078,-0.7390994899900075,-5.359285737297496
2.0405552944398133,-5.5001759855432635,-0.7926923473629824,-5.300599369635911
1.9855535345843807,-5.597281298628939,-0.8456983410593415,-5.231515624174402
1.9295807215980914,-5.690593166301739,-0.8980134973010855,-5.151348175601352
1.872674789935074,-5.779560772701309,-0.949526979057099,-5.059301967749463
1.8148791822080608,-5.863551240460246,-1.0001199987345937,-4.9544744989367695
1.7562436698034583,-5.941851336492898,-1.0496647437239615,-4.835863863728575
1.6968251564385293,-6.0136745081487595,-1.0980233823612473,-4.702385072980326
1.6366884113570417,-6.078174436297786,-1.1450472330910506,-4.552896158144071
1.5759066669940638,-6.134466269826559,-1.1905761946724913,-4.386235368242691
1.5145620042957981,-6.181656531730162,-1.2344385483549183,-4.201270300956967
1.4527454389784964,-6.218882291543376,-1.276451251364488,-3.9969589823751703
1.3905566160630627,-6.245359516938672,-1.3164208411882397,-3.772421652212593
1.328103020893676,-6.260439508950187,-1.3541450577103655,-3.527020306775832
1.265498625804174,-6.263671006830951,-1.3894152607781238,-3.260440985315679
1.2028619157358644,-6.254864028025903,-1.4220196706312807,-2.9727715878000596
1.1403132754556053,-6.234150013285279,-1.4517473865092811,-2.664566086552734
1.0779717753227525,-6.202031723265368,-1.4783930473748086,-2.3368848918884786
1.0159514580900988,-6.159415999595187,-1.5017618962936934,-1.9913014523361414
0.9543572980941469,-6.107623343564031,-1.5216749108170549,-1.6298673782090334
0.8932810646585067,-6.048370475369166,-1.5379735845991451,-1.2550325737390913
0.832797359904815,-5.983725478576255,-1.550523910336536,-0.8695225942538312
0.7729601051190524,-5.916039271354142,-1.5592191362790744,-0.4761816684901583
0.713799712405511,-5.847861124625573,-1.5639809529639759,-0.07779511309160264
0.6553211011592552,-5.781848835526511,-1.564758904094892,0.32309217901018367
0.5975026128039901,-5.7206852693803105,-1.56152798230479,0.7243447463292761
0.540295760110187,-5.667012108790756,-1.5542845348414973,1.1243801087722687
0.4836256390222794,-5.623389169063332,-1.5430407337537746,1.5222797591439503
0.4273917473316461,-5.592284352663701,-1.5278179361623352,1.9178673403436126
0.3714689038050091,-5.576096149745885,-1.5086392627588991,2.3117601662707936
0.3157079423075502,-5.577208304289067,-1.4855216610961912,2.705405207051381
0.25993585926465956,-5.598075246717361,-1.4584676090256774,3.1011137467868384
0.20395510679748596,-5.641337100594132,-1.427456471557809,3.5021102012515284
0.14754173579154464,-5.709964007327516,-1.3924353695452938,3.9126102332841772
0.09044209571826949,-5.807430085023195,-1.353309267212452,4.337940958637165
0.032367794868037536,-5.937915266800445,-1.3099298576260805,4.784709597861015
-0.02701135779996692,-6.106523416968973,-1.2620827616474704,5.2610100530236465
-0.08807659196965666,-6.319475278795857,-1.209472661117234,5.776613032879191
-0.15127134475761522,-6.584155373310227,-1.151706530788442,6.342973484265487
-0.2171128984907175,-6.9086922396018435,-1.088276795945787,6.9726105344602605
-0.2861998208867359,-7.300271703278794,-1.0185506906011845,7.676746446235556
-0.35920253791952383,-7.760319665150271,-0.9417832261388289,8.458606307996744
-0.43680573457102656,-8.27278972089554,-0.8571971630588615,9.297118748406326
-0.5195336317799819,-8.780672063632656,-0.7642259755747982,10.11418043518685
-0.6073403524163085,-9.15615891300817,-0.6630841712229297,10.733077418627296
-0.6989019415463902,-9.215170878361551,-0.5557533970366568,10.899030429762286
-0.7910536503300057,-8.858138165427123,-0.446763092739034,10.476206610121546
-0.879635031984277,-8.212435734306762,-0.3420010266378185,9.645890360444481
-0.9617593893273446,-7.502650769887934,-0.2455421230333737,8.723721710180719
-1.036785897026224,-6.858926393259623,-0.1583049059315665,7.892423293119127
-1.1053751609588203,-6.312943847433853,-0.07938067300037521,7.197222864309001
-1.1685045994331589,-5.856224521265064,-0.0074084443572852016,6.627462801640282
-1.2270668446458095,-5.471584223620507,0.05886618365911761,6.16040247346587
-1.2817826868820146,-5.143056164518675,0.12047020839377631,5.77499465205589
-1.3332132485272012,-4.857859343490874,0.1782201549143352,5.454614115886037
-1.38179184196211,-4.606163818144353,0.23276629607319557,5.18673595347878
-1.4278534801435536,-4.380441620585059,0.28463365560798337,4.962040820468554
-1.4716578963494042,-4.174871693002536,0.3342540638126689,4.773592088734734
-1.5134066132794297,-3.9848843121304256,0.38198998470001627,4.616200135848093
-1.553255456400734,-3.806832832167838,0.4281519860584972,4.485954260131763
-1.5913237847224122,-3.637763679501213,0.47301152865981483,4.379879291406913
-1.6277014215174244,-3.4752590067067,0.516810321573884,4.2956785317106885
-1.6624540115844915,-3.317333230594016,0.5597671068909909,4.23153389860564
-1.6956273438904317,-3.1623705035069225,0.6020824458770473,4.185942344200632
-1.7272510489255009,-3.009094207207113,0.6439418693190536,4.157574047866837
-1.757341990997572,-2.8565618740935292,0.685517609797722,4.145143058886763
-1.7859076097385074,-2.704179697922307,0.7269690403865896,4.147285724712716
-1.8129494067177305,-2.55173013327079,0.7684418976337167,4.162446980764703
-1.8384667080504384,-2.399404187934099,0.8100663674413637,4.188779696238974
-1.8624607499297794,-2.2478273015309567,0.8519541644037535,4.22406756838845
-1.8849390229450889,-2.098065027558059,0.8941948400876379,4.26568662777785
-1.9059196732206694,-1.9515934995725033,0.9368517063654165,4.3106225482655045
-1.9254356082163944,-1.8102216661018704,0.9799579318480716,4.355558405682585
-1.9435378248774131,-1.6759590920840368,1.0235135159048974,4.397038412100143
-1.9602974157982536,-1.550834988338743,1.0674839000258989,4.4316974096744755
-1.975805765681641,-1.436688854232629,1.1118008741226437,4.456526724679464
-1.9901726542239673,-1.3349658959842554,1.1563661413694384,4.469130907928151
-2.00352231318381,-1.2465553692120614,1.20105745044872,4.467924600056081
-2.0159878668759306,-1.1717033998116126,1.2457366964492806,4.4522289148804095
-2.027704900874047,-1.1100147275332781,1.2902589855980848,4.422250395217032
-2.0388050481493796,-1.0605363169281798,1.3344814895502553,4.378954252824454
-2.0494104113186613,-1.0218980257731016,1.3782710320784999,4.323866457904369
-2.0596293915763924,-0.9924773282393301,1.4215096966575436,4.258848948605937
-2.069554164858786,-0.9705573799348319,1.4640981861436029,4.185888080457388
-2.079259738658134,-0.9544571154490914,1.5059570669481768,4.106923275296459
-2.088804309812625,-0.9426236184167607,1.5470262997011412,4.023727348759123
-2.0982305459967927,-0.9336867301131585,1.5872635731887326,3.9378373313426116
-2.1075674132979243,-0.9264819372905301,1.6266419465021587,3.8505269588407796
-2.1168322326708298,-0.9200500495037673,1.6651472160905665,3.762809148923277
-2.1260327331658675,-0.9136220709235731,1.7027753075797993,3.6754572350339396
-2.135168953875103,-0.9065961974418195,1.7395298799301386,3.5890358729413685
-2.144234915849521,-0.898511965537951,1.7754202386595523,3.5039351442019595
-2.1532200355049005,-0.8890248027745726,1.8104595901015719,3.420403749835143
-2.162110283532646,-0.8778828228376032,1.8446636275999233,3.33857902850059
-2.170889111761022,-0.8649067132648369,1.8780494178849292,3.258512813334038
-2.1795381788936705,-0.8499729258839642,1.9106345460182697,3.1801929477302724
-2.18803790815251,-0.8330000110962867,1.9424364754955723,3.1035607351990024
-2.196367908263473,-0.8139377529207832,1.9734720828475623,3.0285248161369562
-2.2045072857926806,-0.7927586941760376,2.0037573310089316,2.9549720347569353
-2.212434872734441,-0.7694516413111717,2.033307051356501,2.882775846158766
-2.220129389147553,-0.7440167735483098,2.0621348098180885,2.811802758378196
-2.227569556883036,-0.7164620308567987,2.0902528374018705,2.741917232755363
-2.234734177191604,-0.6868005080816972,2.117672009729424,2.672985392616742
-2.241602182272421,-0.6550486320869695,2.1444018636555917,2.60487782248506
-2.2481526685932907,-0.6212249422442169,2.1704506418804423,2.5374716809788627
-2.254364918015733,-0.5853493311647273,2.195825358690231,2.470652300987071
-2.26021841132738,-0.5474426324533089,2.2205318817001016,2.4043144101073213
-2.265692837651913,-0.5075264661735671,2.2445750258011747,2.338363071669769
-2.270768102313649,-0.46562327155394345,2.267958656517872,2.2727144207167744
-2.2754243350291885,-0.42175647113940484,2.29068580072504,2.20729624890011
-2.2796418997405827,-0.37595072193806817,2.312758763214041,2.142048476351674
-2.2834014069599635,-0.32823221784968953,2.334179247977558,2.0769235363064222
-2.2866837291384603,-0.2786290144026867,2.354948483340622,2.0118866888952787
-2.2894700192824873,-0.22717135206755912,2.3750673502295747,1.9469162735137706
-2.291741732803163,-0.1738919585586256,2.3945365129647125,1.8820039040619727
-2.2934806523887494,-0.11882631389922589,2.4133565520053324,1.8171546077916323
-2.2946689155277418,-0.06201286485141993,2.4315280980832488,1.7523869062081059
-2.295289044176256,-0.0034931777814558446,2.44905196714533,1.6877328352319738
-2.2953239759540707,0.05668797872355968,2.4659292954976495,1.6232379014389655
-2.294757096166835,0.11848262806814235,2.482161674512039,1.5589609715033792
-2.2935722698861536,0.18183966125556805,2.497751284227073,1.4949740928227468
-2.291753873273598,0.24670499650714922,2.5127010251553004,1.4313622445655032
-2.2892868233085264,0.3130218236282972,2.5270146476009554,1.3682230199344232
-2.2861566050722435,0.38073093205081215,2.5406968778002996,1.3056662421624183
-2.2823492957517355,0.4497711197734505,2.553753540221924,1.2438135185514698
-2.277851584554001,0.5200796788356147,2.5661916754074388,1.1827977386412958
-2.2726507877656448,0.5915929515120241,2.5780196527938517,1.122762524278588
-2.2667348582505245,0.664246950123955,2.5892472780366376,1.0638616408934805
-2.260092388749285,0.7379780322322964,2.5998858944455723,1.0062583806364962
-2.252712608426962,0.8127236220089264,2.6099484782519373,0.9501249291597633
-2.2445853722068727,0.8884229677688852,2.619449727543535,0.8956417287247865
-2.2357011425291837,0.9650179249750065,2.628406144830783,0.8429968509759682
-2.226050963279434,1.0424537534853182,2.6368361133405425,0.7923853931266887
-2.215626425744581,1.1206799173878912,2.6447599672718094,0.7440089114528143
-2.2044196265707017,1.1996508754458597,2.6522000563863375,0.6980749058607792
-2.192423117816243,1.2793268499473143,2.659180805444945,0.6547963688697387
-2.17962984931677,1.359674561612743,2.6657287691336427,0.6143914115875216
-2.166033103700643,1.4406679181487274,2.671872683249518,0.5770829781294325
-2.1516264245191556,1.5222886440400674,2.6776435130308123,0.5430986583850325
-2.136403538078755,1.604526839226856,2.6830744996146625,0.5126706070387221
-2.1203582696864864,1.6873814543925663,2.6882012056850497,0.4860355742572533
-2.103484455142561,1.7708606706565408,2.6930615614276223,0.46343505044070477
-2.0857758484359956,1.8549821714688424,2.6976959119320294,0.44511552387214454
-2.067226026721307,1.939773294383705,2.702147067170751,0.4313288459846209
-2.0478282937774703,2.025271050065251,2.706460355630597,0.4223326942911233
-2.0275755832768176,2.1115219952738795,2.710683682573508,0.418391117799733
-2.006460363324079,2.198581945610249,2.714867593751505,0.4197751439727403
-1.9844745438679765,2.2865155123777927,2.7190653451912326,0.42676341999734124
-1.9616093887441985,2.375395445999334,2.723332979391206,0.439642854329795
-1.9378554342842051,2.4653017659464593,2.727729407934504,0.45870921717015256
-1.9132024166247406,2.5563206541020493,2.7323165001062057,0.4842676507439071
-1.88763921008372,2.6485430849103415,2.7371591766136447,0.51663303205056
-1.8611537792346167,2.742063161663081,2.7423255069341503,0.5561301221598592
-1.833733147617986,2.836976123979536,2.747886808155749,0.6030934273200204
-1.8053633863781906,2.933375987196765,2.753917742428949,0.6578666882930934
-1.776029626506223,3.0313527703215652,2.76049640931188,0.7208019057645159
-1.7457160988030074,3.130989265839228,2.767704428369525,0.7922578018427352
-1.714406206144615,3.2323573025741585,2.7756270063879525,0.8725976112013998
-1.6820826331188734,3.3355134526217385,2.7843529824999664,0.9621860911544996
-1.648727498592656,3.4404941359047947,2.7939748434115113,1.061385638946609
-1.6143225572336082,3.5473100820368355,2.8045886998009775,1.1705514080547028
-1.5788494564132398,3.6559401198462353,2.8162942138815246,1.2900253247863729
-1.5422900552147774,3.766324281080263,2.8291944671293883,1.4201289234814063
-1.5046268124039748,3.8783562273233056,2.8433957563642025,1.5611549447206938
-1.4658432501307417,3.9918750386716004,2.8590073058114096,1.713357677453746
-1.4259244997440257,4.106656439479515,2.876140882585947,1.8769420737564397
-1.3848579353492305,4.22240358026346,2.8949103033235115,2.052051724159446
-1.3426338995465958,4.3387375446528536,2.915430820565106,2.238755851222497
-1.2992465241000672,4.455187804331883,2.937818379077331,2.4370355570169897
-1.2546946460567485,4.57118290060316,2.962188734647501,2.6467696426794727
