th1 (rad),w1 (rad/s),th2 (rad),w2 (rad/s)
6.129282476563568,2.5236629473661756,6.143960944063253,-0.6424850924843754
6.15451910603723,2.541102024638799,6.13753609313841,-0.6472571583102924
6.179930126283618,2.5508595403679815,6.131063521555307,-0.6416934821857024
6.2054387216872975,2.5528483194172202,6.12464658673345,-0.6256509550524355
6.23096720488147,2.5471289537101365,6.118390077182926,-0.5992189288735774
6.256438494418571,2.5339051054718147,6.11239788789419,-0.5627134207659021
6.28177754547329,2.5135081826809094,6.106770753686531,-0.5166553751319448
6.306912627300099,2.486373498774967,6.1016041999352115,-0.4617359814895275
6.331776362287848,2.453011109705253,6.096986840120317,-0.3987736455481653
6.356306473384901,2.413974910127321,6.092999103664835,-0.32866781764120606
6.380446222486174,2.369833270941216,6.089712425488423,-0.25235449410615124
6.404144555195587,2.3211437003328608,6.0871888805473615,-0.1707670868428347
6.427355992198915,2.2684329854087144,6.0854812096789335,-0.08480489640299255
6.4500403220530025,2.2121832808130373,6.084633160714904,0.00469000250696161
6.472162154861133,2.152823829231111,6.084680060739974,0.09694779266861703
6.493690393153444,2.0907274980745716,6.08564953866666,0.19127893514349567
6.51459766813419,2.026211084771504,6.087562328018095,0.28707661008410973
6.534859778981905,1.9595383196261391,6.090433094118936,0.3838150664251065
6.554455162178166,1.8909246052029203,6.094271244783187,0.4810452317141424
6.573364408230195,1.8205427073157914,6.099081697100328,0.5783886958820279
6.591569835303353,1.7485288054342072,6.104865584059148,0.6755309166999482
6.609055123357695,1.674988489156275,6.1116208932261475,0.7722142445806486
6.625805008249258,1.6000024374566892,6.119343035671954,0.8682311526349976
6.641805032623825,1.5236316345377987,6.128025347198304,0.9634178914507692
6.657041348969203,1.4459220624138074,6.137659526112811,1.0576486647106083
6.671500569593341,1.3669088709052888,6.148236012759917,1.150830334865362
6.685169658302394,1.286620066393138,6.159744316108571,1.2428976096052544
6.698035858966326,1.2050797869933212,6.172173292204624,1.3338086221473406
6.710086656836259,1.1223112483869977,6.1855113784260976,1.4235407948507122
6.721309769320128,1.0383394549521965,6.199746786374605,1.5120868612432625
6.73169316386965,0.9531937776685023,6.214867654987037,1.599450912423588
6.741225101646335,0.8669105051846024,6.230862164111273,1.685644327453001
6.749894206698181,0.779535478330155,6.247718607385803,1.7706814423524875
6.757689561481482,0.6911269213435342,6.2654254218093275,1.8545748083019546
6.764600830694917,0.6017585845153652,6.283971169892347,1.9373298873434468
6.770618416540071,0.5115233112514215,6.303344468765781,2.0189390353289642
6.775733649652585,0.4205371350670891,6.32353385911907,2.09937463060649
6.779939021003256,0.3289439946859509,6.344527605425135,2.178581228548335
6.783228460950116,0.23692112249297176,6.366313417710619,2.256466664438878
6.7855976721750455,0.14468510546072433,6.3888780843550075,2.3328921011320367
6.787044523229652,0.05249852888200235,6.412207005366328,2.4076611366158858
6.787569508518472,-0.03932301873723215,6.436283616732487,2.48050826528318
6.7871762783311,-0.13040398619994292,6.461088699385319,2.551087239610903
6.785872238469101,-0.2203025952467453,6.4865995717814275,2.6189602145062167
6.783669212516633,-0.3085062167516807,6.51278917392649,2.6835889686404824
6.780584150349116,-0.3944296560736663,6.5396250636128945,2.7443299524510207
6.77663985378838,-0.47741791094687,6.5670683631374045,2.8004353358659118
6.771865674678911,-0.5567551369554682,6.595072716496063,2.8510624903360933
6.766298123309356,-0.6316814706686696,6.623583341399424,2.895294254840675
6.759981308602669,-0.7014188666507302,6.652536283947831,2.9321716915924263
6.752967119936162,-0.7652060800836522,6.681858000863755,2.9607396611976835
6.745315059135326,-0.8223413593549652,6.711465397475732,2.9801034146169036
6.737091645541776,-0.8722294868091621,6.741266431621901,2.989491755874328
6.728369350673685,-0.9144279470608476,6.771161349180645,2.9883197553767133
6.719225071203076,-0.9486858198302446,6.801044546734412,2.976242325067908
6.709738213004774,-0.9749690828686844,6.83080696998509,2.9531900252664345
6.699988522176087,-0.9934676647424854,6.860338870237754,2.919380672475146
6.690053845528662,-1.0045825719254495,6.889532676962506,2.8753043451713145
6.680008019809407,-1.008894959145936,6.918285720414219,2.821684191457167
6.669919070217948,-1.007122087189835,6.94650256232879,2.75941962235882
6.65984784934605,-1.0000668642627886,6.9740967585523785,2.689520859398522
6.649847180703421,-0.9885677609209983,7.000991967146364,2.6130439375986207
6.639961503094211,-0.9734545779546794,7.02712240652235,2.5310334923257893
6.630226957314664,-0.9555134661102181,7.0524327414456085,2.4444778468268153
6.620671822653562,-0.9354624406674334,7.076877519913877,2.354278012268744
6.611317198246888,-0.913936905013778,7.100420300036564,2.2612298938773057
6.602177829196751,-0.8914836128347693,7.123032598975337,2.1660175556949968
6.593262993068403,-0.8685610354489602,7.144692774532287,2.069214796117725
6.584577382713913,-0.8455441024445403,7.165384922493464,1.9712923101362863
6.576121941689468,-0.8227315600647406,7.185097845594827,1.872628102552001
6.567894626088821,-0.8003545816972647,7.203824126620347,1.7735193512007488
6.559891080271848,-0.7785856596499883,7.2215593201323545,1.6741944545186824
6.5521052236753485,-0.7575471485657815,7.238301264677541,1.5748244561670761
6.544529752189691,-0.7373190966301789,7.254049509239212,1.4755333933280292
6.537156561223389,-0.717946191691355,7.268804843172492,1.376407366875995
6.529977099306476,-0.6994437768153876,7.282568916841252,1.2775022971968046
6.522982661538322,-0.6818029682232233,7.29534393981322,1.178850429308259
6.516164631856089,-0.6649949518769794,7.307132444106303,1.0804657042074373
6.509514682337319,-0.6489745546718393,7.317937101148377,0.9823481356300686
6.503024936790601,-0.633683190932582,7.327760582504678,0.8844873343643399
6.496688104881275,-0.619051280883175,7.336605455848321,0.786865314157014
6.490497592072443,-0.6050002291122587,7.344474108989892,0.689458699577673
6.48444758978132,-0.5914440404595009,7.351368695985668,0.5922404404393153
6.478533149376725,-0.5782906398094525,7.357291100390062,0.49518112157457483
6.4727502429786306,-0.5654429519068559,7.362242911605807,0.39824994206495135
6.467095813459562,-0.5527997879525989,7.3662254110264564,0.3014154249493489
6.461567815580036,-0.5402565775759559,7.36923956527595,0.20464590717177317
6.456165249804276,-0.5277059778178603,7.371286024347667,0.10790985003590042
6.450888190026098,-0.5150383849270255,7.372365122848026,0.0111760025813811
6.445737806176828,-0.5021423699523452,7.37247688287384,-0.08558655609524214
6.440716382477304,-0.48890505518752325,7.371621017312887,-0.1824084746688488
6.435827331925429,-0.47521244536994844,7.3697969325661985,-0.2793202706711324
6.4310752074717294,-0.46094972505343146,7.367003729859487,-0.37635254100101
6.426465710221195,-0.4460015316815536,7.363240204449477,-0.47353623025426034
6.42200569490438,-0.43025221252541973,7.358504842146934,-0.5709029467481822
6.417703172779126,-0.4135860727806676,7.352795812679452,-0.6684853169110163
6.413567312051319,-0.39588762173273434,7.346110959510342,-0.7663173688360322
6.4096084358339915,-0.37704182401235997,7.338447785821981,-0.8644349352550829
6.405838017593868,-0.3569343636201917,7.3298034364694304,-0.9628760649157714
6.402268673957666,-0.3354519296784948,7.320174675820272,-1.061681429255481
6.398914154660881,-0.31248253488662747,7.3095578615277175,-1.1608947082072554
6.395789329312015,-0.28791588057882517,7.297948914445645,-1.2605629347362353
6.392910170506227,-0.26164378632799523,7.285343285098283,-1.36073677200238
6.390293732642947,-0.23356070749623928,7.271735917378259,-1.4614706894904468
6.387958125567985,-0.203564371373374,7.257121210483355,-1.5628229945380763
6.385922481854251,-0.17155657203972768,7.241492980537974,-1.6648556627799538
6.384206916133853,-0.13744417642499737,7.224844423910175,-1.7676338942931091
6.382832474369603,-0.10114040992393603,7.207168084967243,-1.8712253006661517
6.381821070270363,-0.06256651021216979,7.188455831960582,-1.9756986006138852
6.381195405168241,-0.02165386352348595,7.1686988459544425,-2.0811216667317156
6.380978866533006,0.02165323042717575,7.147887629287125,-2.1875587220556993
6.381195398837278,0.06739397963073522,7.126012042066568,-2.2950664309054294
6.381869338633585,0.11558647526458599,7.103061377757514,-2.403688563212748
6.383025203386231,0.16622173622923944,7.079024492125386,-2.5134488356554843
6.384687420748524,0.21925607993048646,7.0538900037688315,-2.6243414495366153
6.386879981547828,0.27460142113459624,7.027646589273465,-2.7363187624412593
6.389625995759174,0.33211306014195957,7.000283401649053,-2.849275464561673
6.392947126360594,0.39157451822143113,6.971790647003436,-2.96302861097063
6.396862871542809,0.45267904966094147,6.9421603608937295,-3.077292938269512
6.401389662039419,0.5150076641123732,6.911387431511034,-3.1916511468506727
6.406539738680543,0.5780039138606727,6.879470920042528,-3.3055193731032144
6.41231977781915,0.6409464466222076,6.846415726311496,-3.4181090591276093
6.418729242285372,0.7029215129417701,6.81223463572022,-3.528388015653087
6.42575845741479,0.7627993294853729,6.776950755563689,-3.635045785534307
6.433386450709643,0.8192203872220865,6.740600297708347,-3.7364713957398066
6.441578654581864,0.8706001272831502,6.703235583750948,-3.830754798932693
6.450284655854696,0.9151620950067529,6.664928035761621,-3.9157256822115465
6.459436276804763,0.9510093699327137,6.625770778939505,-3.989043016534726
6.46894637050409,0.9762400511295086,6.5858803487741575,-4.048343401374996
6.478708771015386,0.9891035896165671,6.545396914760407,-4.091444182495537
6.488599806911552,0.9881813738273534,6.504482472935452,-4.116579245831642
6.498481620649825,0.9725609110674484,6.463316680477136,-4.122626384638803
6.508207229760499,0.9419648448008598,6.4220904166307475,-4.109274250444716
6.517626878208508,0.8968004361162679,6.3809976741263,-4.077083009443605
6.52659488256967,0.8381135900555903,6.340226844031864,-4.0274179897101225
6.534976018470226,0.7674577325758414,6.299952664134763,-3.962271122889521
6.542650595795984,0.6867103430755332,6.2603299529058685,-3.884015132811817
6.549517699226739,0.5978791495942225,6.22148980157775,-3.795147273666223
6.555496490722682,0.5029340773264533,6.183538328841088,-3.6980707395934664
6.560525831495946,0.40368575790150696,6.146557621445154,-3.594940725825139
6.564562689074961,0.3017150501371382,6.110608214186902,-3.4875798931810995
6.567579839576332,0.1983464130746912,6.075732415255091,-3.377452505650014
6.5695633037070795,0.09465273808316295,6.041957890198591,-3.2656798183346267
6.570509831087911,-0.008520972875409843,6.009301092015245,-3.1530793848968934
6.570424621359157,-0.11052522940211953,5.977770298166276,-3.0402145822689417
6.569319369065136,-0.21087190129471986,5.947368152343587,-2.92744517656671
6.567210650052188,-0.30920234861194873,5.91809370057792,-2.8149737041729277
6.564118626566069,-0.40525977278434216,5.889943963536191,-2.702885301302259
6.560066028838225,-0.49886636928962635,5.8629151105231685,-2.5911804160601615
6.555077365145329,-0.5899050948873581,5.837003306362567,-2.479800825026139
6.549178314196455,-0.6783054958425456,5.812205298112305,-2.368649823155099
6.542395259238029,-0.7640329203823274,5.788518799880754,-2.2576075808527483
6.534754930034206,-0.8470804478751582,5.765942724072227,-2.146542617484765
6.5262841255554545,-0.9274629386797982,5.7444772978973795,-2.035320220943777
6.517009496168656,-1.0052127016244319,5.724124095687942,-1.9238085018659308
6.506957369152412,-1.0803763692197765,5.7048860106692825,-1.8118826360381897
6.496153605460214,-1.1530126540933718,5.6867671843089,-1.6994277313456825
6.48462347891928,-1.2231907302826421,5.669772906995443,-1.5863406597018201
6.472391571616454,-1.2909890397417065,5.653909500398425,-1.4725311190316905
6.459481681219037,-1.3564943689594977,5.639184189208109,-1.3579221330399904
6.445916737529442,-1.4198010746885057,5.625604967877709,-1.242450154224297
6.431718726782558,-1.4810103631622598,5.613180466335466,-1.1260649055919103
6.416908623150936,-1.5402295453197548,5.601919817279547,-1.0087290764279007
6.401506327697738,-1.5975712026355016,5.591832526515268,-0.8904179753653026
6.3855306156713825,-1.6531522050494456,5.582928346761615,-0.7711192385268897
6.3689990936208885,-1.7070925248070268,5.575217154376346,-0.6508326906629154
6.351928168372818,-1.7595137881433398,5.568708827469717,-0.5295704623639432
6.3343330304913845,-1.8105375009083406,5.563413122846077,-0.407357476196144
6.316227655482301,-1.8602828745867428,5.5593395480841155,-0.28423242873986576
6.297624826736434,-1.9088641658995869,5.5564972237967165,-0.16024941374995216
6.278536185077438,-1.9563874266490695,5.554894729659217,-0.03548035350809266
6.258972310810947,-2.0029465414599112,5.554539926124136,0.08998157013910273
6.238942845396347,-2.0486184111124235,5.555439741825527,0.2160172686479892
6.218456661285223,-2.09345712105776,5.557599914512007,0.34247564557320226
6.197522090074645,-2.137486923264138,5.561024670967739,0.46916579170357914
6.176147220842004,-2.18069386258421,5.565716328884775,0.5958472361022433
6.154340282216162,-2.223015908456796,5.5716748012457975,0.7222180592581715
6.132110123131594,-2.264331526734386,5.578896981838379,0.8479007832950594
6.10946680786425,-2.3044467693277664,5.5873759896713295,0.9724261590092389
6.086422340170972,-2.3430812024730283,5.597100251261422,1.0952153136542144
6.062991528146242,-2.379853372819847,5.608052404397964,1.2155612551189898
6.039192994418043,-2.4142670544785174,5.620208016949154,1.3326114886653577
6.0150503238732576,-2.4457002372908705,5.633534131835807,1.445354500813668
5.990593321500349,-2.473399661606876,5.647987676843944,1.552614035858494
5.9658593248842795,-2.496484537248733,5.663513817202529,1.653056234839342
5.940894479511792,-2.513963625091341,5.680044379550922,1.7452154318259145
5.915754843260879,-2.524769676256703,5.697496533869181,1.8275441017151102
5.890507146498312,-2.5278137948177903,5.715771974886332,1.8984903995113436
5.865229008550134,-2.5220592046906374,5.734756878881445,1.9566023563443098
5.8400084165032276,-2.5066092043116566,5.754322902444888,2.000651179364516
5.814942324460111,-2.480798649982349,5.774329414238533,2.029758475916583
5.790134337960287,-2.4442739131809117,5.794626998997699,2.0435061201357714
5.765691598828479,-2.397045141676016,5.815062060199057,2.042006041307766
5.7417211474117185,-2.339498373400372,5.835482120612134,2.025912603058974
5.718326163677715,-2.2723632738180877,5.855741246642724,1.99637195498365
5.695602530939534,-2.196642423923102,5.87570496619256,1.9549171182345568
5.673636106700303,-2.113516446090087,5.895254137374906,1.9033293372363793
5.652500942239402,-2.0242428843467755,5.91428743074727,1.8434912630103248
5.632258513395934,-1.9300650001273554,5.932722343377373,1.7772549366912536
5.61295786339466,-1.83214113695913,5.950494892744286,1.7063396518193994
5.594636452025069,-1.7314987101600914,5.967558289262479,1.6322653715651327
5.577321464923468,-1.6290114281760215,5.98388094297813,1.556319629514214
5.5610313506417075,-1.525395104601019,5.9994441392732725,1.4795512350757487
5.545777399595697,-1.4212163200569154,6.01423965162403,1.4027825520844646
5.531565236395128,-1.3169085878720135,6.028267477144875,1.3266326904023777
5.518396150516407,-1.2127918138822182,6.041533804048899,1.2515455745684312
5.506268232377585,-1.1090921454914136,6.054049259794583,1.177818716470978
5.495177310922671,-1.005960453639334,6.065827446959293,1.105630159313777
5.485117706386277,-0.9034885594435732,6.076883748552431,1.035062301388622
5.4760828207918415,-0.8017229021210966,6.087234371566318,0.9661221460522184
5.468065591770631,-0.7006756981156603,6.09689559302684,0.898758032208657
5.461058834789474,-0.6003338280400436,6.105883173348927,0.832873169636633
5.455055496509074,-0.5006657658664773,6.114211905045293,0.7683364178047724
5.4500488388504085,-0.40162687771579925,6.121895269223341,0.7049907679462057
5.446032570073251,-0.3031633958242198,6.1289451769028025,0.6426599591993046
5.443000936115008,-0.20521533600245223,6.135371776494796,0.581153607997913
5.440948782754984,-0.10771858546415469,6.141183312574775,0.5202711718410095
5.439871596900343,-0.010606348412766628,6.146386024293185,0.4598050129164883
5.439765533416215,0.08618989784219036,6.150984074422349,0.3995427780494361
5.440627432394637,0.18273981214175022,6.154979502202844,0.3392692707007643
5.442454830516054,0.2791138626366232,6.158372194909852,0.27876795846462904
5.44524596914242,0.375383179297027,6.161159874494498,0.21782223526953504
5.448999800935391,0.47161951289728476,6.163338096847193,0.15621654065118684
5.453715996064363,0.5678952344505164,6.164900262253704,0.09373742846502742
5.459394948408868,0.6642833113722866,6.165837636538354,0.030174673865627874
5.466037781522592,0.7608571944947945,6.16613938327701,-0.03467748981667533
5.473646353467539,0.8576905433097308,6.165792608378844,-0.10101890334621863
5.482223258900636,0.9548567051455515,6.164782419345381,-0.1690416657195906
5.491771825952092,1.052427846836844,6.1630920026881855,-0.23892782881318875
5.50229610442046,1.1504736141113765,6.160702724400053,-0.3108464283871146
5.513800840561574,1.2490591636298878,6.157594260116182,-0.38494963473895333
5.526291432197873,1.348242374714222,6.153744763768793,-0.46136775316155665
5.539773855945015,1.4480700021175945,6.149131086237177,-0.5402027405201207
5.554254555966191,1.5485724786518675,6.143729058831976,-0.6215198312236893
5.569740280752709,1.649757020159723,6.137513860519739,-0.7053367882280663
5.586237850954307,1.7515986320942774,6.130460492637458,-0.7916102225688981
5.603753837275249,1.85402858010966,6.122544390411769,-0.8802183775055645
5.622294123076346,1.9569198898503015,6.113742206636713,-0.9709397841516108
5.641863321974848,2.060069521529547,6.104032808795197,-1.0634273188548649
5.6624640171901435,2.1631770806100783,6.0933985356066485,-1.1571775108884699
5.684095787996244,2.2658203575431903,6.081826760497764,-1.2514955768483569
5.706753991571676,2.3674287370102913,6.0693118047292804,-1.3454577371407885
5.730428278941779,2.4672566802443896,6.055857227357873,-1.4378740408171105
5.755100845744223,2.5643611136244835,6.041478486949702,-1.527257257915292
5.780744456880468,2.6575885621056137,6.026205914370549,-1.6118062612282993
5.807320342501524,2.7455798770575806,6.010087851758266,-1.6894151817755831
5.8347761412720995,2.8268016315845363,5.993193699940511,-1.7577213521084172
5.863044157587945,2.899612443901364,5.975616486419426,-1.8142038696180565
5.892040282026959,2.9623682189536193,5.9574744477232455,-1.8563384925077253
5.921663964216495,3.0135617590768873,5.9389110627981685,-1.8818023658537326
5.951799581807264,3.0519803719812035,5.920093039139632,-1.8887051593052577
5.982319385527076,3.07685366090559,5.901205987546579,-1.8758067832065124
6.013087922136132,3.0879583155534536,5.882447919714513,-1.8426740454544874
6.043967505291667,3.085652310417264,5.864021179259969,-1.7897363876342969
6.074824028395839,3.070827696543132,5.846123815383626,-1.7182246023077141
6.105532305361271,3.044793115466504,5.828941569360548,-1.6300076884286359
6.135980236515936,3.009114842116667,5.812641492476262,-1.5273683742468152
6.166071384937102,2.9654515027165784,5.797367808733793,-1.41276721545694
6.195725899964268,2.9154119187231435,5.783240136579224,-1.2886374526061386
6.2248800191515,2.860452759017592,5.770353762053162,-1.15723491782309
6.253484546741675,2.8018193911969433,5.7587814128749315,-1.0205484717459954
6.281502740653645,2.740523948597465,5.7485759281574715,-0.880263056429558
6.30890798013962,2.6773503599900996,5.739773297593176,-0.7377612216136711
6.335681483739521,2.612875837202209,5.73239568537704,-0.594148444866862
6.361810242111543,2.5475002579098063,5.726454200928371,-0.4502901747335738
6.3872852446906405,2.481477486207618,5.721951299181035,-0.30685212444909993
