th1 (rad),w1 (rad/s),th2 (rad),w2 (rad/s),a1 (rad/s^2),a2 (rad/s^2)
4.061075071319542,1.7593725345981943,6.147142919660909,-2.140761453349636,10.757675095836928,3.9366957131134535
4.078668796665524,1.8669492855565637,6.125735305127413,-2.1013944962185014,10.617368592234843,3.306760300519657
4.0973382895210895,1.973122971478912,6.104721360165228,-2.068326893213305,10.503348254532483,2.6529746148471816
4.117069519235878,2.0781564540242368,6.0840380912330945,-2.041797147064833,10.418142391300046,1.9747979930998627
4.137851083776121,2.182337877937237,6.063620119762446,-2.0220491671338343,10.364328153721486,1.2710879945944895
4.159674462555493,2.285981159474452,6.043399628091108,-2.0093382871878895,10.344617599860188,0.5400718496847005
4.182534274150238,2.3894273354730537,6.023306245219229,-2.0039375686910423,10.36195043221836,-0.2206962499215207
4.206428547504968,2.4930468397952374,6.003266869532318,-2.0061445311902575,10.419595094069567,-1.0143952467794297
4.231359015902921,2.5972427907359332,5.983205424220415,-2.0162884836580517,10.521260528894055,-1.8450180695677751
4.257331443810281,2.702455396024874,5.963042539383834,-2.0347386643537293,10.671221473388455,-2.717476801296233
4.28435599777053,2.809167610758758,5.942695152740297,-2.0619134323666914,10.87446061505219,-3.6377358488877904
4.3124476738781174,2.91791221690928,5.922076018416631,-2.0982907908555695,11.136831177403913,-4.612976644604058
4.34162679604721,3.0292805286833193,5.901093110508075,-2.14442055730161,11.46524324525197,-5.651796572071607
4.371919601334043,3.143932961135839,5.879648904935059,-2.200938523022326,11.867875911395972,-6.764442536600305
4.4033589309454015,3.2626117202497986,5.857639519704835,-2.268582948388329,12.35441416676094,-7.963074496464711
4.4359850481478995,3.386155861917408,5.834953690220952,-2.3482136933529763,12.93630258818118,-9.262043759897683
4.4698466067670735,3.51551888779922,5.811471553287422,-2.440834130951953,13.626993982287573,-10.678150167640112
4.505001795645065,3.651788827622096,5.787063211977903,-2.547615632628354,14.442144053003963,-12.230802627609842
4.541519683921287,3.7962102681521355,5.761587055651619,-2.6699236589044526,15.399651455024518,-13.941932634554327
4.579481786602808,3.950206782702381,5.734887819062575,-2.809342985249996,16.519345256107133,-15.835370653153605
4.618983854429832,4.1154002352634524,5.706794389210075,-2.9676966917815317,17.821940630858354,-17.93513663748904
4.660137856782466,4.293619641572036,5.67711742229226,-3.147048058156422,19.32655076369512,-20.261623117141077
4.703074053198186,4.486885149208987,5.645646941710695,-3.349664289327833,21.045444384150613,-22.82380212825432
4.747942904690277,4.6973395930504935,5.612150298817417,-3.5779023106103764,22.973703378141575,-25.604127190029743
4.794916300620781,4.9270766268319095,5.576371275711313,-3.833943582510674,25.06978206261638,-28.530477706829778
4.8441870668891,5.177774447458074,5.538031839886207,-4.119248359578972,27.220782844389444,-31.426435027716575
4.895964811363681,5.449982275901968,5.496839356290417,-4.433512709856138,29.18489519059838,-33.92931786545802
4.950464634122701,5.741831227807952,5.452504229191856,-4.772805888510718,30.50831958651153,-35.372430523812056
5.00788294640078,6.046914423673067,5.404776170306749,-5.126530193748839,30.43998592415863,-34.664926284458176
5.068352090637511,6.351314282914654,5.353510868369261,-5.473179456593421,27.93985701725174,-30.30540531054132
5.131865233466657,6.6307128530871715,5.298779073803327,-5.776233509698834,21.990612325480882,-20.826707564522373
5.198172361997528,6.8506189763419805,5.241016738706338,-5.984500585344057,12.39742660150573,-5.933863503573288
5.266678551760948,6.974593242357038,5.1811717328528974,-6.04383922037979,0.690702403218969,12.208994558117515
5.336424484184518,6.981500266389228,5.1207333406491,-5.921749274798615,-10.111906091994596,29.30358943306781
5.406239486848411,6.8803812054692814,5.061515847901114,-5.6287133804679375,-17.377496607838285,41.56174046330979
5.4750432989031035,6.706606239390899,5.005228714096434,-5.21309597583484,-20.461398293851545,47.98998644519337
5.542109361297013,6.501992256452383,4.953097754338086,-4.733196111382906,-20.369652550199362,49.94055697121923
5.6071292838615365,6.2982957309503895,4.905765793224257,-4.233790541670714,-18.501092619902586,49.34800154901218
5.67011224117104,6.1132848047513635,4.86342788780755,-3.7403105261805916,-15.904863320368868,47.67559864269387
5.731245089218554,5.954236171547675,4.826024782545744,-3.263554539753653,-13.179208587367327,45.761015900056655
5.7907874509340305,5.822444085674001,4.793389237148207,-2.805944380753086,-10.60958499507679,44.00229342626614
5.84901189179077,5.716348235723233,4.765329793340676,-2.365921446490425,-8.309535878326354,42.55170776088571
5.9061753741480025,5.633252876939969,4.741670578875772,-1.9404043688815675,-6.310155438246407,41.43980469463823
5.962507902917403,5.570151322557505,4.722266535186956,-1.5260063219351854,-4.607796763860935,40.641945129718586
6.0182094161429776,5.524073354918896,4.707006471967604,-1.1195868706379994,-3.1872448278133643,40.11093526633834
6.0734501496921665,5.492200906640762,4.695810603261225,-0.7184775179746161,-2.0321359645156374,39.79204848961461
6.128372158758574,5.471879546995606,4.688625828081479,-0.32055703307847006,-1.1291190246501241,39.62950567249378
6.18309095422853,5.4605883567491045,4.685420257750694,0.07573802364646776,-0.46903945036286865,39.56904152937616
6.237696837796021,5.4558979622454755,4.686177637987159,0.47142843894022934,-0.04673510819658249,39.55882654323757
6.292255817418475,5.45543061116351,4.6908919223765615,0.8670167043726051,0.13980372862933838,39.549828389105336
6.34681012353011,5.456828648449803,4.699562089420287,1.2625149882636584,0.0905555374801323,39.49611028815474
6.401378410014608,5.457734203824605,4.712187239302924,1.6574760911452058,-0.19530338374068734,39.35527098069888
6.455955752052854,5.455781169987198,4.728762000214377,2.051028800952195,-0.7181576135746196,39.08908042762018
6.510513563752726,5.448599593851451,4.7492722882238985,2.4419196052283967,-1.4767652203452855,38.66428482950436
6.56499955969124,5.433831941647998,4.773691484276182,2.8285624535234404,-2.4671808313511536,38.05351120070704
6.619337879107721,5.4091601333344865,4.801977108811417,3.2090975655305107,-3.6818418485239737,37.236181198668696
6.673429480441065,5.372341714849247,4.834068084466722,3.5814593775171977,-5.1088657118023555,36.19933977001413
6.727152897589558,5.321253057731224,4.869882678241894,3.943452775217339,-6.731598071024419,34.93831254784877
6.78036542816687,5.2539370770209795,4.909317205994068,4.2928359006958265,-8.528440794006332,33.45712299603596
6.832904798937079,5.168652669080916,4.952245565001026,4.627407130656186,-10.472976596356995,31.768621702732013
6.884591325627889,5.063922903117346,4.998519636307588,4.945093347683506,-12.534395480485525,29.894301737462154
6.9352305546590625,4.9385789483124904,5.047970569784423,5.244036365058127,-14.678217898359392,27.863792625334707
6.984616344142188,4.791796769328896,5.100410933435004,5.522674291311474,-16.86729989741357,25.714040513269655
7.032534311835477,4.623123770354761,5.155637676348118,5.779814696444171,-19.063094532243106,23.48819517505494
7.078765549539024,4.43249282503233,5.21343582331256,6.01469664819472,-21.227129374669357,21.23423883563871
7.123090477789347,4.220221531285636,5.273582789794507,6.2270390365511075,-23.322641097417335,19.00341043759283
7.165292693102203,3.986995120311463,5.335853180160019,6.417073140927036,-25.316286353342253,16.84850291962494
7.205162644305318,3.73383225677804,5.400023911569289,6.585558170123285,-27.179827862405805,14.822138040126074
7.242500966873099,3.462033978153982,5.465879493270522,6.733779550524546,-28.89168207839069,12.975147768722804
7.277121306654639,3.173117157370075,5.533217288775768,6.863531028211774,-30.43821639424695,11.355206137412289
7.3088524782283395,2.868734993427606,5.601852599057886,6.977083089585897,-31.81470351342022,10.005854374493566
7.337539828162615,2.5505879582934035,5.671623429953745,7.077141633330833,-33.02587792854623,8.9660420801495
7.36304570774555,2.2203291790079414,5.742394846287053,7.1668020541323285,-34.08608883982102,8.27026956886379
7.385248999535629,1.879468290609731,5.814062866828376,7.249504749820966,-35.01909534350318,7.9493664630162595
7.404043682441727,1.5292773371746993,5.886557914326586,7.328998414451129,-35.85759058031283,8.031885134777742
7.419336455813474,1.170701431371571,5.959847898471097,7.409317265798906,-36.64255740027854,8.546026460483073
7.4310434701271895,0.8042758573687855,6.033941071129086,7.494777530403737,-37.42253179307389,9.521940048301277
7.439086228700877,0.4300505394380466,6.108888846433124,7.58999693088675,-38.252755662699016,10.994119648983233
7.443386734095258,0.047522982811056436,6.1847888157419915,7.699938127376583,-39.19398717086206,13.00337218471927
7.443861963923369,-0.34441688889756417,6.261788197015758,7.829971849223775,-40.310298892745614,15.597317579545287
7.440417795034393,-0.7475198778250203,6.340087915507995,7.9859450250192285,-41.664307979171376,18.827251615109635
7.432942596256143,-1.164162957616734,6.419947365758188,8.174217541170325,-43.306493241865795,22.736824717522396
7.421300966679976,-1.597227890035392,6.501689541169891,8.40158578834555,-45.25169750828263,27.333123237632606
7.405328687779622,-2.0497448651182184,6.585705399053347,8.674917020721876,-47.429201196276324,32.521381003342064
7.38483123912844,-2.524036877080982,6.672454569260566,9.000130830755298,-49.581728210120936,37.96890130057263
7.35959087035763,-3.019854159182191,6.762455877568119,9.379819843761025,-51.07754552667452,42.84716138779879
7.329392328765809,-3.5306296144489364,6.856254076005729,9.808291457639013,-50.617847668506215,45.42364933481939
7.294086032621319,-4.036808091133999,6.954336990582119,10.262527950987208,-45.973466254024586,42.68163062930993
7.253717951709979,-4.496542753674245,7.056962270091991,10.689344257280307,-34.35739504060377,30.798417422681048
7.208752524173237,-4.840116704080282,7.163855712664794,10.997328431507118,-14.558942747410423,8.038278579513246
7.160351357132434,-4.9857061315543865,7.273828996979865,11.07771121730225,9.641354232301783,-20.590552097506187
7.11049429581689,-4.889292589231369,7.384606109152887,10.871805696327188,30.011101735720164,-44.10174838589066
7.061601369924577,-4.5891815718741675,7.493324166116159,10.430788212468281,40.92995725558116,-55.156507049576945
7.015709554205835,-4.179881999318356,7.597632048240842,9.879223141972512,43.374533233695686,-55.317998036920685
6.973910734212652,-3.746136666981399,7.696424279660567,9.326043161603305,41.22286281860216,-49.881767382766114
6.936449367542838,-3.3339080387953772,7.789684711276601,8.827225487775644,37.46441963048973,-42.78857171100293
6.903110287154884,-2.95926384249048,7.877956966154357,8.399339770665614,33.5722359329209,-35.88874265333167
6.873517648729979,-2.623541483161271,7.961950363861013,8.040452344132298,30.09291053468989,-29.79989542246515
6.847282233898366,-2.322612377814372,8.042354887302336,7.742453389907647,27.157676383010067,-24.610253783928634
6.824056110120223,-2.0510356139842716,8.119779421201413,7.49635085206836,24.74217631061699,-20.224852649557146
6.80354575398038,-1.8036138508781017,8.194742929722096,7.294102325572789,22.77584714072001,-16.505771974223002
6.785509615471599,-1.5758553794709016,8.267683952977825,7.1290446058305585,21.183090648787104,-13.321665874702418
6.769751061676891,-1.3640244729830306,8.33897439903613,6.9958279470835345,19.896669662928733,-10.561705255710242
6.75611081694706,-1.1650577763537433,8.408932678506966,6.890210894526432,18.860527770974123,-8.136762350850212
6.744460239183522,-0.9764524986440021,8.477834787452231,6.80884327101793,18.02891687155007,-5.97668181506418
6.734695714197082,-0.7961633299285014,8.545923220162411,6.749076452867288,17.364473732375373,-4.026874590722116
6.726734080897797,-0.6225185926047476,8.613413984691084,6.708807706960067,16.836195533609832,-2.2453067553668595
6.72050889497175,-0.4541566372686493,8.680502061760684,6.686354639406398,16.417606343725353,-0.600152817168467
6.7159673285990635,-0.28998057383139575,8.747365608154748,6.680353111234713,16.085161105628966,0.9318935258981094
6.71306752286075,-0.12912896277510608,8.814169139267095,6.689672046493694,15.816851903250525,2.3667372934541544
6.711776233232999,0.02903955625739918,8.881065859732033,6.713339419428236,15.590964020850553,3.7135257343546573
6.712066628795573,0.1849491964659047,8.948199253926315,6.750474676771782,15.384938253640524,4.97490750338755
6.713916120760232,0.3387985790023099,9.015704000694033,6.800223751805658,15.17431753023155,6.146993410442735
6.717304106550255,0.49054175430462543,9.08370623821209,6.861693685910085,14.931786869878485,7.219112304997093
6.7222095240933015,0.6398596230034103,9.15232317507119,6.933884808960056,14.626356759752271,8.173480038603298
6.728608120323336,0.7861231906009329,9.22166202316079,7.015619609346089,14.222792685859512,8.9849432558565
6.736469352229345,0.928351117459528,9.291818219254251,7.105469041904654,13.681457240193362,9.621022537174463
6.74575286340394,1.0651656898614617,9.362872909673298,7.201679267276399,12.958799931796795,10.042554302209268
6.756404520302555,1.1947536891794297,9.434889702346062,7.302104810298491,12.00878761851246,10.205299545377974
6.768352057194349,1.3148415653645542,9.507910750449048,7.404157805752271,10.785585051692106,10.062914517994155
6.781500472847995,1.4226974158814754,9.58195232850657,7.504786950932212,9.247724328335565,9.571609129567577
6.79572744700681,1.515174659164831,9.657000198015893,7.600503042227888,7.363789749803298,8.696587006422604
6.810879193598458,1.588812556662864,9.733005228438172,7.687468912292114,5.119251709408282,7.419916609773911
6.826767319165087,1.6400050737569467,9.809879917561092,7.761668078389853,2.523528663568014,5.748841556773346
6.843167369902656,1.665240360392627,9.887496598344992,7.819156493957586,-0.38423416143203254,3.7228415212751162
6.859819773506582,1.6613980187783066,9.965688163284568,7.8563849091703375,-3.532555277209532,1.4172933358510784
6.876433753694365,1.6260724660062114,10.04425201237627,7.870557842528848,-6.819907404249252,-1.0582779360623245
6.892694478354427,1.5578733919637189,10.12295759080156,7.859975063168225,-10.122746149286037,-3.5683804283294442
6.908273212274064,1.4566459304708586,10.201557341433242,7.82429125888493,-13.308592415233393,-5.965475047940122
6.922839671578773,1.3235600063185247,10.279800254022092,7.764636508405529,-16.25183768373692,-8.107072578882665
6.936075271641958,1.1610416294811554,10.357446619106147,7.683565782616702,-18.84889413179501,-9.872256478656645
6.947685687936769,0.9725526881632053,10.434282276932315,7.5848432178301355,-21.029398849232614,-11.17396583083791
6.957411214818401,0.7622586996708791,10.510130709110616,7.473103559521756,-22.761400124518378,-11.964722408148669
6.9650338018151094,0.5346446984256954,10.584861744705833,7.35345633544027,-24.050249262329558,-12.235466531642254
6.9703802487993665,0.2941422058023998,10.658396308060237,7.231101670123847,-24.932530337955484,-12.008926949214919
6.97332167085739,0.044816902422844945,10.730707324761475,7.111012400631697,-25.46723870118098,-11.329897769422539
6.973769839881619,-0.20985548458896489,10.801817448767792,6.997713422937472,-25.726457289426936,-10.254823505203579
6.97167128503573,-0.46712005748323426,10.871794582997167,6.895165187885436,-25.78722542931275,-8.842481306042826
6.9670000844608975,-0.7249923117763617,10.940746234876022,6.806740374825007,-25.72552256771988,-7.146706424797712
6.959750161343134,-0.9822475374535605,11.008813638624272,6.73527331057703,-25.61260155449745,-5.211355761555519
6.949927685968598,-1.2383735529985351,11.076166371730041,6.683159752961475,-25.513450928543904,-3.0671988765414167
6.937543950438613,-1.4935080622839743,11.142997969259655,6.652487764196061,-25.486956806389706,-0.7301762489196845
6.9226088698157735,-1.7483776303478713,11.209522846901615,6.645186001706864,-25.58731254237728,1.7995957580242923
6.905125093512295,-2.0042507557716442,11.275974706918683,6.663181959287106,-25.866309921738186,4.53864819807614
6.885082585954578,-2.262913854989026,11.342606526511554,6.708568441267868,-26.376272624509276,7.521300197355276
6.862453447404688,-2.5266765812341188,11.409692210924232,6.783781443241421,-27.173512545474598,10.801513013504723
6.837186681592347,-2.7984117066888645,11.477530025356646,6.891796573376468,-28.32226054126865,14.45574543063442
6.809202564525458,-3.081634312101551,11.54644799109041,7.036354027682813,-29.89898182927874,18.586904153815926
6.778386221404443,-3.3806241303943385,11.616811531367238,7.222223069220972,-31.99668703427574,23.329001304104192
6.744579980100499,-3.700591000737096,11.689033762059449,7.455513082262014,-34.72792606151485,28.850849759862648
6.707574070093129,-4.047870261352244,11.763588892882069,7.74402157986064,-38.22267685714183,35.35375663365353
6.6670953674796065,-4.430097029923663,11.841029108680676,8.097559146197176,-42.611001816653314,43.049495379696445
6.62279439718037,-4.856207048090196,11.922004700142647,8.52805409999414,-47.96455128977029,52.08303224345842
6.574232326699469,-5.335852560987899,12.007285241142588,9.048884422428724,-54.133440740679795,62.312236490606836
6.520873801089589,-5.877186968394697,12.097774085366876,9.672006787334793,-60.33611281931036,72.74615187250345
6.462101931405642,-6.480548096587801,12.194494153240223,10.399468306059827,-64.25335187270069,80.29182285882416
6.3972964504397645,-7.123081615314808,12.298488836300821,11.202386534648069,-60.55490471288201,77.69801719167032
6.326065634286616,-7.728630662443628,12.410512701647303,11.979366706564772,-40.64078864527952,53.15505464056648
6.24877932766218,-8.135038548896423,12.530306368712951,12.510917252970437,-0.04842692278445121,0.5115219537404351
6.167428942173216,-8.135522818124267,12.655415541242656,12.516032472507842,46.24223569925679,-59.60789422197454
6.086073713991973,-7.673100461131699,12.780575865967734,11.919953530288096,72.5370969409033,-92.11013958327727
6.009342709380656,-6.947729491722666,12.899775401270615,10.998852134455323,75.12339454860863,-92.44397994905016
5.939865414463429,-6.19649554623658,13.009763922615168,10.074412334964821,67.02529322793616,-78.72208937259278
5.877900459001063,-5.526242613957218,13.110508045964815,9.287191441238893,57.35144219908388,-63.29149628333607
5.822638032861491,-4.952728191966379,13.203379960377204,8.654276478405531,49.090748210663335,-50.03681960197014
5.773110750941827,-4.4618207098597455,13.289922725161258,8.15390828238583,42.67184095186572,-39.391617479540834
5.728492543843229,-4.035102300341088,13.371461807985117,7.7599921075904215,37.83956301591905,-30.911157737328814
5.688141520839818,-3.6567066701818978,13.449061729061022,7.450880530217133,34.24924954288687,-24.066346593588726
5.651574454137999,-3.314214174753029,13.523570534363193,7.210217064281245,31.609814026349706,-18.425138958999653
5.618432312390469,-2.998116034489532,13.595672705006006,7.025965674691249,29.699957220489708,-13.666994330459719
5.588451152045574,-2.701116462284635,13.665932361752919,6.889295731386651,28.355078774051368,-9.561725614054602
5.5614399874227285,-2.417565674544121,13.734825319066786,6.7936784752461055,27.451029289481905,-5.946819714567108
5.537264330677287,-2.1430553816493023,13.802762103819248,6.734210278100434,26.89051125118919,-2.7102177779869896
5.515833776860794,-1.8741502691374103,13.870104206600253,6.707108100320564,26.59259821400337,0.22134895431312904
5.49709227416942,-1.6082242869973766,13.93717528760346,6.709321589863696,26.48472185908337,2.8897621861937592
5.481010031299446,-1.343377068406543,14.004268503502097,6.738219211725633,26.496489297858155,5.309998538299406
5.467576260615381,-1.0784121754279614,14.071650695619352,6.791319197108628,26.554980569056593,7.4728715064157365
5.456792138861101,-0.8128623697373956,14.13956388759044,6.866047912172785,26.58151510982566,9.347132758467698
