th1 (rad),w1 (rad/s),th2 (rad),w2 (rad/s),a1 (rad/s^2),a2 (rad/s^2)
3.245306573121921,2.496553535986016,1.5678084288212637,-0.10550596751397101,0.8218632167060245,-3.5150960203362676
3.270272108481781,2.5047721681530764,1.566753369146124,-0.14065692771733368,1.0197485874031333,-3.4462667129778213
3.295319830163312,2.514969654027108,1.5653467998689505,-0.1751195948471119,1.2190507885068265,-3.3615168620613627
3.320469526703583,2.527160161912176,1.5635956039204795,-0.20873476346772551,1.4206333892380998,-3.2606301448392077
3.3457411283227048,2.541366495804557,1.5615082562858023,-0.2413410649161176,1.6254199191716012,-3.1432900174507763
3.37115479328075,2.557620694996273,1.5590948456366411,-0.27277396509062535,1.834397452199197,-3.0090735107360698
3.3967310002307127,2.5759646695182647,1.556367105985735,-0.30286470019798606,2.0486199786755876,-2.8574451913726118
3.4224906469258953,2.596450869305021,1.553338458983755,-0.33143915211171215,2.269211399604964,-2.6877516132319252
3.4484551556189453,2.6191429833010704,1.550024067462638,-0.3583166682440314,2.4973678983070404,-2.499216695874984
3.474646585451956,2.6441166622841408,1.5464409007801976,-0.38330883520278125,2.734359345057594,-2.290938613299252
3.5010877520747976,2.6714602557347167,1.5426078124281697,-0.4062182213357738,2.981529263585394,-2.061888964894938
3.527802354632145,2.7012755483705706,1.538545630214812,-0.42683711098472316,3.24029272913012,-1.8109152418896894
3.5548151101158507,2.733678475661872,1.5342772591049647,-0.44494626340362003,3.512131369551042,-1.536747907314914
3.5821518948724695,2.7687997893573826,1.5298277964709286,-0.46031374247676915,3.7985843970629345,-1.2380137872541486
3.6098398927660433,2.806785633328012,1.525224659046161,-0.47269388034931065,4.101234302459848,-0.9132579368750279
3.6379077490993232,2.8477979763526102,1.5204977202426677,-0.48182645971806093,4.421685491901615,-0.5609767051245838
3.666385728862849,2.8920148312716263,1.5156794556454871,-0.48743622676930676,4.761533738104828,-0.1796653800525777
3.6953058771755654,2.9396301686526747,1.5108050933777941,-0.48923288056983255,5.122323859741459,0.23211545482776247
3.724702178862092,2.990853407250089,1.5059127645720958,-0.4869117260215549,5.505492553214495,0.6756499088741565
3.7546107129345927,3.045908332782234,1.5010436473118802,-0.4801552269328134,5.912292815832184,1.151947346468663
3.785069796262415,3.1050312609405557,1.4962420950425521,-0.46863575346812675,6.343695980958231,1.6615870066591227
3.8161201088718206,3.168468220750138,1.491555737507871,-0.45201988340153554,6.80026713242402,2.204519651734977
3.847804791079322,3.236470892074378,1.4870355386738556,-0.4299746868841858,7.282009723140334,2.7798191667804075
3.8801695000000658,3.3092909893057816,1.4827357918050137,-0.4021764952163817,7.788175794660855,3.3853777716491504
3.9132624098931235,3.3871727472523903,1.4787140268528498,-0.3683227174998902,8.317039546263567,4.017540470035758
3.9471341373656474,3.4703431427150258,1.475030799677851,-0.32814731279953263,8.86563445621466,4.670678087860509
3.981837568792798,3.5589994872771724,1.4717493265498556,-0.28144053192092755,9.429458066159633,5.336704356137147
4.01742756366557,3.6532940679387687,1.4689349212306464,-0.22807348835955607,10.002154224458408,6.004551567865546
4.053960504344958,3.753315610183353,1.4666541863470508,-0.1680279726809006,10.57519023609932,6.659631807854431
4.091493660446791,3.859067512544346,1.4649739066202419,-0.1014316546023563,11.137555892789072,7.283326627224648
4.130084335572235,3.970443071472237,1.4639595900742184,-0.028598388330109817,11.67552219204097,7.852566584435832
4.169788766286957,4.087198293392647,1.4636736061909172,0.0499272775142485,12.172508473491172,8.339581494653773
4.210660749220883,4.208923378127559,1.4641728789660597,0.13332309246078622,12.609115707917125,8.711919368566257
4.252749983002159,4.335014535206731,1.4655061098906677,0.22044228614644878,12.963388078490691,8.932842383084395
4.296100128354227,4.464648415991638,1.467710532752132,0.3097707099772927,13.211361788017415,8.962206421977857
4.340746612514144,4.596762033871812,1.470808239851905,0.3993927741970713,13.327946621568705,8.757911526521227
4.386714232852862,4.730041500087499,1.4748021675938756,0.4869718894622836,13.28816100460804,8.277970505898574
4.434014647853737,4.86292311013358,1.4796718864884983,0.5697515945212693,13.068706242964067,7.4831818782148325
4.482643878955073,4.993610172563221,1.485369402433711,0.6445834133034176,12.649824043087769,6.340315583882312
4.532579980680705,5.120108412994099,1.4918152365667452,0.7079865691422408,12.017338838813535,4.8256338969544075
4.583781064810646,5.240281801382234,1.4988951022581676,0.7562429081117849,11.164748314163905,2.9284858921413086
4.636183882824469,5.351929284523873,1.5064575313392854,0.7855277670331979,10.095194724576247,0.6546407039533776
4.689703175669707,5.452881231769635,1.5143128090096174,0.7920741740727317,8.823125330342481,-1.971031683827613
4.744231987987403,5.54111248507306,1.5222335507503446,0.7723638572344556,7.375429408522291,-4.902959623168135
4.799643112838134,5.614866779158283,1.529957189322689,0.7233342610027742,5.7918216167780665,-8.074785327593585
4.855791780629717,5.672784995326063,1.5371905319327168,0.6425864077268384,4.124236061862188,-11.401196596157455
4.9125196305829775,5.714027355944685,1.5436163960099851,0.5285744417652638,2.4350246484072176,-14.781960897231752
4.969659904142424,5.738377602428757,1.5489021404276377,0.3807548327929463,0.7938482793225545,-18.10822051438694
5.027043680166711,5.746316085221983,1.5527096887555671,0.19967262764907692,-0.7266658230913842,-21.270749465419396
5.084506841018931,5.739049426991069,1.554706415032058,-0.013034867005117051,-2.056159939938948,-24.169420257745323
5.141897335288842,5.718487827591679,1.5545760663620067,-0.25472906958257024,-3.1320402346323273,-26.722690529184483
5.199082213564759,5.687167425245356,1.552028775666181,-0.5219559748744151,-3.9043766354509746,-28.875662275637477
5.255953887817213,5.648123658890846,1.546809215917437,-0.8107125976307898,-4.339322382659441,-30.605347426190537
5.312435124406122,5.604730435064251,1.538702089941129,-1.1167660718926953,-4.420380373532784,-31.92225205617244
5.3684824287567645,5.560526631328924,1.527534429222202,-1.4359885924544198,-4.147265091854252,-32.868167086154116
5.424087695070054,5.519053980410381,1.5131745432976578,-1.764670263315961,-3.5326061323196747,-33.51088664161675
5.479278234874158,5.483727919087184,1.495527840664498,-2.0997791297321284,-2.5971406225584883,-33.93719330959152
5.53411551406503,5.457756512861599,1.4745300493671767,-2.4391510628280435,-1.3642191150788687,-34.24567533118954
5.588693079193646,5.444114321710811,1.4501385387388963,-2.781607816139939,0.1456270860785056,-34.540767266750315
5.643134222410755,5.445570592571596,1.422322460577497,-3.127015488807442,1.9195737455712945,-34.928974234027606
5.697589928336471,5.4647663300273095,1.3910523056894224,-3.4763052311477183,3.956702510539405,-35.51775037344222
5.752237591636744,5.504333355132704,1.3562892533779451,-3.8314827348821403,6.271676634872819,-36.41711777597652
5.8072809251880715,5.567050121481432,1.3179744260291237,-4.195653912641905,8.898276502429749,-37.743904158789235
5.862951426402886,5.65603288650573,1.2760178869027048,-4.573092954229797,11.893269644303235,-39.62841363472951
5.919511755267943,5.774965582948762,1.2302869573604067,-4.969377090577092,15.34100882459711,-42.22328002996155
5.977261411097431,5.9283756711947335,1.1805931864546357,-5.391609890876707,19.358732089958007,-45.71385264611288
6.036545167809378,6.121962992094313,1.1266770875458687,-5.848748417337836,24.10126494205821,-50.327928719323836
6.0977647977303215,6.362975641514895,1.0681896033724902,-6.352027704531074,29.760240881894465,-56.33789851174397
6.16139455414547,6.660578050333839,1.0046693263271795,-6.915406689648513,36.543108673672386,-64.03487611228246
6.228000334648809,7.026009137070563,0.9355152594306944,-7.555755450771338,44.59069991723839,-73.61763866179272
6.298260426019515,7.471916136242947,0.859957704922981,-8.291931837389265,53.7239585564664,-84.84410155404457
6.372979587381944,8.00915572180761,0.7770383865490883,-9.140372852929712,62.75613365606255,-96.07698107248257
6.45307114460002,8.636717058368236,0.6856346580197912,-10.101142663654537,67.89425570800489,-102.05602518111081
6.539438315183703,9.315659615448284,0.5846232313832458,-11.121702915465645,60.2662165433464,-90.441724210505
6.6325949113381855,9.91832178088175,0.4734062022285893,-12.026120157570695,27.2673863323021,-43.69275275711417
6.731778129147003,10.19099564420477,0.35314500065288235,-12.463047685141836,-29.514450578967608,35.88859751770357
6.83368808558905,9.895851138415095,0.22851452380146398,-12.104161709964801,-76.27004864298443,101.11997682332857
6.932646596973201,9.13315065198525,0.10747290670181596,-11.092961941731515,-87.9010127091344,117.28078429753728
7.023978103493053,8.254140524893906,-0.0034567127154991883,-9.920154098756143,-78.05007751056728,103.6004269982128
7.106519508741992,7.473639749788233,-0.10265825370306061,-8.884149828774015,-64.00623673478209,84.11523738719109
7.181255906239874,6.833577382440412,-0.19149975199080077,-8.042997454902105,-51.90851898486916,67.28617581982849
7.249591680064278,6.31449219259172,-0.27192972653982184,-7.37013569670382,-42.58402181025404,54.21978300314326
7.312736601990196,5.888651974489179,-0.34563108350686006,-6.827937866672388,-35.56526821442276,44.24782113947412
7.371623121735087,5.532999292344952,-0.41391046217358396,-6.385459655277646,-30.271218482783322,36.55426977027163
7.426953114658537,5.2302871075171185,-0.47776505872636044,-6.01991695757493,-26.243054248780876,30.49578775982602
7.479255985733708,4.96785656502931,-0.5379642283021098,-5.714959079976669,-23.152216439327002,25.610349560294882
7.528934551384001,4.73633440063604,-0.5951138191018764,-5.458855584373721,-20.768568840283404,21.57268514468453
7.576297895390361,4.528648712233206,-0.6497023749456137,-5.243128732926875,-18.930242867783566,18.153197393461614
7.621584382512693,4.33934628355537,-0.7021336622748824,-5.061596758992259,-17.521378999399083,15.188649701804902
7.664977845348247,4.16413249356138,-0.752749629864805,-4.90971026197421,-16.456548496269104,12.562891156326435
7.706619170283861,3.9995670085986887,-0.8018467324845471,-4.784081350410945,-15.66976531982165,10.194758248011649
7.746614840369848,3.842869355400472,-0.8496875459886565,-4.682133767930829,-15.106454381850433,8.030867963137931
7.785043533923853,3.6918048115819677,-0.8965088836679648,-4.601825088299449,-14.71733631160891,6.0416375337409445
7.821961582039672,3.5446314484658785,-0.9425271345509593,-4.54140871296204,-14.453714454544906,4.219215761404808
7.8574078965243315,3.4000943039204294,-0.9879412216805796,-4.499216555347992,-14.264111240998147,2.576091724533945
7.891408839563535,3.257453191510448,-1.0329333872340596,-4.473455638102653,-14.092603668294716,1.1430575355456996
7.92398337147864,3.1165271548275006,-1.0776679436150862,-4.462025062747196,-13.879486380103305,-0.03487568737204808
7.955148643026915,2.9777322910264674,-1.1222881942425582,-4.462373819620916,-13.564889569088479,-0.9057987073707586
7.98492596593718,2.8420833953355826,-1.1669119324387673,-4.471431806694624,-13.095497849919076,-1.421844816631808
8.013346799890536,2.711128416836392,-1.2116262505057136,-4.485650254860942,-12.433466612527774,-1.5525985384418401
8.0404580840589,2.5867937507111143,-1.256482753054323,-4.501176240245361,-11.565267907418866,-1.2979140481148248
8.066326021566011,2.4711410716369255,-1.3014945154567765,-4.514155380726509,-10.507233197484913,-0.6957921143133973
8.09103743228238,2.3660687396620763,-1.3466360692640416,-4.521113301869643,-9.30489228241171,0.17850545092854408
8.114698119679002,2.273019816837959,-1.391847202282738,-4.519328247360358,-8.02520270087867,1.2231266161694174
8.13742831784738,2.1927677898291726,-1.4370404847563416,-4.507096981198663,-6.743648733188467,2.327167337947382
8.159355995745672,2.125331302497288,-1.4821114545683283,-4.483825307819189,-5.530330218403766,3.3893339502167596
8.180609308770645,2.0700280003132505,-1.5269497076465202,-4.4499319683170215,-4.439267926308454,4.331990358347068
8.201309588773778,2.025635321050166,-1.5714490273296904,-4.406612064733551,-3.5033185160758333,5.1074655446948025
8.22156594198428,1.9906021358894075,-1.615515147977026,-4.355537409286603,-2.7346210997056857,5.696888166875334
8.241471963343175,1.9632559248923507,-1.659070522069892,-4.298568527617849,-2.128765336595167,6.10411834115352
8.261104522592099,1.941968271526399,-1.7020562073460705,-4.237527344206314,-1.6704157557539454,6.3478842017697525
8.280524205307364,1.9252641139688595,-1.7444314807881336,-4.174048502188617,-1.3386321002428663,6.454482353627747
8.299776846447052,1.9118777929664308,-1.7861719658100197,-4.10950367865234,-1.1109648478702683,6.452235927635346
8.318895624376717,1.900768144487728,-1.8272670025965432,-4.044981319375986,-0.9661145051846127,6.367944361630245
8.337903305821595,1.8911069994358818,-1.867716815790303,-3.9813018757596836,-0.8853545855730113,6.225017426107948
8.356814375815953,1.8822534535801516,-1.9075298345479,-3.919051701498604,-0.853066173785936,6.042802620037873
8.375636910351755,1.8737227918422923,-1.946720351562886,-3.8586236752982255,-0.8567210878810788,5.83664246261708
8.394374138270178,1.8651555809634814,-1.9853065883158683,-3.800257250672055,-0.8865737617828471,5.6183096068852025
8.413025694079813,1.856289843345653,-2.023309160822589,-3.744074154603203,-0.9352355376247797,5.396587899344463
8.43158859251327,1.8469374879694052,-2.0607499023686207,-3.6901082756097585,-0.997233951771773,5.177864478311207
8.450057967392965,1.8369651484516873,-2.097650985124718,-3.6383296308266466,-1.0686097483382284,4.966665010349869
8.468427618877483,1.8262790509683051,-2.1340342814329847,-3.588662980723148,-1.1465731431967492,4.766105539702909
8.486690409387165,1.8148133195363376,-2.169920911240216,-3.541001925326119,-1.2292232246069654,4.578257423983624
8.50483854258253,1.802521087290268,-2.2053309304934774,-3.495219351086283,-1.315325558002653,4.4044330432650955
8.522863753455432,1.7893678317102415,-2.2402831240043404,-3.451175020653632,-1.4041394827542901,4.245404274478043
8.540757431772535,1.7753264368826986,-2.2747948742108766,-3.4087209779088514,-1.4952858591934697,4.101566329313793
8.558510696141362,1.760373578290764,-2.308882083989965,-3.3677053146157134,-1.5886466799114165,3.9730584067214534
8.57611443192427,1.7444871114916498,-2.342559137136122,-3.327974730548499,-1.6842891650720955,3.8598508053354426
8.593559303039186,1.7276442198409288,-2.375838884441607,-3.2893762224951444,-1.7824082769496932,3.761806244913136
8.610835745237594,1.7098201370714319,-2.4087326466665586,-3.251758160046013,-1.8832828061252094,3.6787214219201068
8.627933946608309,1.6909873090101797,-2.4412502282670188,-3.214970945826812,-1.9872412214093027,3.610353369707609
8.64484381969841,1.6711148967960867,-2.473399937725287,-3.178867412129736,-2.0946343248194887,3.5564340220842365
8.66155496866637,1.6501685535478918,-2.505188611846584,-3.1433030719088935,-2.205812430384848,3.516675467740455
8.67805665420185,1.6281104292440434,-2.536621642565673,-3.108136317231489,-2.3211053221351783,3.4907676974268376
8.69433775849429,1.6048993760226915,-2.5677030057379877,-3.073228640257221,-2.4408036761648177,3.478370151953788
8.710386752254518,1.5804913392610433,-2.59843529214056,-3.038444938737683,-2.565140986405446,3.4790980485683045
8.726191665647129,1.5548399293969888,-2.628819741527937,-3.003653958252,-2.694275342565131,3.492504274701276
8.741740064941098,1.5278971759713376,-2.658856281110457,-2.968728915504987,-2.8282706962904283,3.5180575763664668
8.757019036700811,1.4996144690084332,-2.6885435702655065,-2.9335483397413222,-2.96707753793039,3.555117822748146
8.772015181390895,1.4699436936291292,-2.71787905366292,-2.8979971615138407,-3.1105132056428064,3.602909289097294
8.786714618327187,1.4388385615727013,-2.746859025278058,-2.861968068622868,-3.2582423682668664,3.660493154844979
8.801103003942913,1.4062561378900327,-2.7754787059642867,-2.8253631370744183,-3.409758561701608,3.726740743960085
8.815165565321813,1.3721585522730166,-2.8037323373350307,-2.7880957296348177,-3.564368002576123,3.800309409972392
8.828887150844542,1.3365148722472555,-2.831613294631379,-2.750092635535094,-3.721177226651626,3.879623343636527
8.842252299567015,1.2993030999807393,-2.8591142209867297,-2.7112964020987285,-3.879086362378645,3.962861894593115
8.855245330566822,1.260512236356953,-2.886227185007717,-2.6716677831527975,-4.036789999162072,4.047958171067892
8.86785045293039,1.2201443363653321,-2.912943862839245,-2.6311882014421184,-4.192787583729553,4.132610624834154
8.880051896294043,1.1782164605280365,-2.939255744853666,-2.589862095193777,-4.345405015849116,4.214309955288259
8.891834060899324,1.1347624103695453,-2.9651543658056037,-2.5477189956408943,-4.492828569930826,4.290382909536864
8.90318168500302,1.089834124670237,-2.9906315557620125,-2.5048151665455256,-4.633151425883084,4.358053390651103
8.914080026249723,1.0435026104114062,-3.0156797074274677,-2.4612346326390147,-4.764431982255286,4.4145197550881665
8.924515052353836,0.9958582905888533,-3.040292053753858,-2.417089435088133,-4.884761837202666,4.4570454057366025
8.934473635259724,0.9470106722168267,-3.064462948104739,-2.3725189810307667,-4.9923400078423965,4.483057975105638
8.943943741981892,0.8970872721384027,-3.0881881379150466,-2.3276884012797106,-5.085548811157234,4.490250812978034
8.952914614703277,0.8462317840268303,-3.111465021927844,-2.28278589314993,-5.163026059260109,4.476679433851091
8.961376932543544,0.7946015234342292,-3.134292880859343,-2.238019098811419,-5.223728009335187,4.440845291492497
8.969322947777886,0.7423642433408774,-3.1566730718474574,-2.193610645896494,-5.266977960064788,4.381759877330426
8.976746590211295,0.6896944637402295,-3.1786091783064223,-2.14979304712319,-5.292496498155322,4.298983680312294
8.983643534848698,0.6367694987586763,-3.200107108777654,-2.1068032103200673,-5.300411045176537,4.192636823580964
8.990011229836284,0.5837653883069109,-3.2211751408808547,-2.064876842084258,-5.291244306925192,4.0633808892911105
8.995848883719352,0.530852945237659,-3.241823909301697,-2.024243033191347,-5.265883196872791,3.912374157746545
9.001157413171729,0.47819411326893113,-3.2620663396336105,-1.9851192916138813,-5.225531506003522,3.7412048249901964
9.005939354304418,0.4259387982088959,-3.281917532549749,-1.9477072433639795,-5.17165079864065,3.5518084137200043
9.010198742286507,0.37422229022248943,-3.301394604983389,-1.9121891592267795,-5.10589460496587,3.346376387870468
9.013940965188732,0.3231633441728307,-3.3205164965756566,-1.8787253953480747,-5.030040948662226,3.1272629138409087
9.017172598630461,0.2728629346862085,-3.339303750529137,-1.8474527662096656,-4.9459276863356765,2.896895913641726
9.019901227977323,0.2234036578228517,-3.3577782781912338,-1.8184838070732483,-4.855394204716835,2.657697251649037
9.022135264555551,0.17484971577568337,-3.3759631162619663,-1.791906834556758,-4.7602319075003,2.41201534519573
9.023883761713309,0.12724739670068036,-3.3938821846075338,-1.7677866811048006,-4.662144798320851,2.1620719287782557
9.025156235680315,0.08062594871747185,-3.411560051418582,-1.746165961817018,-4.5627204629676745,1.909923316090887
9.025962495167489,0.0349987440877951,-3.4290217110367522,-1.7270667286561092,-4.4634109550840355,1.6574354065699586
9.026312482608366,-0.009635365463045255,-3.4462923783233133,-1.7104923745904097,-4.365522528510781,1.4062709180861275
9.026216128953736,-0.053290590748153066,-3.4633973020692173,-1.6964296654095485,-4.2702128296488695,1.1578868843104313
9.025683223046254,-0.09599271904464177,-3.4803615987233125,-1.6848507965664443,-4.1784940319814865,0.9135402873072791
9.024723295855807,-0.13777765936445663,-3.497210106688977,-1.6757153936933715,-4.091240416346654,0.6742997384555399
9.023345519262163,-0.17869006352792316,-3.5139672606259107,-1.668972396308816,-4.009199026351855,0.44106130619716
