th1 (rad),w1 (rad/s),th2 (rad),w2 (rad/s),a1 (rad/s^2),a2 (rad/s^2)
1.6079553543664749,2.648087295820363,5.789597980983717,-0.2733958071161993,-8.165856878461758,6.557424584340114
1.6344362273246784,2.5664287270357455,5.786864022912555,-0.20782156127279816,-8.239251380614386,5.871024194989411
1.6601005145950358,2.4840362132296017,5.784785807299827,-0.14911131932290406,-8.327997395813062,5.202265065494819
1.684940876727332,2.400756239271471,5.783294694106599,-0.09708866866795587,-8.428770972075014,4.5518094475433655
1.7089484391200467,2.316468529550721,5.782323807419919,-0.05157057419252222,-8.5385747116469,3.920563715174602
1.7321131244155539,2.231082782434252,5.781808101677994,-0.012364937040776201,-8.654723975432924,3.3095851908632805
1.7544239522398963,2.1445355426799226,5.781684452307586,0.020730914867856602,-8.774834910196,2.720003189972549
1.7758693076666956,2.0567871935779625,5.781891761456265,0.0479309467675821,-8.896812762670152,2.1529536435003167
1.7964371796024752,1.9678190659512609,5.782371070923941,0.06946048320258527,-9.018839440544236,1.6095265936579088
1.8161153702619879,1.8776306715458184,5.783065675755966,0.08555574913916436,-9.139359698017717,1.0907257322778316
1.8348916769774462,1.7862370745656413,5.783921233247358,0.09646300646194268,-9.257065664227103,0.5974390093842313
1.8527540477231026,1.6936664179233702,5.7848858633119775,0.102437396555785,-9.370879698513122,0.1304192087077582
1.8696907119023363,1.5999576209382391,5.785910237277536,0.10374158864286258,-9.47993575156232,-0.30972671153895476
1.8856902881117186,1.505158263422616,5.786947653163964,0.10064432152747303,-9.583559542455676,-0.7225407698442701
1.9007418707459447,1.4093226679980593,5.787954096379239,0.09341891382903034,-9.681247936994263,-1.1077108710780483
1.9148350974259254,1.3125101886281167,5.788888285517529,0.08234180511824986,-9.77264794196158,-1.4650627067840105
1.9279601993122066,1.214783709208501,5.789711703568711,0.06769117805040975,-9.857535723307453,-1.7945478064246005
1.9401080364042917,1.1162083519754264,5.790388615349215,0.049745699986163745,-9.935796023446189,-2.0962287994280153
1.951270119924046,1.0168503917409646,5.7908860723490765,0.02878341199188359,-10.007402302995207,-2.370262828133029
1.9614386238414558,0.9167763687110125,5.7911739064689955,0.005080783710553299,-10.072397873178087,-2.6168839218948197
1.970606387528566,0.8160523899792317,5.791224714306101,-0.021088055508394897,-10.130878223199396,-2.8363850108790136
1.9787669114283584,0.7147436077472378,5.791013833751017,-0.04945190561718503,-10.182974687114404,-3.029100131161091
1.9859143475058307,0.6129138608760938,5.790519314694845,-0.07974290692879595,-10.228839540609059,-3.195387255776839
1.9920434861145917,0.5106254654700032,5.789721885625557,-0.11169677948656434,-10.268632571971759,-3.3356120828572133
1.9971497407692917,0.4079391397502856,5.788604917830692,-0.14505290031513648,-10.30250913463499,-3.450133024003842
2.0012291321667948,0.3049140484039357,5.78715438882754,-0.17955423055517492,-10.330609661427768,-3.5392875644836677
2.004278272650834,0.201607951789658,5.785358846521988,-0.2149471062000116,-10.35305060293676,-3.6033801115401554
2.0062943521687306,0.09807744576029041,5.783209375459988,-0.2509809073154131,-10.369916743532956,-3.642671407316159
2.0072751266263333,-0.005621721675039146,5.780699566386834,-0.28740762138857473,-10.381254847823767,-3.657369557236465
2.007218909409583,-0.10943427015327682,5.7778254901729476,-0.3239813169609394,-10.38706859652996,-3.6476227115555475
2.0061245667080505,-0.21330495611857642,5.774585677003338,-0.3604575440764949,-10.387314782986977,-3.6135134352830596
2.0039915171468645,-0.3171781039484462,5.770981101562573,-0.3965926784293255,-10.381900758530845,-3.5550548078790376
2.00081973610738,-0.42099711153375463,5.7670151747782805,-0.4321432265081159,-10.370683135843615,-3.4721883068998274
1.9966097649920422,-0.5247039428921908,5.762693742513199,-0.46686510957711413,-10.353467782780575,-3.364783547028183
1.9913627255631203,-0.6282386207199966,5.758025091417428,-0.500512945047396,-10.330011164117723,-3.232639965378926
1.9850803393559204,-0.7315387323611738,5.753019961966954,-0.5328393447011852,-10.30002311379502,-3.0754905632176786
1.9777649520323086,-0.834538963499124,5.747691568519943,-0.563594250333362,-10.263171144209453,-2.893007830630902
1.9694195623973174,-0.9371706749412185,5.742055626016609,-0.592524328639671,-10.219086420365818,-2.684811991328866
1.9600478556479053,-1.0393615391448767,5.736130382730212,-0.6193724485529596,-10.167371543427205,-2.4504817064163826
1.9496542402564565,-1.1410352545791487,5.729936658244682,-0.6438772656171234,-10.107610298361903,-2.1895673650535543
1.938243887710665,-1.2421113575627678,5.723497885588511,-0.665772939267659,-10.039379521629217,-1.9016070625589419
1.9258227741350373,-1.34250515277906,5.716840156195834,-0.6847890098932484,-9.962263234613452,-1.586145318563441
1.9123977226072468,-1.4421277851251944,5.709992266096902,-0.7006504630788828,-9.875869164077452,-1.2427545151399229
1.8979764447559948,-1.540886476765969,5.702985761466112,-0.713078008230282,-9.77984772953503,-0.8710589334847559
1.882567579988335,-1.6386849540613193,5.6958549813838095,-0.7217885975651296,-9.67391351664493,-0.47076113444075307
1.8661807304477218,-1.7354240892277686,5.688637095408159,-0.7264962089095371,-9.55786917359095,-0.041670260861446456
1.848826489555444,-1.831002780963678,5.681372133319063,-0.7269129115181516,-9.431631563040085,0.4162683616420853
1.8305164617458072,-1.9253190965940787,5.674103004203881,-0.7227502279017308,-9.295259876330489,0.9029431821328033
1.8112632707798664,-2.0182716953573836,5.6668755019248644,-0.7137207960804028,-9.148985271881125,1.41804705519931
1.7910805538262926,-2.109761548076195,5.65973829396406,-0.6995403255284097,-8.993241442095606,1.9610499343394328
1.7699829383455306,-2.1996939624971508,5.652742890708776,-0.6799298261850154,-8.828695351298396,2.531175290754737
1.747985998720559,-2.2879809160101345,5.645943592446926,-0.654618073277468,-8.656277234314377,3.127382173720992
1.7251061895604578,-2.3745436883532784,5.639397411714151,-0.6233442515402581,-8.477208817848856,3.748355036494449
1.701360752676925,-2.459315776531767,5.6331639691987485,-0.5858607011753136,-8.293028644943778,4.392503585686637
1.6767675949116074,-2.5422460629812047,5.627305362186996,-0.5419356653184473,-8.105613368976183,5.0579749428915015
1.6513451342817953,-2.6233021966709664,5.621886005533812,-0.49135591588953226,-7.917193961083991,5.742680308297636
1.6251121123150856,-2.7024741362818063,5.616972446374916,-0.4339291128065559,-7.730365964929179,6.444338067301932
1.5980873709522676,-2.779777795931098,5.612633155246851,-0.3694857321335365,-7.548093251969639,7.16053487520859
1.5702895929929566,-2.8552587284507944,5.608938297925516,-0.2978803833814506,-7.373705187637561,7.888805701862787
1.5417370057084485,-2.92899578032717,5.605959494091701,-0.21899232636282273,-7.210887712036115,8.626733149360689
1.5124470479051768,-3.0011046574475313,5.603769570828073,-0.13272499486921585,-7.063669553490193,9.372065628172782
1.4824360013307014,-3.0717413529824333,5.602442320879381,-0.03900433858748803,-6.936405602472381,10.122853270855154
1.4517185878008771,-3.141105409007157,5.602052277493506,0.06222419412106352,-6.83376033967499,10.87759987941736
1.4203075337108055,-3.209443012403907,5.602674519434717,0.1710001929152371,-6.760695092361194,11.635428857098274
1.3882131035867664,-3.277049963327519,5.604384521363869,0.28735448148621984,-6.722463746237266,12.39626108536763
1.3554426039534913,-3.3442746007898916,5.607258066178731,0.41131709233989616,-6.72462233484231,13.16100318064243
1.3219998579455923,-3.411520824138315,5.61137123710213,0.5429271241463205,-6.773058652771653,13.931745589107365
1.2878846497042091,-3.4792514106660315,5.6168005083435935,0.6822445800373942,-6.8740487066763265,14.711971606651012
1.2530921355975488,-3.547991897732795,5.6236229541439675,0.8293642961039043,-7.03434747068329,15.506780658417494
1.2176122166202208,-3.6183353724396277,5.631916597105007,0.9844321026880792,-7.261322114618336,16.32313200477643
1.1814288628958245,-3.690948593585811,5.6417609181318875,1.1476634227358435,-7.563136691240993,17.170118361357243
1.1445193769599664,-3.7665799604982206,5.653237552359246,1.319364606349416,-7.948998231156908,18.059282536575626
1.1068535773549841,-3.8460699428097898,5.666431198422741,1.4999574317151723,-8.42947520865848,19.004993723774135
1.0683928779268863,-3.9303646948963746,5.681430772739892,1.6900073689529136,-9.016900033430655,20.024902780327913
1.0290892309779225,-4.020533695230681,5.698330846429421,1.8902563967561927,-9.725866614528735,21.140496124745997
0.9888838940256157,-4.117792361375969,5.717233410396983,2.1016613580036525,-10.573829911637624,22.377762541014526
0.947705970411856,-4.2235306604923455,5.73825002397702,2.3254389834137976,-11.581801956804364,23.767969438964123
0.9054706638069325,-4.3393486800603895,5.761504413811158,2.563118677803439,-12.775108074595082,25.348500935165955
0.8620771770063287,-4.467099760806341,5.787135600589193,2.8166036871550983,-14.184097123686481,27.16361036358354
0.8174061793982653,-4.608940732043205,5.815301637460744,3.088239790790934,-15.844547405173476,29.26472417863862
0.7713167720778332,-4.76738620609494,5.846184035368653,3.38088703257732,-17.79718639660325,31.70947807187997
0.7236429100168839,-4.945358070060973,5.879992905694426,3.6979818132961197,-20.085065242905387,34.55771407002092
0.6741893293162742,-5.146208722490027,5.916972723827387,4.043558953996329,-22.74613177066285,37.86070655776813
0.6227272420913739,-5.3736700401966555,5.95740831336735,4.422166019574011,-25.795529717606883,41.63593642432053
0.5689905416894073,-5.631625337372724,6.00162997356309,4.838525383817216,-29.186741660978118,45.812149513418625
0.5126742883156801,-5.923492753982505,6.050015227401262,5.296646878951402,-32.73139810874547,50.11641247032328
0.453439360775855,-6.25080673506996,6.102981696190777,5.797811003654635,-35.94609227001334,53.858813312338484
0.3909312934251554,-6.610267657770094,6.160959806227323,6.33639913677802,-37.79885788364578,55.576655010689855
0.32482861684745445,-6.988256236606552,6.224323797595104,6.892165686884919,-36.42038527633823,52.63015431668389
0.25494605448138896,-7.352460089369934,6.293245454463953,7.418467230051758,-29.18951614844511,41.32634749548483
0.18142145358768963,-7.644355250854385,6.367430126764471,7.831730705006606,-14.176202218795622,18.954393569945847
0.10497790107914577,-7.786117273042342,6.445747433814537,8.021274640706064,6.6937339462834275,-11.757775745950202
0.02711672834872235,-7.7191799335795075,6.525960180221598,7.903696883246562,26.384743072101234,-40.88022639061522
-0.05007507098707273,-7.455332502858495,6.604997149054063,7.49489461934041,38.07036369069567,-58.7646508561876
-0.12462839601565767,-7.074628865951538,6.679946095247468,6.907248110778534,40.94329580242107,-64.21947430456379
-0.19537468467517305,-6.665195907927327,6.749018576355253,6.265053367732896,38.42381082170492,-62.00786299097423
-0.2620266437544463,-6.2809577997102775,6.8116691100325815,5.644974737823153,33.834625747619306,-56.78138481964819
-0.3248362217515491,-5.942611542234085,6.868118857410813,5.077160889626671,28.98114065746454,-51.079373455819265
-0.3842623371738899,-5.652800135659439,6.91889046630708,4.566367155068479,24.571269357393106,-45.906991405777184
-0.4407903385304843,-5.407087442085508,6.964554137857765,4.1072972410107065,20.788584386482853,-41.53270847451311
-0.4948612129513394,-5.19920159822068,7.005627110267872,3.6919701562655756,17.614681809752742,-37.9380467462359
-0.5468532289335462,-5.023054780123152,7.042546811830528,3.3125896888032167,14.96999007031344,-35.01471545405901
-0.5970837767347776,-4.873354879420018,7.07567270871856,2.9624425342626264,12.767526658969405,-32.64040578292412
-0.6458173255289779,-4.745679612830323,7.105297134061186,2.6360384764333853,10.930568729097642,-30.704169877701194
-0.6932741216572811,-4.636373925539347,7.13165751882552,2.328996777656373,9.396545347974023,-29.11248265924913
-0.7396378609126746,-4.542408472059607,7.154947486602084,2.037871951063882,8.116145515134114,-27.788560839890156
-0.7850619456332707,-4.461247016908266,7.1753262061127225,1.7599863426649802,7.051089243481323,-26.669782844912298
-0.8296744158023533,-4.390736124473452,7.192926069539372,1.4932885142158572,6.17180032211097,-25.70496510805534
-0.8735817770470878,-4.329018121252343,7.207858954681531,1.2362388631353038,5.455367235292559,-24.85205012886334
-0.9168719582596112,-4.274464448899417,7.220221343312884,0.9877183618466705,4.883865349606432,-24.076312504853092
-0.9596166027486054,-4.225625795403353,7.230098526931351,0.7469552367981396,4.443010320812157,-23.34903380140938
-1.0018728607026388,-4.181195692195232,7.237568079299332,0.5134648987840458,4.121088821825273,-22.64655375687668
-1.0436848176245912,-4.139984803976978,7.242702728287172,0.28699936121527897,3.9081163329525643,-21.949602417088297
-1.085084665664361,-4.100903640647453,7.245572721899325,0.06750333704439598,3.795182646115702,-21.242827993174146
-1.1260937020708355,-4.062951814186296,7.24624775526977,-0.14492494288734548,3.7739563387261805,-20.51444875015681
-1.1667232202126985,-4.025212250799035,7.244798505840897,-0.3500694303889136,3.8363272633054253,-19.755971058189587
-1.2069753427206888,-3.9868489781659804,7.241297811537008,-0.5476291409708094,3.9741706295668355,-18.96192924163184
-1.2468438325023488,-3.947107271870312,7.2358215201273,-0.7372484333871278,4.179217948567155,-18.12961598824436
-1.2863149052210519,-3.9053150923846403,7.228449035793429,-0.9185445932695714,4.44301976488008,-17.258784674926456
-1.3253680561448982,-3.8608848947358396,7.219263589860733,-1.091132440018836,4.756983664376186,-16.351316598687873
-1.3639769050922566,-3.8133150580920776,7.208352265460545,-1.2546456060057147,5.112469434667689,-15.410856141814952
-1.4021100556731774,-3.762190363745401,7.195805809400488,-1.4087541674238642,5.50092224464931,-14.442424692604448
-1.4397319593106315,-3.7071811412989075,7.181718267726249,-1.5531784143499086,5.914024819649197,-13.452029196679488
-1.4768037707236206,-3.6480408931024155,7.1661864835827505,-1.6876987063167035,6.34385103563417,-12.446283345451473
-1.5132841796546448,-3.584602382746074,7.149309496519583,-1.8121615397712183,6.783006056449809,-11.432058799836035
-1.5491302034821055,-3.5167723221815756,7.131187881121871,-1.9264821277695787,7.224741770370173,-10.416181011845927
-1.5842979267039212,-3.444524904477874,7.111923059844176,-2.030643937888038,7.663040384097848,-9.405179880554645
-1.6187431757486999,-3.367894500636895,7.091616620465295,-2.1246957366935844,8.092663110745434,-8.40510047811963
-1.652422120755069,-3.286967869529441,7.07036966309836,-2.208746741474781,8.509164514344665,-7.421374161523957
-1.6852917994503633,-3.2018762243859946,7.048282195683612,-2.2829604830900205,8.908875945209703,-6.45874613656192
-1.7173105616942232,-3.1127874649338976,7.025452590852712,-2.3475479444556395,9.288863467792366,-5.521252333363985
-1.7484384363435623,-3.0198988302559737,7.001977111408156,-2.4027604677892795,9.646866737521272,-4.6122364362010915
-1.778637424646122,-2.923430162880761,6.977949506730263,-2.4488828321512903,9.981225527450452,-3.7343970462317237
-1.8078717262749298,-2.8236179076062564,6.95346067840875,-2.4862268026136074,10.290800208936622,-2.88985507533959
-1.8361079053509923,-2.72070990551689,6.928598410382614,-2.5151253533670035,10.574891649131278,-2.080232333030182
-1.8633150044061613,-2.6149609890255774,6.903447156848944,-2.5359276766973053,10.833164891751828,-1.3067336194001582
-1.889464614296417,-2.5066293401080593,6.878087880081972,-2.548995012891307,11.065579798833308,-0.5702262384046632
-1.9145309076974977,-2.395973542119726,6.852597929953059,-2.5546972752753536,11.272330674671412,0.12868749782746963
-1.938490643118695,-2.283250235373012,6.8270509572003055,-2.553410400297079,11.453795854392615,0.7896076351550444
-1.9613231454724251,-2.1687122768290856,6.8015168531973345,-2.5455143239455285,11.61049736882603,1.4122852913083848
-1.983010268240716,-2.0526073031408254,6.7760617099578795,-2.5313914710324448,11.743070116680254,1.9965830461400171
-2.0035363412721243,-1.9351766019740229,6.750747795247555,-2.5114256405710447,11.852239485841721,2.54244644317732
-2.0228881072918647,-1.8166542071156055,6.725633538841845,-2.4860011761392715,11.938806055439471,3.0498853942521844
-2.0410546493630206,-1.6972661465612109,6.700773527080452,-2.45550232219675,12.003635858283095,3.51896386660041
-2.0580273108286327,-1.5772297879783799,6.676218503858484,-2.420312683530746,12.04765466406763,3.9497960213440755
-2.0737996087084163,-1.4567532413377036,6.652015377023177,-2.380814723317305,12.071844830336984,4.342546930263735
-2.0883671411217932,-1.3360347930343337,6.628207229790004,-2.337389254014668,12.07724343366708,4.6974360893290275
-2.1017274890521365,-1.215262358697663,6.604833337249857,-2.2904148931213775,12.064940612179736,5.014742138247159
-2.113880112639113,-1.0946129525758657,6.581929188318643,-2.240267471738906,12.036077298706779,5.294807452906915
-2.124826242164872,-0.9742521795887978,6.559526513601254,-2.1873193972098366,11.991841780769281,5.538041572542886
-2.13456876396076,-0.854333761781105,6.537653319629156,-2.131938981484408,11.93346477130589,5.744922729871304
-2.143112101578571,-0.7349991140680461,6.516333929814311,-2.074489754185695,11.862212898664046,5.915997048712785
-2.150462092719251,-0.6163769850814056,6.495589032272454,-2.0153297836985673,11.779380715475744,6.051875242666127
-2.156625862570065,-0.49858317792664814,6.475435734435468,-1.954811031271906,11.68628147727311,6.15322687795197
-2.1616116943493315,-0.38172036315391705,6.455887624122749,-1.8932787624923864,11.5842370503509,6.220772446011887
-2.165428897980871,-0.26587799265040807,6.436954836497825,-1.8310710380322675,11.474567375058594,6.255273623612965
-2.168087677907375,-0.15113231889982212,6.418644126117502,-1.768518301796138,11.358579938745065,6.257522180663433
-2.169599001096373,-0.03754651951237148,6.400958943099541,-1.7059430799895035,11.237559707372641,6.228328032372669
-2.169974466291497,0.07482907756135494,6.383899512299646,-1.6436597996657767,11.112759933053374,6.16850692870951
-2.1692261755158833,0.18595667689188866,6.367462914302988,-1.5819747303786815,10.985394203705269,6.078868237625876
-2.1673666087469643,0.29581061892894134,6.351643166999201,-1.5211860480024229,10.856630037885088,5.960203217086422
-2.164408502557675,0.40437691930779224,6.336431306519177,-1.4615840158315587,10.727584259256465,5.8132740923098325
-2.160364733364597,0.5116527619003569,6.321815466360862,-1.4034512749084604,10.599320316792852,5.638804165833205
-2.1552482057455933,0.6176459650682854,6.307780953611777,-1.3470632332501284,10.472847653251105,5.437469095046026
-2.1490717460949105,0.7223744416007964,6.294310321279276,-1.2926885422996681,10.349123169041288,5.2098893794164125
-2.1418480016789023,0.8258656732912093,6.28138343585628,-1.240589648505504,10.229054783579183,4.956624011121706
-2.13358934494599,0.9281562211270011,6.268977539371225,-1.1910234083942868,10.11350706276413,4.678165160278425
-2.12430778273472,1.0292912917546424,6.257067305287282,-1.1442417567915024,10.003308859810053,4.374933690363165
-2.1140148698171735,1.1293243803527429,6.245624887719367,-1.1004924198878707,9.899262907145548,4.047275230668906
-2.102721626013646,1.2283170094241984,6.234619963520488,-1.0600196675811817,9.802157299038543,3.69545646990566
-2.0904384559194042,1.326338582414584,6.224019766844676,-1.0230651028821252,9.712778817436247,3.319661276893943
-2.0771750700952585,1.4234663705889463,6.213789115815855,-0.9898684901131858,9.631928076779033,2.919986198842554
-2.062940406389369,1.5197856513567367,6.203890430914723,-0.9606686281247603,9.560436497042154,2.4964348327667114
-2.0477425498758017,1.6153900163271582,6.194283744633475,-0.9357042797970931,9.499185158169904,2.0489105087803257
