th1 (rad),w1 (rad/s),th2 (rad),w2 (rad/s),a1 (rad/s^2),a2 (rad/s^2)
4.423049293222186,-2.5672051245608514,0.3900680501863594,1.8154029465386323,9.834406096701645,-2.6742666892998983
4.397377241976577,-2.468861063593835,0.40822207965174573,1.7886602796456332,9.881624879595249,-1.920045133775299
4.372688631340639,-2.3700448147978825,0.42610868244820205,1.7694598283078802,9.951967533070677,-1.2016653421814427
4.34898818319266,-2.2705251394671757,0.44380328073128084,1.7574431748860657,10.039928200224548,-0.5204768351080412
4.326282931797988,-2.1701258574649303,0.4613777124801415,1.7522384065349854,10.140128696811995,0.12138295744974671
4.304581673223339,-2.0687245704968102,0.4789000965454913,1.7534522361094829,10.247293295121349,0.721149982866367
4.283894427518371,-1.9662516375455967,0.49643461890658613,1.7606637359381465,10.356249229683893,1.2755983026059283
4.264231911142915,-1.8626891452487577,0.5140412562659676,1.7734197189642058,10.461951380368614,1.7812114758437507
4.245605019690428,-1.7580696314450717,0.5317754534556097,1.7912318337226434,10.559529444411217,2.2343619872594975
4.228024323375977,-1.6524743370009596,0.5496877717928361,1.8135754535952384,10.644355370404075,2.631498212181651
4.211499580005968,-1.546030783296919,0.5678235263287885,1.839890435717055,10.712127941700624,2.9693363995939537
4.196039272172999,-1.4389095038799127,0.586222430685959,1.8695837997129945,10.758970246007767,3.245053095041718
4.181650177134199,-1.331319801419835,0.604918268683089,1.9020343306634118,10.781534479275287,3.456471454738419
4.168336979120001,-1.2235044566270823,0.6239386119897231,1.936599045210796,10.777107280097322,3.6022332177351104
4.15610193455373,-1.115733383826109,0.6433046024418311,1.9726213773881471,10.743707788861094,3.6819469488429477
4.144944600715469,-1.008296305937498,0.6630308162157126,2.0094408468765765,10.680170102427065,3.696302795001398
4.134861637656094,-0.9014946049132274,0.6831252246844783,2.0464038748265905,10.58620195858034,3.647144626552634
4.125846691606962,-0.795632585327424,0.7035892634327442,2.082875321092117,10.462412479406321,3.5374921818679743
4.117890365753688,-0.6910084605333607,0.7244180166436653,2.1182502429107966,10.310303667260287,3.3715086728995938
4.110980281148354,-0.5879054238607578,0.7456005190727734,2.1519653296397925,10.13222298287303,3.154413038572818
4.105101226909746,-0.48658319403202754,0.7671201723691713,2.1835094600255207,9.931277501452398,2.8923402774949545
4.100235394969427,-0.3872704190175036,0.7889552669694265,2.2124328628004704,9.711213480233544,2.592157545733002
4.096362690779252,-0.29015828421516815,0.8110795955974313,2.2383544382578004,9.476268256731124,2.2612474120261568
4.0934611079371,-0.1953956016478569,0.8334631399800093,2.260966912378062,9.231003818675033,1.9072723122546926
4.091507151920621,-0.10308556346110657,0.8560728091037899,2.2800396355006085,8.980132820907144,1.537935473369512
4.09047629628601,-0.013284235252035134,0.878873205458796,2.2954189902343036,8.728348099099419,1.1607532368168396
4.09034345393349,0.07399924573895905,0.901827395361139,2.307026522602472,8.480165854126918,0.782851897253214
4.091083446390879,0.15880090428022825,0.9248976605871637,2.314855041575004,8.239790836074349,0.4107991946095412
4.092671455433681,0.24119881264097173,0.9480462110029138,2.3189630335210993,8.011009353664425,0.05047691396030995
4.095083443560091,0.321308906177616,0.9712358413381248,2.3194678026607023,7.797113146379539,-0.2930028299410999
4.098296532621867,0.3992800376414114,0.9944305193647318,2.3165377743612914,7.600854447449545,-0.6153386448143132
4.102289332998281,0.47528858211590685,1.0175958971083447,2.3103843879131483,7.424430233821734,-0.9130422269305367
4.107042218819441,0.5495328844541242,1.0406997409874763,2.301253965643843,7.269491898679046,-1.1834081182392011
4.112537547663982,0.6222278034409147,1.0637122806439148,2.2894198844614513,7.137175474320336,-1.4244581150672386
4.118759825698391,0.693599558184118,1.0866064794885293,2.275175303310779,7.028147058749988,-1.6348679244078481
4.125695821280233,0.7638810287716179,1.1093582325216371,2.2588266240667005,6.942658164647105,-1.8138833084024362
4.133334631567949,0.833307610418089,1.131946498762304,2.240687790982676,6.8806061792516795,-1.9612321119220424
4.14166770767213,0.9021136722106058,1.1543533766721308,2.2210754698634556,6.84159585115694,-2.077037436983663
4.150688844394236,0.9705296307221752,1.1765641313707653,2.200305095493619,6.824998569385203,-2.161735991617413
4.160394140701458,1.0387796164160272,1.1985671823257016,2.1786877355774448,6.830007061309343,-2.216004439956485
4.170781936865618,1.1070796870291206,1.2203540596814761,2.15652769117788,6.855683930209453,-2.2406955097130252
4.181852733735909,1.1756365263312152,1.241919336593255,2.1341207360807495,6.901003132638224,-2.236784725594932
4.193609098999221,1.2446465576575974,1.2632605439540625,2.1117528888248,6.964884038736088,-2.2053279509294317
4.206055564575797,1.3142953980449583,1.2843780728423104,2.0896996093155056,7.0462181235219745,-2.1474294281832
4.219198518556246,1.384757579280178,1.3052750689354655,2.068225315033674,7.1438886156178665,-2.064219689885917
4.233046094349048,1.4561964654363568,1.3259573220858023,2.0475831181348148,7.256783600974072,-1.9568425343591063
4.247608059003412,1.5287643014460977,1.3464331532671505,2.0280146927912237,7.383803165075458,-1.8264501930430088
4.2628957020178735,1.6026023330968522,1.3667133001950627,2.0097501908607938,7.523861179835162,-1.674205827032904
4.278921725348842,1.6778409448952039,1.3868108021036707,1.9930081325904647,7.6758823209145115,-1.501292552246711
4.295700134797794,1.754599768104349,1.4067408834295754,1.9779952070679976,7.838794854595075,-1.308928282512947
4.313246132478838,1.8329877166502997,1.4265208355002554,1.9649059242428681,8.011519674424319,-1.0983857793854153
4.331576009645341,1.913102913394543,1.4461698947426842,1.953922066449014,8.192956007490302,-0.8710173923114756
4.350707038779286,1.995032473469446,1.4657091154071744,1.9452118925258992,8.381964156558116,-0.6282840519181351
4.370657363513981,2.078852115035027,1.4851612343324334,1.938929052006718,8.577345603477442,-0.3717881342613695
4.391445884664331,2.1646255710698017,1.5045505248525006,1.9352111706641042,8.777820775608522,-0.10330983848203236
4.41309214037503,2.252403778825887,1.5239026365591417,1.9341780722792838,8.982004773568507,0.17515329059036683
4.435616178163288,2.3422238265615722,1.5432444172819346,1.9359296051851875,9.188381377402925,0.46134411370883477
4.459038416428903,2.4341076403356015,1.5626037133337864,1.940543046322276,9.395275690524093,0.7527014340934352
4.48337949283226,2.5280603972408424,1.5820091437970092,1.9480700606632102,9.600825846855933,1.0463139693614674
4.508660096804668,2.6240686557094017,1.6014898444036414,1.9585332003568248,9.802954296257818,1.3388735916425587
4.5349007833617625,2.72209819867198,1.6210751764072096,1.9719219362732503,9.999339295367571,1.6266288987402096
4.562121765348483,2.822091591625656,1.640794395769942,1.9881882252606524,10.187387363600326,1.9053404534216711
4.590342681264739,2.9239654652616593,1.6606762780225486,2.007241629794869,10.364207614489331,2.1702393433143254
4.6195823359173565,3.0276075414065526,1.6807486943204972,2.0289440232280125,10.52658903754995,2.4159910651402767
4.649858411331422,3.1328734317820524,1.7010381345527774,2.0531039338794153,10.67098198175497,2.6366671167793347
4.681187145649242,3.239583251599602,1.7215691738915715,2.0794706050472085,10.793485275067049,2.825727079707745
4.713582978165238,3.3475181043502724,1.7423638799420436,2.107727875844286,10.889840602685965,2.9760143820680214
4.747058159208741,3.456416510377132,1.7634411587004863,2.1374880196649664,10.955435958815348,3.0797693374547688
4.781622324312512,3.5659708699652857,1.784816038897136,2.168285713039514,10.985320184346845,3.1286634445483443
4.817282033012165,3.675824071808754,1.806498896027531,2.1995723474849975,10.974230810240496,3.113859295771247
4.854040273730253,3.785566379911159,1.828494619502381,2.23071094044271,10.916637650271134,3.0261007656333105
4.891895937529364,3.8947327564138705,1.8508017289068082,2.2609719480990433,10.806804834394692,2.855838413580159
4.930843265093503,4.002800804757817,1.8734114483877986,2.289530332234845,10.638874248725555,2.593395214122624
4.970871273141081,4.109189547245073,1.896306751710147,2.315464284376071,10.406973642477093,2.2291777712052885
5.011963168613532,4.213259283669844,1.9194613945539079,2.337756062088124,10.105352946680044,1.7539380026063862
5.05409576145023,4.314312813136644,1.942838955174789,2.355295442114188,9.728552557618755,1.1590897596430345
5.097238889581597,4.411598338712832,1.966391909595931,2.3668863397106183,9.271607348321712,0.4370837703007859
5.1413548729687255,4.504314412196049,1.9900607729930373,2.3712571774136264,8.730289789121503,-0.41815763900968855
5.186398017090686,4.591617310087264,2.0137733447671735,2.3670756010235294,8.101394500472656,-1.4107477753707987
5.232314190191558,4.67263125509199,2.037444100777409,2.3529681232698216,7.3830644560872685,-2.5422914217344625
5.279040502742478,4.7464618996528625,2.060973782010107,2.327545209052477,6.575155465596095,-3.811303115555776
5.3265051217390065,4.812213454308823,2.084249234100632,2.289432177896919,5.679630058470185,-5.212611513750731
5.3746272562820945,4.869009754893525,2.1071435558796012,2.2373060627594117,4.700964156272266,-6.736786083085005
5.423317353831029,4.916019396456248,2.1295166165071953,2.1699382019285616,3.6465399704036368,-8.369637225823686
5.472477547795592,4.9524847961602845,2.1512159985264807,2.0862418296703247,2.5269869859049026,-10.091856676561795
5.522002395757195,4.977754666019334,2.172078416823184,1.9853232629047066,1.356421128528503,-11.87887889159258
5.571779942417388,4.991318877304619,2.191931649452231,1.8665344739887808,0.15252275163509457,-13.701052086517146
5.621693131190434,4.9928441048209695,2.2105969941921186,1.7295239531236093,-1.0636095720531047,-15.524204300324229
5.671621572238644,4.982208009100439,2.2278922337233547,1.5742819101203671,-2.2678862357575786,-17.31066987854324
5.721443652329649,4.959529146742863,2.2436350528245583,1.4011752113349347,-3.4339717853726346,-19.020801036895303
5.771038943797078,4.925189428889137,2.2576468049379077,1.2109672009659818,-4.534350173609305,-20.614927414809966
5.8202908380859695,4.879845927153044,2.2697564769475673,1.004817926817882,-5.541663983397083,-22.055649510794456
5.8690892973575,4.824429287319073,2.279804656215746,0.7842614317099375,-6.430227002883925,-23.31027251420966
5.917333590230691,4.760127017290234,2.2876472705328457,0.5511587065678408,-7.177560130312011,-24.35312408292086
5.964934860403593,4.688351415987114,2.2931588575985242,0.3076274657386322,-7.765770086584337,-25.16747333480779
6.011818374563465,4.610693715121271,2.2962351322559105,0.05595273239055426,-8.18259071594579,-25.746793715964312
6.057925311714677,4.528867807961813,2.296794659579816,-0.20151520476908885,-8.421942971505644,-26.09519235197132
6.103213989794296,4.4446483782467565,2.294779507532125,-0.46246712828880204,-8.483937278534118,-26.226950118797863
6.147660473576763,4.359809005461416,2.2901548362492368,-0.7247366294767807,-8.374326389684231,-26.165253538821705
6.191258563631377,4.276065741564573,2.282907469954469,-0.9863891648649978,-8.103498105385164,-25.940319600432566
6.234019221047022,4.195030760510722,2.273043578305819,-1.2457923608693235,-7.685156429819558,-25.587190590580153
6.27596952865213,4.118179196212527,2.260585654697126,-1.501664266775125,-7.13486521574389,-25.143494605721756
6.317151320614255,4.046830544055088,2.245569012029375,-1.7530992128323426,-6.468618758241966,-24.647431937814233
6.357619626054806,3.982144356472668,2.2280380199010517,-1.9995735322104848,-5.70156700994486,-24.136174818298077
6.397441069619533,3.9251286863732195,2.208042284578947,-2.2409352803934657,-4.846972150692758,-23.644780810572872
6.436692356483265,3.876658964866292,2.1856329317750123,-2.4773830884991943,-3.9154214575780664,-23.205639347533644
6.475458946131928,3.8375047502905115,2.16085910089002,-2.7094394819745307,-2.9142786873421866,-22.84841026348549
6.513833993634833,3.8083619634170898,2.133764706070275,-2.9379235846093854,-1.847327540167364,-22.60037773022016
6.551917613269004,3.789888688015416,2.104385470224181,-3.163927361911587,-0.714546967662219,-22.487130512397123
6.589816500149158,3.782743218338794,2.072746196605065,-3.3887986670355583,0.48804264292054406,-22.53348294616151
6.627643932332546,3.7876236447679994,2.0388582099347095,-3.6141334964971734,1.7685131067477435,-22.764561127390703
6.665520168780226,3.805308775835477,2.002716874969738,-3.8417791077710803,3.139171490711364,-23.206984434308605
6.703573256538581,3.8367004907425906,1.9642990838920271,-4.073848952114166,4.61670594486338,-23.890059518240275
6.741940261446007,3.882867550191224,1.9235605943708856,-4.312749547296569,6.222263897668475,-24.84685015942511
6.7807689369479185,3.945090189167909,1.8804330988979199,-4.5612180488908205,7.981273208333513,-26.114851682831567
6.820219838839598,4.024902921251244,1.8348209184090116,-4.822366565719136,9.922586128339612,-27.735704615336147
6.86046886805211,4.12412878253464,1.7865972527518204,-5.099723611872498,12.076071152885596,-29.752774114832217
6.901710155877456,4.2448894940634965,1.7356000166330954,-5.3972513530208195,14.46688191654501,-32.204198294985225
6.944159050818091,4.389558313228947,1.6816275031028871,-5.719293335970672,17.10289574729816,-35.106611920501436
6.98805463395038,4.560587270701928,1.6244345697431803,-6.070359455175686,19.948585275103145,-38.420263380585084
7.0336605066574,4.76007312345296,1.5637309751914235,-6.454562088981537,22.873137521383104,-41.97861760361988
7.08126123789193,4.988804498666791,1.499185354301608,-6.874348265017736,25.55360597613977,-45.35559144427259
7.131149282878598,5.244340558428189,1.4304418716514307,-7.327904179460462,27.313294742471804,-47.64234216486301
7.18359268846288,5.517473505852907,1.3571628298568261,-7.804327601109092,26.914521263094954,-47.15900207834529
7.238767423521408,5.786618718483856,1.2791195538457352,-8.275917621892544,22.487863207695373,-41.35281624158224
7.296633610706247,6.01149735056081,1.1963603776268097,-8.689445784308367,12.1315192963492,-27.623439004319152
7.356748584211855,6.132812543524302,1.109465919783726,-8.965680174351558,-4.216710872018403,-5.911583227876819
7.4180767096470985,6.090645434804118,1.0198091180402105,-9.024796006630327,-22.756582829608842,18.516047333034855
7.47898316399514,5.8630796065080295,0.9295611579739071,-8.839635533299978,-37.35950921290171,37.234286739061545
7.53761396006022,5.489484514379012,0.8411648026409073,-8.467292665909362,-44.6171347578721,45.657929401528094
7.592508805204011,5.043313166800291,0.7564918759818137,-8.01071337189408,-45.6775150041263,45.502872520008715
7.642941936872013,4.586538016759028,0.6763847422628728,-7.555684646693994,-43.43686846337631,40.83103176149383
7.688807317039603,4.152169332125265,0.6008278957959329,-7.147374329079056,-40.09667558877547,34.68224335909669
7.7303290103608555,3.7512025762375103,0.5293541525051423,-6.800551895488089,-36.770228970629724,28.568445868166688
7.76784103612323,3.383500286531213,0.4613486335502614,-6.514867436806422,-33.88272558295606,23.049713278600887
7.801676038988543,3.0446730307016523,0.3961999591821972,-6.284370304020413,-31.536117860840523,18.24589188544023
7.832122769295559,2.729311852093247,0.33335625614199305,-6.101911385166011,-29.70556849074381,14.108746475309738
7.859415887816492,2.432256167185809,0.2723371422903329,-5.960823920412914,-28.32664478067686,10.541386185238064
7.88373844948835,2.14898971937904,0.21272890308620376,-5.855410058560533,-27.329707676424437,7.444730150315736
7.90522834668214,1.8756926426147957,0.15417480250059842,-5.780962757057376,-26.651615263140673,4.7330272495651435
7.923985273108288,1.6091764899833891,0.09636517493002467,-5.733632484561724,-26.238359974212603,2.337234870384326
7.940077038008122,1.3467928902412631,0.03902885008440742,-5.710260135857881,-26.044380898778797,0.204090024437073
7.953544966910534,1.0863490812534753,-0.018073751274171393,-5.708219235613511,-26.030867700756353,-1.7060264857772667
7.964408457723069,0.8260404042459117,-0.0751559436303065,-5.7252795004712835,-26.163945155847557,-3.421292273237528
7.972668861765528,0.5644009526874362,-0.13240873863501934,-5.759492423203659,-26.413051072284155,-4.960361062122362
7.9783128712924025,0.3002704419645946,-0.19000366286705594,-5.809096033824882,-26.749599269991034,-6.333951851014462
7.981315575712048,0.03277444926468426,-0.24809462320530476,-5.872435552335026,-27.145943982631994,-7.546176426749118
7.981643320204695,-0.23868499056163567,-0.30681897872865505,-5.947897316602517,-27.574644516982797,-8.595704803218783
7.979256470299078,-0.5144314357314637,-0.36629795189468023,-6.0338543646347045,-28.008031792447074,-9.47686964676307
7.974112155941763,-0.7945117536559344,-0.4266364955410273,-6.128623061102335,-28.418084837346857,-10.180798434622067
7.966167038405204,-1.078692602029403,-0.4879227261520506,-6.230431045448555,-28.77662727940998,-10.696641091086962
7.95538011238491,-1.3664588748235027,-0.5502270366065362,-6.337397456359425,-29.05584681845614,-11.012931613620157
7.941715523636675,-1.6570173430080641,-0.6136010111701304,-6.4475267724956264,-29.229122215262638,-11.119084313954204
7.925145350206594,-1.9493085651606905,-0.6780762788950867,-6.558717615635168,-29.272112241663766,-11.006979723071048
7.905652264554987,-2.242029687577328,-0.7436634550514384,-6.668787412865878,-29.164021928055288,-10.672545815405037
7.8832319676792135,-2.533669906857881,-0.8103513291800972,-6.775512871019929,-28.888919398996837,-10.11719449225403
7.857895268610635,-2.8225591008478492,-0.8781064578902965,-6.876684815942469,-28.436941046367345,-9.348941862668374
7.829669677602157,-3.106928511311523,-0.9468733060497212,-6.970174234569153,-27.805205137404243,-8.383035472094994
7.798600392489042,-3.3849805626855654,-1.0165750483954128,-7.054004589290103,-26.998264626235706,-7.241941418324392
7.764750586862186,-3.6549632089479225,-1.0871150942883139,-7.126424003473347,-26.02797456780818,-5.954611628714149
7.728200954772706,-3.915242954626004,-1.1583793343230473,-7.185970119760489,-24.91272548307159,-4.555048782602576
7.689048525226446,-4.16437020945672,-1.2302390355206523,-7.231520607586514,-23.676089020606625,-3.0802954360576904
7.647404823131879,-4.401131099662787,-1.3025542415965174,-7.262323561947091,-22.345016467526005,-1.5680702463480243
7.603393512135251,-4.624581264338047,-1.3751774772159884,-7.278004264410571,-20.947802133506414,-0.05433380150100033
7.55714769949187,-4.834059285673111,-1.447957519860094,-7.278547602425581,-19.512055335134374,1.4289259316634424
7.508807106635139,-5.029179839024454,-1.52074299588435,-7.2642583431089465,-18.06291025084762,2.855444417510425
7.458515308244895,-5.2098089415329305,-1.5933855793154394,-7.235703898933842,-16.621648435597685,4.205809686696933
7.406417218829565,-5.3760254258889075,-1.6657426183047779,-7.1936458020668725,-15.20483024146662,5.467915783036594
7.352656964570676,-5.528073728303574,-1.7376790763254466,-7.138966644236507,-13.823948682413238,6.636783945827697
7.29737622728764,-5.6663132151277065,-1.8090687427678116,-7.07259880477823,-12.485549856905369,7.7138673665274995
7.240713095136363,-5.79116871369676,-1.8797947308155938,-6.995460131112955,-11.191718532265877,8.70599397194079
7.182801407999396,-5.903085899019419,-1.9497493321267234,-6.908400191393547,-9.940808502594985,9.624107539410083
7.123770549009201,-6.002493984045369,-2.018833334040659,-6.812159115999446,-8.728300976717057,10.481948467914075
7.063745609168747,-6.0897769938125395,-2.0869549252006534,-6.7073396313203055,-7.547693113610457,11.294782469352722
7.002847839230622,-6.165253924948644,-2.1540283215138563,-6.594391806626779,-6.391344872889917,12.078248410615746
6.9411952999811355,-6.229167373677543,-2.219972239580124,-6.4736093225206215,-5.251238974611939,12.847362930974368
