th1 (rad),w1 (rad/s),th2 (rad),w2 (rad/s),a1 (rad/s^2),a2 (rad/s^2)
4.007050505041356,0.7139043066980039,1.0309162547148583,-3.0430815247243124,5.052455771471167,-3.3387519219662405
4.014189548108336,0.7644288644127155,1.000485439467615,-3.0764690439439746,5.6075777801186,-2.6126738129504483
4.021833836752463,0.8205046422139015,0.9697207490281753,-3.102595782073479,6.209638514805113,-1.8373767865533357
4.030038883174602,0.8826010273619527,0.9386947912074405,-3.120969549939012,6.847445340222909,-1.0285897146554148
4.038864893448221,0.9510754807641818,0.9074850957080504,-3.1312554470855662,7.50665499927359,-0.20648443715314568
4.048375648255863,1.0261420307569178,0.8761725412371947,-3.133320291457098,8.170347299823641,0.6050062303504403
4.058637068563432,1.1078455037551542,0.8448393383226237,-3.1272702291535937,8.81997835639625,1.3793829015731514
4.069715523600983,1.1960452873191167,0.8135666360310878,-3.1134764001378623,9.436646944978568,2.08920899286778
4.081675976474175,1.2904117567689024,0.7824318720297092,-3.0925843102091846,10.002537875394108,2.708003814344201
4.094580094041864,1.3904371355228435,0.7515060289276173,-3.0655042720657426,10.50235617697971,3.2121576938757355
4.108484465397092,1.4954606972926405,0.7208509862069599,-3.0333826951269853,10.924552464437907,3.582603593473953
4.123439072370019,1.6047062219370196,0.69051715925569,-2.997556659192246,11.26217039363239,3.8060133012605215
4.139486134589389,1.7173279258733436,0.6605415926637676,-2.959496526179641,11.513215165624972,3.875370464726908
4.156659413848122,1.8324600775295934,0.6309466274019712,-2.9207428215323716,11.680529184939495,3.789884590775633
4.174984014623418,1.9492653693789883,0.6017391991866474,-2.882843975624615,11.771243813487207,3.5543194836282246
4.194476668317209,2.0669778075138603,0.5729107594304013,-2.847300780788333,11.795934898595277,3.1778900732837316
4.215146446392347,2.1849371564998132,0.544437751622518,-2.8155218800554955,11.767634443256473,2.6729190222021844
4.236995817957345,2.302613500932378,0.516282532821963,-2.788792689833474,11.700842737873321,2.053439154833269
4.260021952966668,2.419621928311111,0.48839460592362827,-2.7682582982851414,11.610654065699578,1.3338908990536393
4.28421817224978,2.5357284689681068,0.46071202294077684,-2.754919389294605,11.512067513736406,0.5280114945334907
4.309575456939461,2.6508491441054707,0.43316282904783077,-2.74963927434927,11.41951387515973,-0.35204060854376346
4.336083948380516,2.765044282857068,0.4056664363043381,-2.753159680434708,11.346597562280369,-1.2963270449411262
4.3637343912090865,2.8785102584798716,0.378134839499991,-2.766122950884119,11.306031901780406,-2.2975683218933742
4.392519493793885,2.9915705774976757,0.3504736099911498,-2.789098634103053,11.309736787360155,-3.3514295106850573
4.422435199568862,3.1046679453712773,0.32258262365011925,-2.8226129292099036,11.369067141868495,-4.45670931591762
4.453481879022575,3.2183586167899625,0.2943564943580202,-2.8671800223690798,11.495146145148148,-5.615489222231212
4.485665465190475,3.333310078241444,0.2656846941343294,-2.923334914591392,11.6992861729021,-6.8332963518223195
4.518998565972889,3.4503029399704648,0.23645134498841547,-2.9916678781096153,11.993491019089968,-8.119330100524353
4.553501595372594,3.5702378501613645,0.2065346662073193,-3.072861179114859,12.391044115459854,-9.48680042331075
4.589203973874207,3.694148291315963,0.17580605441617073,-3.1677291833479666,12.907198501739957,-10.953425741870104
4.626145456787367,3.8232202763333625,0.14412876258269106,-3.2772634407666676,13.559994728077985,-12.542140736886857
4.664377659550701,3.9588202236141425,0.11135612817502438,-3.4026848481355363,14.371241596176962,-14.28206710301837
4.703965861786843,4.102532639575912,0.07732927969366901,-3.54550551916572,15.36769870333941,-16.20979900624371
4.744991188182602,4.256209626609307,0.04187422450201181,-3.707603509228157,16.582491614555163,-18.371038249425602
4.787553284448695,4.422034542754859,0.004798189409730237,-3.891313891722413,18.05675214967923,-20.82255606547762
4.831773629876244,4.602602064251651,-0.03411494950749389,-4.099539452377189,19.841366032668414,-23.634299853886287
4.87779965051876,4.801015724578336,-0.07511034403126579,-4.335882450916052,21.998432733724936,-26.89106980309084
4.925809807764543,5.021000051915585,-0.1184691685404263,-4.6047931489469605,24.601381479764218,-30.692258267941657
4.9760198082836995,5.267013866713227,-0.1645171000298959,-4.911715731626377,27.73115584963666,-35.145989839121135
5.0286899469508315,5.5443254252095935,-0.21363425734615965,-5.263175630017589,31.46239969063188,-40.34910969282039
5.084133201202928,5.858949422115912,-0.2662660136463355,-5.666666726945793,35.82588313271377,-46.33365989557167
5.142722695424087,6.21720825344305,-0.3229326809157934,-6.13000332590151,40.71734123576398,-52.93791638649775
5.2048947779585175,6.62438166580069,-0.38423271417480853,-6.659382489766487,45.69389103660276,-59.519309889959715
5.271138594616525,7.081320576166718,-0.4508265390724734,-7.254575588666084,49.5681836087948,-64.3829897631663
5.341951800378192,7.577002412254665,-0.5233722949591342,-7.898405486297747,49.77774904172062,-63.89449201894253
5.417721824500739,8.074779902671871,-0.6023563498221116,-8.537350406487173,42.04837165516118,-52.006687052000096
5.498469623527458,8.495263619223483,-0.6877298538869834,-9.057417277007174,22.348171312620224,-23.010708670953377
5.583422259719693,8.718745332349686,-0.7783040266570551,-9.287524363716708,-6.907189732629633,19.73048473426601
5.6706097130431905,8.64967343502339,-0.8711792702942222,-9.090219516374047,-33.42164177024526,58.9411571412797
5.757106447393425,8.315457017320938,-0.9620814654579626,-8.50080794496125,-46.194991193717975,79.11512099960065
5.840261017566634,7.853507105383758,-1.047089544907575,-7.709656734965244,-46.257122553074005,81.59255449898774
5.918796088620472,7.390935879853018,-1.1241861122572274,-6.893731189975367,-40.30970837838777,75.68728239516409
5.992705447419002,6.98783879606914,-1.193123424156981,-6.136858366023726,-33.00347968240605,67.88609979161966
6.0625838353796935,6.65780399924508,-1.2544920078172184,-5.457997368107529,-26.205408587607934,60.80680137041028
6.129161875372144,6.395749913369,-1.3090719814982936,-4.849929354403426,-20.386535695710425,55.12091190968449
6.193119374505835,6.191884556411896,-1.3575712750423279,-4.298720235306581,-15.522933859064239,50.80375963640597
6.255038220069953,6.036655217821254,-1.4005584773953936,-3.790682638942521,-11.462898617998551,47.643969593458
6.315404772248166,5.922026231641269,-1.4384653037848187,-3.314242943007941,-8.04972038128614,45.41364139201309
6.374625034564579,5.8415290278284075,-1.4716077332148982,-2.86010652908781,-5.154983951641031,43.914213262184596
6.433040324842863,5.789979188311997,-1.5002087985057764,-2.420964396465964,-2.6826763890268497,42.98176231916083
6.490940116725983,5.763152424421729,-1.5244184424704361,-1.9911467732743557,-0.5650870749572546,42.481042329563756
6.5485716409702,5.7575015536721565,-1.5443299102031798,-1.5663363499787182,1.24274293405472,42.297870692128
6.606146656506922,5.769928983012703,-1.559993273702967,-1.1433576430574381,2.7681417822195056,42.33273369916871
6.663845946337049,5.797610400834898,-1.5714268501335413,-0.720030306065751,4.02520152252566,42.49627098994434
6.721822050345398,5.837862416060155,-1.5786271531941989,-0.29506759616630757,5.018596162477566,42.7066235123658
6.780200674505999,5.88804837768493,-1.581577829155862,0.13199863895735048,5.747027998377318,42.888434081969976
6.839081158282848,5.945518657668703,-1.5802578427662886,0.5608829797770503,6.206430755371203,42.9732146736324
6.898536344859536,6.007582965222415,-1.574649012968518,0.9906151265133742,6.3929432989641874,42.900727155862214
6.95861217451176,6.071512398212057,-1.5647428617033843,1.4196223980719964,6.305556675970393,42.62094728576503
7.019327298493881,6.134567964971762,-1.5505466377226642,1.8458318709296466,5.94825799774197,42.09611832225723
7.080672978143599,6.194050544949182,-1.5320883190133678,2.266793054152219,5.331469089332643,41.30238676424448
7.142613483593091,6.2473652358425085,-1.5094203884718456,2.679816921794664,4.472617713332315,40.23057848331938
7.205087135951516,6.292091412975831,-1.482622219253899,3.0821227066278576,3.395779779293378,38.88582688334749
7.268008050081274,6.326049210768765,-1.4518009921876203,3.4709809754613326,2.1304685304004587,37.28598351168295
7.331268542188962,6.34735389607277,-1.417091182433007,3.843840810578162,0.7097839221329368,35.45897758812494
7.39474208114969,6.3544517352940995,-1.3786527743272254,4.198430586459412,-0.831766378653205,33.43948616166906
7.458286598502631,6.346134071507567,-1.3366684684626313,4.532825448076102,-2.460429839797331,31.26538446852719
7.521747939217707,6.321529773109594,-1.2913402139818704,4.845479292761374,-4.145048036454681,28.974447827348154
7.584963236948803,6.2800792927450475,-1.2428854210542566,5.135223771034856,-5.858354700563845,26.60168521960658
7.647764029876253,6.221495745739409,-1.191533183343908,5.4012406232309225,-7.577631850511487,24.17753667191753
7.709978987333647,6.145719427234294,-1.1375207771115987,5.643015989950098,-9.28473515353311,21.72700487016803
7.77143618160599,6.0528720756989625,-1.0810906172120978,5.860286038651778,-10.965586961622385,19.26965164021727
7.83196490236298,5.943216206082739,-1.02248775682558,6.05298255505395,-12.609288922815553,16.820291949253402
7.891397064423807,5.817123316854583,-0.9619579312750404,6.221185474546484,-14.207027149652982,14.390165968453234
7.949568297592353,5.675053045358053,-0.8997460765295755,6.3650871342310165,-15.750939040068394,11.988356615130742
8.006318828045933,5.517543654957369,-0.8360952051872653,6.484970700382324,-17.233090735003127,9.623234505300438
8.061494264595506,5.345212747607338,-0.7712454981834421,6.581203045435329,-18.644684815641128,7.303743700316963
8.11494639207158,5.158765899450927,-0.7054334677290889,6.654240482438499,-19.97558326700124,5.040382601162678
8.16653405106609,4.959010066780914,-0.6388910629047039,6.704644308450125,-21.214192718913754,2.8457808860233023
8.216124151733899,4.7468681395917764,-0.5718446198202026,6.7331021173103585,-22.347718396812795,0.73482367131745
8.263592833129817,4.523390955623649,-0.504513598647099,6.740450354023533,-23.362751602374814,-1.275673517784476
8.308826742686053,4.2897634395999,-0.4371090951068637,6.727693618845689,-24.246116057704555,-3.1676838178493947
8.351724377082052,4.047302279022855,-0.3698321589184068,6.696016780667195,-24.98586591325805,-4.9229811525095055
8.39219739987228,3.797443619890274,-0.30287199111173485,6.6467869691421,-25.572308164669625,-6.52431049307822
8.430171836071183,3.541720538243578,-0.23640412142031386,6.581543864211318,-25.998919206781988,-7.956565149939582
8.465589041453619,3.281731346175758,-0.17058868277820066,6.501978212711923,-26.26304112178411,-9.207825064611088
8.498406354915376,3.0191009349579168,-0.10556890065108143,6.409899962065812,-26.366276080565374,-10.27013602072438
8.528597364264956,2.755438174152263,-0.041469901030423306,6.307198601858568,-26.314541201278438,-11.139951808097722
8.556151746006478,2.4922927621394786,0.02160208498816238,6.195799083777591,-26.117793171727232,-11.818211601249484
8.581074673627873,2.2311148304222064,0.0835600758259383,6.077616967765096,-25.78947337862829,-12.310073797086522
8.603385821932095,1.9732200966359235,0.14433624550358926,5.954516229794232,-25.34575349762384,-12.624367025911443
8.623118022898455,1.719762561659685,0.20388140780153158,5.828272559535117,-24.804675076127,-12.772843699943898
8.64031564851505,1.471715810898415,0.26216413339688277,5.700544122535678,-24.185274833782028,-12.76932976935713
8.655032806624035,1.2298630625605946,0.31916957462223955,5.572850824842107,-23.506773420673884,-12.628858232931705
8.667331437249642,0.9947953283538558,0.3748980828706606,5.44656224251279,-22.787884046233145,-12.36685758957318
8.67727939053318,0.7669164878915243,0.42936370529578854,5.322893666617059,-22.046273747846456,-11.998444827598796
8.684948555412095,0.5464537504130598,0.4825926419619591,5.2029092183410715,-21.2981882213646,-11.53785029937762
8.690413092916225,0.33347186819941377,0.5346217341453698,5.087530715347295,-20.558233721540322,-10.997982267182518
8.69374781159822,0.12788953098401054,0.5854970412988428,4.97755089267547,-19.839297663116422,-10.39012390617563
8.69502670690806,-0.07050344564715369,0.6352725502255976,4.873649653613714,-19.152583082237822,-9.723745668403183
8.694321672451588,-0.2620292764695319,0.6840090467617347,4.776412196929682,-18.507730133413492,-9.006410762127034
8.691701379686894,-0.4471065778036668,0.7317731687310315,4.686348089308412,-17.912999022968663,-8.243750184904332
8.687230313908858,-0.6262365680333535,0.7786366496241156,4.603910587459368,-17.37549190761402,-7.43948522291102
8.680967948228524,-0.7999914871094937,0.8246757554987093,4.529515735230258,-16.90139516423203,-6.5954786683891875
8.67296803335743,-0.9690054387518141,0.8699709128510119,4.463560948546366,-16.49622713016189,-5.711800568633152
8.663277978969912,-1.133967710053433,0.9146065223364755,4.406442942860035,-16.165079171339674,-4.786799836473241
8.651938301869377,-1.2956185017668298,0.9586709517650759,4.358574944495302,-15.91283908610816,-3.817179704160152
8.63898211685171,-1.4547468926279115,1.002256701210029,4.320403147453701,-15.744384640001345,-2.7980835159953394
8.62443464792543,-1.6121907390279249,1.045460732684566,4.2924223122937475,-15.664730391430902,-1.7232091792238806
8.608312740535151,-1.768838042942234,1.0883849558075034,4.275190220501509,-15.67910123958072,-0.5849882156764022
8.590624360105728,-1.925629055338041,1.1311368580125185,4.269340338344745,-15.792888593642726,0.6251071751079444
8.571368069552348,-2.0835579412744685,1.173830261395966,4.275591410095824,-16.01141538574772,1.9160219339561255
8.550532490139602,-2.2436720951319455,1.216586175496924,4.294751629435385,-16.339387625230366,3.296164083870621
8.528095769188283,-2.4070659713842493,1.2595336917912778,4.327713270274091,-16.779833127946212,4.771752482882603
8.50402510947444,-2.5748643026637112,1.3028108244940186,4.375430795102917,-17.332210172491052,6.344012968722123
8.478276466447804,-2.7481864043886217,1.3465651324450478,4.438870924790138,-17.989199390599534,8.004529214697161
8.450794602403917,-2.928078398294617,1.3909538416929492,4.51891621693711,-18.731476737351535,9.727748316628109
8.421513818420971,-3.115393165668132,1.4361430038623204,4.616193700103391,-19.51956684259314,11.459356394775654
8.39035988676429,-3.3105888340940637,1.4823049408633544,4.7307872640511475,-20.281912106037257,13.0992815424679
8.35725399842335,-3.5134079551544364,1.5296128135038658,4.861780079475826,-20.89912728420876,14.479243101059275
8.322119918871804,-3.722399227996524,1.578230614298624,5.006572510486419,-21.18721139471954,15.338695867281116
8.284895926591838,-3.9342713419437194,1.6282963394034882,5.159959469159229,-20.888999035142817,15.312177022207694
8.245553213172402,-4.143161332295148,1.6798959340950805,5.313081239381306,-19.69402536293913,13.95643217257738
8.20412159984945,-4.340101585924539,1.7330267464888935,5.45264556110708,-17.31621888755624,10.858839870201528
8.160720583990205,-4.513263774800102,1.7875532020999643,5.561233959809096,-13.64515963652122,5.849697348588887
8.115587946242204,-4.649715371165314,1.8431655416980552,5.619730933294985,-8.921328221961515,-0.7506116073507232
8.06909079253055,-4.738928653384929,1.899362851031005,5.6122248172214775,-3.7914980468446293,-8.051136141793108
8.0217015059967,-4.7768436338533755,1.9554850992032198,5.531713455803547,0.8888110926104692,-14.863836854102654
7.973933069658167,-4.767955522927271,2.010802233761255,5.383075087262521,4.425088923825787,-20.219259799675
7.926253514428894,-4.723704633689013,2.0646329846338802,5.1808824892657706,6.543457692272889,-23.730065648522114
7.879016468092004,-4.658270056766284,2.116441809526538,4.943581832780549,7.369675558600068,-25.56381266049991
7.832433767524342,-4.584573301180283,2.1658776278543432,4.687943706175551,7.231961668362978,-26.17012390482833
7.786588034512539,-4.512253684496653,2.2127570649160986,4.426242467127268,6.476259514730629,-26.024766854758024
7.741465497667572,-4.447491089349347,2.257019489587371,4.165994798579687,5.375144389680163,-25.503519922374853
7.696990586774079,-4.393739645452546,2.2986794375731683,3.9109595993559387,4.111517071329229,-24.859558347999148
7.653053190319553,-4.352624474739254,2.3377890335667275,3.6623640158759474,2.7953537540085645,-24.246453458909333
7.60952694557216,-4.324670937199168,2.374412673725487,3.419899481286854,1.486757181924925,-23.749755152237533
7.566280236200169,-4.309803365379919,2.4086116685383554,3.1824019297644788,0.21493960140953774,-23.412859308592676
7.523182202546369,-4.307653969365823,2.440435687836,2.948273336678552,-1.0086958702600042,-23.254661570339778
7.480105662852711,-4.317740928068424,2.4699184212027854,2.7157267209751543,-2.1822889600640294,-23.28051289662143
7.436928253572027,-4.339563817669064,2.497075688412537,2.48292159200894,-3.3085333713456375,-23.48859827447205
7.393532615395337,-4.372649151382521,2.5219049043326263,2.2480356092642193,-4.39173222827292,-23.87343064304496
7.349806123881511,-4.41656647366525,2.5443852604252686,2.00930130283377,-5.4360652084795245,-24.427597566493382
7.3056404591448585,-4.470927125750045,2.5644782734536062,1.765025327168836,-6.444548621674335,-25.142468564353056
7.260931187887358,-4.535372611966788,2.5821285267252945,1.5136006415253056,-7.418380522381133,-26.008287982922
7.21557746176769,-4.6095564171906,2.5972645331405477,1.2535177616960855,-8.356496056947984,-27.013906705728285
7.169481897595785,-4.69312137776008,2.6097997107575086,0.9833786946388027,-9.255240834027983,-28.146308443892025
7.122550683818184,-4.78567378610036,2.6196334977038966,0.7019156101998825,-10.108122033878697,-29.39003530862765
7.07469394595718,-4.886755006439147,2.6266526538058956,0.408015257113606,-10.905630749539435,-30.726594711332446
7.025826395892788,-4.995811313934541,2.630732806377032,0.10074931000028153,-11.63515170941907,-32.13392349696226
6.975868282753443,-5.112162831028732,2.631740299477035,-0.2205899249693411,-12.280991306425907,-33.58598720643894
6.9247466544431555,-5.234972744092991,2.6295344002273415,-0.5564497970337305,-12.824562454849534,-35.05259567508739
6.872396927002225,-5.363218368641486,2.6239699022570044,-0.9069757537846044,-13.244764351308387,-36.49951460203053
6.8187647433158105,-5.49566601215457,2.6149001447191584,-1.2719708998049097,-13.51858525533551,-37.88894058177195
6.763808083194265,-5.630851864707925,2.602180435721109,-1.6508603056226292,-13.621935920941024,-39.18037995101412
6.707499564547185,-5.767071223917335,2.585671832664883,-2.0426641051327703,-13.530690960089043,-40.33192793005715
6.649828852308012,-5.9023781335182255,2.5652451916135552,-2.4459833844333416,-13.221878598559735,-41.30188652581004
6.59080507097283,-6.034596919503823,2.540785357769222,-2.859002249691442,-12.674922627296063,-42.05059560377733
6.530459101777792,-6.1613461457767835,2.5121953352723074,-3.2795082057292153,-11.872813134141875,-42.54229476016075
6.4688456403200245,-6.280074277118202,2.4794002532150152,-3.704931153330823,-10.803074756096379,-42.74680033752126
6.406044897548843,-6.388105024679166,2.442350941681707,-4.132399156706035,-9.458420182668236,-42.64078676412254
6.342163847302051,-6.4826892265058484,2.401026950114647,-4.558807024347261,-7.8370241200330355,-42.208512021251856
6.277336955036993,-6.561059467706179,2.355438879871174,-4.980892144559779,-5.942422601069639,-41.4419198147385
6.211726360359931,-6.620483693716875,2.3056299584255764,-5.395311342707164,-3.7831204519234136,-40.34016986165593
6.1455215234227625,-6.658314898236109,2.2516768449985047,-5.798713041323723,-1.3720573406880987,-38.908767149111185
6.078938374440401,-6.672035471642991,2.1936897145852674,-6.187800712814835,1.273878191983118,-37.158552741483334
6.012218019723972,-6.65929668972316,2.131811707457119,-6.559386240229668,4.134100234301468,-35.104858953442196
