th1 (rad),w1 (rad/s),th2 (rad),w2 (rad/s),a1 (rad/s^2),a2 (rad/s^2)
2.563851772334391,-2.621731523057917,1.9533655565427983,0.08310663087169004,-4.882772135088582,-1.1504205703438362
2.537634457103812,-2.670559244408803,1.9541966228515153,0.07160242516825167,-5.238041875449886,-0.7880386573382234
2.5109288646597236,-2.722939663163302,1.954912647103198,0.06372203859486944,-5.6050855763438765,-0.41174238120835366
2.4836994680280906,-2.7789905189267405,1.9555498674891465,0.059604614782785906,-5.982618300617303,-0.02430797567621872
2.4559095628388232,-2.8388167019329136,1.9561459136369743,0.05936153502602372,-6.368820778523067,0.3705114818487217
2.427521395819494,-2.9025049097181443,1.9567395289872345,0.06306664984451094,-6.761189907813377,0.7677451121989564
2.398496346722313,-2.970116808796278,1.9573701954856795,0.0707441009665005,-7.156360628310168,1.1609223599346787
2.36879517863435,-3.0416804150793797,1.9580776364953445,0.08235332456584728,-7.54990135375032,1.5417549186660648
2.3383783744835562,-3.117179428616883,1.958901169741003,0.09777087375250793,-7.9360908913359856,1.8997961257174798
2.3072065801973873,-3.196540337530243,1.9598788784785282,0.11676883500968273,-8.307693810355168,2.2221053322976902
2.275241176822085,-3.279617275633795,1.961046566828625,0.13898988833265963,-8.65576427372454,2.4929645166568637
2.242445004065747,-3.36617491837104,1.9624364657119515,0.16391953349922828,-8.969525529166742,2.6937201828125095
2.2087832548820363,-3.4558701736627073,1.9640756610469439,0.19085673532735337,-9.236392190136433,2.802853253257645
2.174224553145409,-3.5482340955640717,1.9659842284002174,0.21888526785992982,-9.442221027781967,2.7964071000516033
2.1387422121897686,-3.6426563058418915,1.9681730810788167,0.24684933886044585,-9.571885148511464,2.6489170764046692
2.1023156491313495,-3.738375157327006,1.9706415744674213,0.2733385096244926,-9.6102535675122,2.3349653724641044
2.0649318975580795,-3.8344776930021283,1.9733749595636663,0.2966881633491336,-9.543608187306297,1.831410490414947
2.0265871206280583,-3.929913774875191,1.9763418411971576,0.3150022682532831,-9.361431707529354,1.120194394275106
1.9872879828793064,-4.023528091950484,1.9794918638796903,0.3262042121960341,-9.058356790916244,0.19141774300112185
1.9470527019598016,-4.114111659859647,1.9827539060016506,0.32811838962604534,-8.635910565518122,-0.9538594063229763
1.9059115853612052,-4.200470765514829,1.986035089897911,0.31857979556281557,-8.103583183740236,-2.30179413234358
1.863906877706057,-4.281506597352231,1.9892208878535393,0.29556185423937975,-7.478773552566349,-3.8255884975374475
1.8210918117325348,-4.356294332877894,1.9921765063959331,0.2573059692640053,-6.785369840886535,-5.487349994552134
1.7775288684037558,-4.42414803128676,1.9947495660885732,0.20243246931848394,-6.051078272617717,-7.241847558768627
1.7332873880908881,-4.484658814012937,1.996773890781758,0.13001399373079767,-5.303997193642094,-9.041459857117399
1.6884407999507587,-4.537698785949358,1.998074030719066,0.03959939515962367,-4.569175778794967,-10.841243914697163
1.643063812091265,-4.583390543737307,1.9984700246706624,-0.06881304398734796,-3.865882276325389,-12.603053739102082
1.597229906653892,-4.622049366500561,1.997781894230789,-0.19484358137836877,-3.206047559246852,-14.297999812799688
1.5510094129888863,-4.65410984209303,1.9958334584170052,-0.33782357950636566,-2.593976502228549,-15.90707752379584
1.504468314567956,-4.680049607115316,1.9924552226219416,-0.4968943547443241,-2.0270955622623967,-17.42027024923407
1.4576678184968028,-4.700320562737939,1.9874862790744985,-0.6710970572366648,-1.4973342569488,-18.834695903118387
1.4106646128694234,-4.715293905307427,1.9807753085021318,-0.8594440162678487,-0.9927315342447168,-20.15239298850899
1.363511673816349,-4.725221220649875,1.9721808683394533,-1.0609679461529387,-0.4989589828703134,-21.378209994808824
1.3162594616098504,-4.730210810478578,1.961571188877924,-1.2747500461010268,-0.0005887299143106019,-22.518073186158105
1.2689573535050647,-4.730216697777721,1.9488236884169137,-1.4999307779626079,0.5179480478686138,-23.5777389251555
1.2216551865272876,-4.725037217299035,1.9338243806372877,-1.7357081672141628,1.071688365553838,-24.562021810875308
1.174404814354297,-4.714320333643497,1.9164672989651461,-1.9813283853229158,1.674689198187365,-25.474430406997772
1.1272616110178622,-4.697573441661623,1.896654015111917,-2.2360726893928935,2.3397341366667477,-26.31712361155667
1.080285876601246,-4.674176100294956,1.874293288217988,-2.49924392550846,3.0781335813680712,-27.091105362859473
1.0335441155982965,-4.6433947644812745,1.8493008489629033,-2.7701549791370548,3.899572443756214,-27.796589613010855
0.9871101679534837,-4.604399040043712,1.8215992991715326,-3.0481208752671636,4.811975693567524,-28.433482727720982
0.9410661775530466,-4.556279283108037,1.791118090418861,-3.3324557025443733,5.82137644067217,-29.001942380436255
0.8955033847219662,-4.498065518701316,1.7577935333934174,-3.622475126348736,6.931782278295785,-29.502979072864125
0.8505227295349531,-4.428747695918358,1.72156878212993,-3.9175049170773772,8.145042827183309,-29.939068553659325
0.8062352525757696,-4.347297267646525,1.682393732959156,-4.21689560261397,9.460724421467479,-30.314741042663137
0.7627622798993043,-4.25269002343185,1.6402247769330163,-4.520043013040602,10.875995992375303,-30.637106570036195
0.7202353796649859,-4.143930063508097,1.5950243468026102,-4.826414078740964,12.385522199089744,-30.916264510663968
0.6787960790299049,-4.020074841517199,1.5467602060152006,-5.1355767238476036,13.98134366846686,-31.16552791193896
0.638595330614733,-3.8802614048325306,1.4954044387767245,-5.447232002966993,15.652696599925587,-31.401365878355804
0.5997927165664076,-3.723734438833275,1.4409321187470545,-5.761245661750552,17.38568000303527,-31.642923436613263
0.5625553721780749,-3.549877638802922,1.383319662129549,-6.077674896116685,19.16261097801876,-31.910906785693417
0.5270565957900457,-3.3582515290227346,1.3225429131683821,-6.396783963973619,20.96080583906565,-32.22550525999841
0.49347408049981833,-3.148643470632078,1.2585750735286458,-6.719039016573603,22.750373039898157,-32.602835193229474
0.46198764579349755,-2.9211397402330963,1.1913846833629098,-7.045067368505898,24.49038773228754,-33.04910660586606
0.4327762483911666,-2.6762358629102208,1.1209340096778508,-7.375558434564558,26.122534894589695,-33.551314898288936
0.4060138897620644,-2.4150105139643236,1.0471784253322052,-7.711071583547448,27.561008877355885,-34.06279500160619
0.38186378462242115,-2.1394004251907646,0.9700677094967307,-8.05169953356351,28.677350632657447,-34.481698546944365
0.3604697803705135,-1.85262691886419,0.8895507141610957,-8.396516519032955,29.27959137995767,-34.621145213543514
0.3419435111818716,-1.5598310050646131,0.8055855489707661,-8.74272797116839,29.08796497632936,-34.173346799233805
0.32634520113122545,-1.2689513553013194,0.7181582692590822,-9.084461439160728,27.71716404632582,-32.67999078329646
0.31365568757821227,-0.9917797148380612,0.6273136548674749,-9.411261346993692,24.69052130312988,-29.541717031204612
0.3037378904298317,-0.7448745018067624,0.533201041397538,-9.706678517305738,19.531664901094608,-24.12718179372575
0.29628914541176404,-0.5495578527958163,0.4361342562244806,-9.947950335242995,11.97998171100983,-16.045025723697638
0.29079356688380587,-0.42975803568571797,0.33665475287205066,-10.10840059247997,2.3023404136200893,-5.545635415190619
0.2864959865269487,-0.40673463154951706,0.23557074694725094,-10.163856946631876,-8.49937709991951,6.209479031360532
0.28242864021145353,-0.49172840254871214,0.13393217748093217,-10.101762156318271,-18.887803318887297,17.407095662593843
0.2775113561859664,-0.6806064357375852,0.03291455591774946,-9.927691199692333,-27.424873369370903,26.39824581108431
0.27070529182859054,-0.9548551694312942,-0.06636235607917387,-9.66370874158149,-33.3739497306864,32.447356275014464
0.2611567401342776,-1.2885946667381583,-0.16299944349498877,-9.339235178831345,-36.79658346459968,35.80960579253504
0.248270793466896,-1.6565605013841551,-0.25639179528330225,-8.981139120905995,-38.218690103962224,37.26631058447027
0.23170518845305446,-2.0387474024237773,-0.3462031864923622,-8.608476015061292,-38.25449583299949,37.63823753163907
0.2113177144288167,-2.421292360753772,-0.4322879466429751,-8.232093639744901,-37.4058495744362,37.54612120933829
0.18710479082127898,-2.795350856498134,-0.5146088830404241,-7.856632427651519,-36.01908616113095,37.376759834519454
0.15915128225629765,-3.155541718109444,-0.5931752073169393,-7.482864829306324,-34.3133526774935,37.334693529243296
0.1275958650752032,-3.498675244884379,-0.6680038556100025,-7.109517894013892,-32.42295342379176,37.50508244963491
0.09260911262635942,-3.8229047791222968,-0.7390990345501415,-6.734467069517542,-30.43184944329873,37.90223124688724
0.054380064835136445,-4.127223273555284,-0.8064437052453169,-6.35544475704867,-28.39665512532051,38.501466718045045
0.013107832099583605,-4.411189824808489,-0.8699981528158036,-5.97043008986822,-26.36036033855671,39.258692609957656
-0.03100406614850129,-4.674793428194056,-0.9297024537144858,-5.577843163768644,-24.359776617712757,40.12212594285138
-0.07775200043044186,-4.918391194371184,-0.9854808853521723,-5.17662190434013,-22.429052514786765,41.0393664731686
-0.1269359123741537,-5.142681719519051,-1.0372471043955735,-4.766228239608444,-20.600831316711893,41.96167708806628
-0.1783627295693442,-5.34869003268617,-1.084909386791658,-4.346611468727781,-18.906043424710447,42.846475686119604
-0.23184962989620592,-5.537750466933274,-1.1283755014789358,-3.9181467118665854,-17.37293370341156,43.65850183492625
-0.28722713456553867,-5.71147980396739,-1.1675569685976017,-3.481561693517323,-16.025655416349203,44.369806429679564
-0.34434193260521256,-5.871736358130883,-1.202372585532775,-3.037863629220527,-14.882557916506627,44.958520261845294
-0.40305929618652137,-6.020561937295949,-1.23275122182498,-2.588278426602074,-13.954114421993044,45.406215875113126
-0.46326491555948085,-6.16010308151588,-1.2586340060910008,-2.1342162678509426,-13.240254763066527,45.6935379042156
-0.5248659463746397,-6.292505629146545,-1.2799761687695104,-1.6772808888087867,-12.726678454907287,45.79361769352813
-0.5877910026661052,-6.419772413695617,-1.2967489776575982,-1.2193447118735055,-12.379547484734294,45.66263198296219
-0.6519887268030613,-6.5435678885429605,-1.3089424247763333,-0.7627183920438836,-12.137884449846936,45.22683838909724
-0.7174244056884909,-6.66494673304143,-1.3165696086967722,-0.3104500081529112,-11.903269433269802,44.365868581032586
-0.7840738730189052,-6.783979427374128,-1.3196741087783013,0.13320867765741468,-11.527571790702412,42.89375027555002
-0.8519136672926465,-6.899255145281152,-1.3183420220017272,0.5621461804129149,-10.802438057614767,40.54343473477563
-0.920906218745458,-7.0072795258572995,-1.312720560197598,0.9675805277606712,-9.460254614246423,36.96915338927978
-0.990979014004031,-7.101882071999764,-1.3030447549199913,1.337272061653469,-7.205020182454979,31.79318552866608
-1.0619978347240286,-7.173932273824314,-1.2896720343034567,1.6552039169401298,-3.79659100489682,24.730263623922728
-1.1337371574622719,-7.2118981838732825,-1.2731199951340553,1.902506553179357,0.8050805828946859,15.79778546436256
-1.2058561393010048,-7.203847378044336,-1.2540949296022617,2.0604844078229827,6.288616397950364,5.533725543591182
-1.2778946130814481,-7.140961214064832,-1.2334900855240318,2.1158216632588944,11.963094515427338,-4.967126951993847
-1.3493042252220964,-7.0213302689105594,-1.2123318688914428,2.066150393738956,16.965129391812997,-14.360669858949715
-1.419517527911202,-6.85167897499243,-1.1916703649540532,1.922543695149459,20.620195605149167,-21.58726885248192
-1.4880343176611264,-6.645477018940938,-1.1724449280025586,1.7066710066246398,22.694188808004505,-26.247701522895216
-1.5544890878505357,-6.418535130860893,-1.1553782179363121,1.4441939913956876,23.368393206584233,-28.57466466426921
-1.6186744391591448,-6.184851198795051,-1.1409362780223553,1.1584473447529955,23.032849729033448,-29.132955544329967
-1.6805229511470954,-5.954522701504716,-1.1293518045748254,0.8671177893096957,22.088165152265255,-28.52460550441296
-1.7400681781621425,-5.733641049982064,-1.1206806266817284,0.5818717342655662,20.845806716489133,-27.23441084855835
-1.7974045886619632,-5.525182982817173,-1.1148619093390728,0.30952762577998266,19.510865570928843,-25.596809601341434
-1.8526564184901348,-5.3300743271078845,-1.111766633081273,0.0535595297665683,18.202429588556637,-23.820435766210124
-1.9059571617612137,-5.1480500312223185,-1.1112310377836072,-0.18464482789553294,16.981192323458888,-22.02581371790171
-1.9574376620734368,-4.97823810798773,-1.1130774860625625,-0.40490296507455004,15.872115972769604,-20.27752841487807
-2.007220043153314,-4.819516948260034,-1.1171265157133081,-0.6076782492233308,14.879932044683608,-18.606838251122703
-2.055415212635914,-4.6707176278131985,-1.1232032982055413,-0.7937466317345578,13.998783883140076,-17.026118416276205
-2.1021223889140463,-4.530729788981798,-1.1311407645228868,-0.9640078158973199,13.217879880418067,-15.537585811942801
-2.1474296868038643,-4.398550990177617,-1.14078084268186,-1.1193836740167478,12.524660010532715,-14.138372074275097
-2.1914151967056403,-4.2733043900722905,-1.1519746794220274,-1.2607673947594988,11.906488585963606,-12.823377145477357
-2.234148240606363,-4.154239504212654,-1.1645823533696222,-1.3890011662142725,11.351502218929834,-11.586814060469914
-2.27569063564849,-4.040724482023356,-1.178472365031765,-1.5048693068189716,10.84898648843775,-10.42299874693992
-2.3160978804687233,-3.932234617138979,-1.1935210580999547,-1.6090992942883708,10.389497119534253,-9.326713423678976
-2.355420226640113,-3.828339645943636,-1.2096120510428383,-1.7023664285251605,9.964847951946684,-8.293335657011934
-2.393703623099549,-3.728691166424169,-1.22663571532809,-1.7852997850952799,9.568033781220256,-7.318844088358533
-2.430990534763791,-3.6330108286119667,-1.2444887131790427,-1.8584882259788653,9.193125235102883,-6.399764253459014
-2.4673206430499106,-3.541079576260938,-1.2630735954388315,-1.9224858685134554,8.835155426919318,-5.533090124731082
-2.50273143881252,-3.452728021991745,-1.282298454123966,-1.9778167697607663,8.490008441003154,-4.716200840507548
-2.537258719032437,-3.3678279375817133,-1.3020766218215736,-2.024978778165842,8.15431440923036,-3.946782715825089
-2.5709369984082544,-3.2862847934894095,-1.322326409603232,-2.064446605324093,7.825353111200171,-3.2227612379186965
-2.6037998463431484,-3.208031262377408,-1.3429708756564729,-2.09667421770328,7.500966576632335,-2.5422446890930375
-2.6358801589669225,-3.1330215966110844,-1.3639376178335056,-2.1220966645942103,7.179480464222115,-1.90347934810999
-2.6672103749330334,-3.0612267919688634,-1.3851585844794478,-2.1411314580753102,6.859633685511429,-1.304815334584428
-2.697822642852722,-2.992630455113749,-1.406569899060201,-2.1541796114211547,6.5405156398265385,-0.7446817467149168
-2.7277489474038594,-2.9272252987154834,-1.4281116951744124,-2.161626428888304,6.221510420234654,-0.2215696038349655
-2.7570212003910144,-2.865010194513137,-1.4497279594632955,-2.1638421249266537,5.9022473842999394,0.26597887606003234
-2.7856713023361457,-2.805987720670138,-1.471366380712562,-2.1611823361660534,5.582557528867804,0.7193760284255767
-2.813731179542847,-2.7501621453814598,-1.4929782040742225,-2.153988575881798,5.262435152334976,1.1399907397593902
-2.8412328009966616,-2.69753779385811,-1.5145180898330406,-2.142588668484204,4.9420043262231905,1.529147740345074
-2.8682081789352427,-2.648117750595878,-1.5359439765178826,-2.127297191080753,4.6214897297791255,1.8881250741057878
-2.8946893564412015,-2.601902853298087,-1.5572169484286902,-2.108415940339695,4.30119142795694,2.2181504676620594
-2.920708384974182,-2.5588909390185175,-1.5783011078320872,-2.086234435663074,3.981463196226529,2.5203971739994393
-2.9462972943643675,-2.519076307056252,-1.599163452188718,-2.0610304639230796,3.6626940168401356,2.7959797353269913
-2.97148805743493,-2.4824493668878507,-1.6197737568279487,-2.03307066656981,3.34529239179133,3.045949995719648
-2.9963125511038085,-2.4489964429699373,-1.6401044634936468,-2.0026111666126134,3.0296731386052973,3.27129359684314
-3.0208025155335076,-2.4186997115838844,-1.660130575159773,-1.969898230644182,2.71624635680808,3.4729271086039937
-3.0449895126493467,-2.3915372480158035,-1.6798295574662148,-1.935168959558142,2.405408275609136,3.6516958796630803
-3.0689048851295047,-2.367483165259712,-1.6991812470617962,-1.8986520007615113,2.097533716929447,3.8083726388799755
-3.092579716782102,-2.3465078280904175,-1.7181677670694113,-1.8605682743727114,1.7929699321856734,3.9436568363092275
-3.116044795063006,-2.3285781287685605,-1.7367734498131384,-1.8211317060096193,1.4920315958749062,4.058174679750957
-3.139330576350692,-2.3136578128098115,-1.7549847668732346,-1.7805499592121097,1.1949967636286054,4.152479798552259
-3.16246715447879,-2.3017078451735253,-1.7727902664653556,-1.739025161226587,0.9021036266533381,4.227054448976133
-3.1854842329305253,-2.292686808906992,-1.7901805180776216,-1.6967546167368257,0.6135479180111423,4.282311163772036
-3.2084111010195953,-2.2865513297268802,-1.8071480642449897,-1.6539315050991052,0.3294808487195113,4.318594741539228
-3.231276614316864,-2.283256521239685,-1.823687379295981,-1.6107455576837129,0.05000747292857267,4.336184468188237
-3.2541091795292605,-2.2827564465103993,-1.8397948348728181,-1.5673837130018304,-0.2248145987250335,4.3352964625655375
-3.2769367439943644,-2.28500459249765,-1.8554686720028364,-1.524030748376175,-0.4949762002116267,4.31608604055971
-3.2997867899193407,-2.2899543544997663,-1.870708979486598,-1.480869887970578,-0.7605173716396217,4.278649996347613
-3.3226863334643384,-2.2975595282161625,-1.885517678366304,-1.4380833880071018,-1.0215279122495213,4.223028705587584
-3.3456619287465,-2.307774807338658,-1.899898512246375,-1.3958531009512258,-1.2781477425767884,4.149207963153426
-3.3687396768198865,-2.3205562847644257,-1.9138570432558872,-1.3543610213196915,-1.5305670817459591,4.0571204773478575
-3.391945239667531,-2.335861955581885,-1.9274006534690842,-1.313789816546213,-1.7790264355712913,3.9466469534277167
-3.4153038592233496,-2.353652219937598,-1.9405385516345464,-1.2743233470119357,-2.0238163821408164,3.8176167117604796
-3.4388403814227257,-2.373890383759006,-1.9532817851046658,-1.2361471798943309,-2.265277133630979,3.6698078000966547
-3.4625792852603157,-2.396543155095316,-1.965643256903609,-1.1994491018933644,-2.5037978459650128,3.502946575397936
-3.486544716811269,-2.421581133554966,-1.9776377479225427,-1.164419636139385,-2.7398156412624344,3.3167067485401964
-3.5107605281468186,-2.4489792899675904,-1.9892819442839365,-1.1312525686539832,-2.973814301447173,3.1107079051644253
-3.5352503210464947,-2.4787174329820623,-2.0005944699704763,-1.1001454896023388,-3.206322584455701,2.8845135381482336
-3.5600374953763154,-2.5107806588266195,-2.0115959248664996,-1.0713003542208566,-3.437912106735241,2.63762865180872
-3.5851453019645816,-2.545159779893972,-2.0223089284087084,-1.0449240677027694,-3.6691947266326426,2.3694970252488905
-3.610596899763521,-2.5818517271602985,-2.032758169085736,-1.0212290974502805,-3.900819352312079,2.079498252487477
-3.636415417035124,-2.620859920683419,-2.0429704600602387,-1.0004341149254057,-4.133468084467922,1.7669447104719918
-3.6626240162419585,-2.6621946015280984,-2.052974801209493,-0.9827646678206857,-4.367851587804904,1.4310786431196636
-3.6892459622572393,-2.7058731174061474,-2.0628024478877,-0.9684538813894891,-4.604703565582938,1.0710695905464505
-3.716304693431301,-2.751920153061977,-2.0724869867015947,-0.9577431854840246,-4.844774188105573,0.686012438029587
-3.7438238949619205,-2.8003678949430326,-2.0820644185564348,-0.9508830611037288,-5.088822298650687,0.27492640937023627
-3.771827573911351,-2.8512561179295397,-2.091573249167472,-0.9481337970100264,-5.337606188988089,-0.1632446155571057
