th1 (rad),w1 (rad/s),th2 (rad),w2 (rad/s),a1 (rad/s^2),a2 (rad/s^2)
4.993238678361146,1.0657516640726021,4.076231477697102,3.039233490632784,3.7771859264554597,6.487291823324548
5.003896195001872,1.1035235233371568,4.10662381260343,3.1041064088660297,3.4905033363832536,6.8309109580161165
5.014931430235243,1.1384285567009893,4.1376648766920905,3.172415518446191,3.189203029522278,7.183470750913864
5.0263157158022524,1.170320586996212,4.169389031876553,3.2442502259553296,2.873630668841228,7.544071569322553
5.038018921672214,1.1990568936846244,4.201831534136106,3.319690941648555,2.5443512275260924,7.911691738541021
5.05000949060906,1.2245004059598854,4.235028443552592,3.3988078590339654,2.2021982772778728,8.285149279906905
5.062254494668659,1.2465223887326642,4.269016522142931,3.4816593518330343,1.8483351871384177,8.663049835589831
5.074719718555986,1.2650057406040485,4.303833115661262,3.5682898501889326,1.4843309569443934,9.043716768076923
5.087369775962027,1.2798490501734925,4.339516014163151,3.658727017869702,1.112253917832989,9.425098550919195
5.100168266463762,1.2909715893518223,4.376103284341848,3.7529780033788938,0.7347870266325182,9.804647651692848
5.1130779823572805,1.2983194596181475,4.413633064375637,3.8510244798958224,0.3553688588792875,10.179164265072968
5.126061176953462,1.3018731482069403,4.452143309174596,3.952816122546552,-0.021635518851477235,10.544597705695349
5.139079908435531,1.3016567930184255,4.491671470400061,4.058262099603505,-0.3907301574638971,10.895798407416152
5.152096476365715,1.2977494914437866,4.532254091396096,4.167220083677667,-0.7450483399306916,11.226214942846125
5.165073971280153,1.2902990080444796,4.573926292232873,4.279482233106128,-1.0760787934888192,11.527534283554376
5.1779769613605975,1.2795382201095915,4.616721114563934,4.3947575759416715,-1.3733661805238093,11.789271152188041
5.190772343561694,1.2658045583043533,4.660668690323351,4.512650287463552,-1.6242051597016158,11.998325796006943
5.203430389144737,1.2495625067073373,4.705795193197987,4.632633545423622,-1.8133647072329686,12.138551288213543
5.21592601421181,1.2314288596350076,4.752121528652223,4.754019058305757,-1.9229046948248778,12.190403908206763
5.22824030280816,1.2121998126867588,4.799661719235281,4.875923097387825,-1.9321804153573734,12.130794276247228
5.240362300935028,1.1928780085331852,4.848420950209159,4.9972310401502975,-1.8181702669444073,11.933309882084767
5.25229108102036,1.1746963058637412,4.898393260610662,5.116564138971145,-1.5562985542057852,11.569030768393539
5.264038044078998,1.1591333203216834,4.949558902000374,5.23225444665508,-1.1219411016290104,11.008185978300803
5.275629377282215,1.1479139093053932,5.001881446466925,5.342336306438089,-0.49276601600505654,10.222859620603915
5.287108516375269,1.1429862491453426,5.055304809531306,5.444564902644128,0.34806270354426927,9.190801440863947
5.298538378866722,1.1464668761807852,5.1097504585577465,5.536472917052768,1.40803501566214,7.900086941559214
5.31000304762853,1.1605472263374066,5.165115187728274,5.6154737864683595,2.6813671704563107,6.353918887421225
5.321608519891904,1.1873608980419696,5.221269925592957,5.679012975342571,4.145935504157197,4.574384518786062
5.3334821288723235,1.2288202530835417,5.2780600553463835,5.724756820530432,5.76221078939753,2.6037262586059455
5.345770331403159,1.286442360977517,5.335307623551688,5.750794083116491,7.4751387256698,0.5019409413351779
5.358634755012934,1.3611937482342151,5.392815564382853,5.755813492529843,9.2192144403856,-1.6595656933853182
5.372246692495277,1.4533858926380712,5.450373699308152,5.739217835595991,10.92596277492364,-3.8072026648230612
5.386780551421658,1.5626455203873075,5.507765877664112,5.70114580894776,12.532115662311517,-5.875064042302837
5.4024070066255305,1.6879666770104227,5.56477733575359,5.6423951685247316,13.98647467826557,-7.81287731948028
5.419286673395635,1.8278314237930784,5.621201287438837,5.564266395329929,15.253953730161486,-9.590182921717409
5.437564987633565,1.9803709610946933,5.6768439513921365,5.468364566112754,16.316337266151052,-11.196286609284314
5.457368697244513,2.143534333756204,5.731527597053264,5.356401700019911,17.170317454517633,-12.636852013109223
5.478804040582075,2.3152375083013803,5.785091614053464,5.230033179888819,17.823952792049145,-13.928701283117519
5.501956415665089,2.4934770362218717,5.837391945852352,5.0907461670576435,18.292720938096195,-15.0943653559603
5.526891186027307,2.676404245602834,5.888299407522928,4.939802513498041,18.596003678215858,-16.15743796284585
5.553655228483335,2.8623642823849926,5.937697432657909,4.7782281338695825,18.754405765307755,-17.13919578313333
5.582278871307185,3.04990834003807,5.985479713996605,4.606836176038249,18.787957034387755,-18.056489217849805
5.612777954707566,3.2377879103819476,6.031548075756987,4.4262712838597515,18.71504307135301,-18.920657146643237
5.645155833811385,3.4249383410954777,6.075810788595585,4.23706471239332,18.551835131296002,-19.737139625524378
5.67940521722234,3.610456692408438,6.118181435719518,4.0396933161380755,18.31199617033442,-20.505484632297982
5.715509784146424,3.793576654111782,6.158578368880899,3.8346384698150957,18.0064822390135,-21.21950842559659
5.753445550687542,3.973641476501917,6.19692475357905,3.62244338555913,17.643308933411035,-21.867437872498925
5.793181965452561,4.150074565836027,6.233149187434641,3.403769006834141,17.22719858972248,-22.431922975048632
5.834682711110921,4.3223465517332516,6.267186877502983,3.1794497770836547,16.75906374045142,-22.889859013119676
5.877906176628254,4.489937189137766,6.2989813752738195,2.950551186952458,16.235320886394344,-23.212008886924714
5.922805548519631,4.65229039800171,6.328486887143344,2.7184310980832107,15.647074756077455,-23.362481003511817
5.969328452499648,4.808761145562484,6.355671198124177,2.4848062880480923,14.979278338089415,-23.298212894528955
6.017416063955273,4.958553928943378,6.3805192610046575,2.251824159102803,14.210069954844757,-22.96875192617455
6.067001603244707,5.100654628491826,6.403037502595685,2.0221366398410576,13.310622584324676,-22.316820177443716
6.118008149529625,5.233760854335073,6.423258868994096,1.7989684380666204,12.246003062224762,-21.28038379091512
6.170345758072975,5.35622088495732,6.441248553374762,1.5861646001574692,10.977682863505283,-19.797145578731595
6.223907966922549,5.465997713592373,6.457110199376337,1.3881931443701532,9.468357478612312,-17.81237896073949
6.278567944058472,5.560681288378497,6.470992130820038,1.2100693547627583,7.689433482513342,-15.290551747878666
6.334174756942257,5.63757562320363,6.483092824367666,1.0571638372839716,5.6307263429122845,-12.229956155233646
6.3905505131742935,5.693882886632753,6.493664462740505,0.9348642757316351,3.310530547270089,-8.677510423710306
6.447489342040621,5.726988192105455,6.503013105497821,0.848089171494532,0.7826754602622907,-4.7386273903083
6.504759223961675,5.734814946708077,6.511493997212766,0.800702897591449,-1.8635231204161937,-0.5760495603453114
6.562107373428756,5.716179715503915,6.5195010261886805,0.7949424019879958,-4.513140513694079,3.606374761498001
6.619269170583795,5.671048310366975,6.52745045020856,0.8310061496029758,-7.044343433607834,7.593420183322798
6.675979653687465,5.600604876030896,6.53576051170459,0.9069403514362038,-9.350468250123216,11.19351779052402
6.731985702447774,5.507100193529665,6.544829915218951,1.018875529341444,-11.357865400021597,14.267577194306082
6.78705670438307,5.3935215395294485,6.555018670512366,1.161551301284505,-13.033818117494583,16.742823469596104
6.840991919778364,5.263183358354502,6.5666341835252116,1.328979535980466,-14.383605981254826,18.609922805137373
6.89362375336191,5.119347298541954,6.579923978885017,1.5150787640318397,-15.44014686260513,19.908270128156815
6.944817226347329,4.964945829915903,6.595074766525335,1.7141614653134079,-16.251271485898485,20.706934888212317
6.994466684646488,4.802433115056918,6.612216381178469,1.921230814195531,-16.868636814892234,21.08739909474802
7.042491015797057,4.633746746907996,6.631428689320424,2.1321048051430114,-17.340145336225294,21.131132636921205
7.088828483266137,4.4603452935457435,6.652749737371854,2.3434161315122233,-17.705938489333157,20.912358513744074
7.133431936201594,4.283285908652412,6.676183898686976,2.552539716649664,-17.997110632127022,20.4949125112341
7.176264795288119,4.103314802331142,6.701709295853473,2.757488841762005,-18.23609999832594,19.931735280051765
7.21729794331143,3.9209538023478827,6.729284184271093,2.956806194562523,-18.437901034590944,19.26575220728033
7.256507481334909,3.7365747920019734,6.758852246216718,3.149463716635326,-18.611530170582746,18.531290003483374
7.293873229254928,3.550459490296146,6.790346883383071,3.33477661667016,-18.761425621649288,17.755535583287692
7.3293778241578895,3.362845234079653,6.823694649549773,3.512331972503037,-18.88863207133331,16.95979521652376
7.363006276498686,3.17395891336632,6.858817969274803,3.6819299246682746,-18.991721047769868,16.160464756545274
7.394745865632349,2.9840417028886215,6.895637268521486,3.8435345722337275,-19.06744897274409,15.36970258488801
7.424586282661235,2.7933672131611806,6.934072614243823,3.9972315980826076,-19.111177202385498,14.59583339169052
7.452519954792847,2.6022554411373258,6.974044930224649,4.143189931999513,-19.117086304823374,13.843523835266915
7.47854250920422,2.411084578089092,7.015476829544644,4.281625170352182,-19.0782196661729,13.1137744627677
7.502653354985111,2.220302381427363,7.058293081248166,4.412762914979859,-18.986395226707906,12.403775238072505
7.5248563787993845,2.030438429160284,7.102420710397965,4.536800667360584,-18.832032791283474,11.706681084369109
7.545160763090987,1.8421181012474492,7.14778871707157,4.653867478204275,-18.603960980275044,11.011383953983394
7.563581944103461,1.6560784914446989,7.194327391853613,4.7639813177441095,-18.289294485961246,10.302392539527027
7.580142729017909,1.4731855465850865,7.241967205031054,4.8670052431393795,-17.873508598708778,9.559980204410632
7.594874584483759,1.2944504605979987,7.290637257462448,4.962605045183486,-17.34087866656717,8.760819587920748
7.607819089089739,1.121041673932327,7.340263307914283,5.050213241062694,-16.675482650030208,7.879369450749864
7.6190295058290625,0.954286847432025,7.39076544032491,5.129006935570192,-15.862956901986363,6.890277447386005
7.628572374303383,0.7956572784121614,7.442055509680612,5.197909710044052,-14.893106374231499,5.771953443385733
7.636528947087505,0.6467262146698464,7.494034606781053,5.25562924447791,-13.76325611679919,4.511189146153037
7.642996209234203,0.5090936535018544,7.546590899225832,5.3007411359394405,-12.48187747506983,3.10822869304313
7.648087145769222,0.3842748787511561,7.599598310585226,5.3318234228698715,-11.07159879617995,1.5811202385455
7.651929894556734,0.27355889078935663,7.652916544813925,5.347634625255327,-9.570407958030462,-0.03224386570604792
7.654665483464627,0.177854811209052,7.7063928910664785,5.347312186598266,-8.02994821010702,-1.675887550770606
7.656444031576718,0.09755532910798179,7.759866012932461,5.3305533110905605,-6.510493439564958,-3.2819055713610763
7.657419584867798,0.0324503947123322,7.813171546043367,5.29773425537695,-5.073344398239789,-4.780071317031259
7.657744088814921,-0.018283049270065695,7.866148888597136,5.249933542206637,-3.7724986584572235,-6.108473655336265
7.65756125832222,-0.05600803585463793,7.918648224019202,5.188848805653275,-2.6478649024515035,-7.222197527384221
7.657001177963673,-0.08248668487915296,7.970536712075735,5.116626830379433,-1.7217162928884289,-8.097825903853943
7.656176311114882,-0.09970384780803726,8.02170298037953,5.035648571340894,-0.998826521366079,-8.733197203470185
7.6551792726368015,-0.10969211302169805,8.07205946609294,4.948316599306192,-0.46950578990595065,-9.143464467470247
7.654082351506585,-0.11438717092075756,8.121542632086001,4.85688195463149,-0.11411360182680928,-9.35532727410429
7.652938479797377,-0.11552830693902566,8.170111451632316,4.763328681890447,0.09232563410807874,-9.401218521984028
7.651783196727987,-0.11460505059794487,8.21774473845122,4.669316496670606,0.176306783673541,-9.314591492018252
7.6506371462220075,-0.11284198276120946,8.264437903417926,4.576170581750424,0.16318522471503732,-9.126733058657209
7.649508726394395,-0.11121013051405909,8.31019960923543,4.4849032511638525,0.07563272390176101,-8.865012858713095
7.648396625089255,-0.11045380327504148,8.35504864174707,4.396253122576722,-0.06703414893976452,-8.552230245420676
7.647292087056504,-0.11112414476443912,8.399011172972838,4.310730820122515,-0.24893995607085595,-8.206675541825334
7.6461808456088605,-0.11361354432514768,8.442118481174063,4.228664064704262,-0.4573981412718071,-7.842583450969268
7.645044710165609,-0.11818752573786576,8.484405121821105,4.150238230194569,-0.6825001869538863,-7.470750779679605
7.643862834908231,-0.1250125276074046,8.525907504123051,4.075530722397773,-0.9166607028064343,-7.099177810568824
7.642612709632157,-0.13417913463546896,8.56666281134703,4.004538944292085,-1.1541828353534331,-6.733658094599878
7.6412709182858025,-0.14572096298900328,8.606708200789951,3.9372023633460858,-1.3908745790665797,-6.378284411218339
7.639813708655913,-0.1596297087796691,8.646080224423413,3.8734195192339023,-1.6237260485992204,-6.035863872624927
7.6382174115681165,-0.17586696926566128,8.684814419615751,3.813060880507653,-1.8506465737650304,-5.708248235580907
7.63645874187546,-0.19437343500331158,8.722945028420828,3.755978398151844,-2.070255194322989,-5.396591073826731
7.634515007525427,-0.21507598694654148,8.760504812402345,3.702012487413577,-2.281716289997357,-5.101544837026837
7.632364247655961,-0.23789314984651505,8.797524937276481,3.6509970390433084,-2.4846120683441177,-4.823410069904619
7.629985316157496,-0.2627392705299562,8.834034907666915,3.602762938344262,-2.6788444730898244,-4.562247418283416
7.627357923452196,-0.28952771526085447,8.870062537050357,3.557140464161428,-2.864560218665813,-4.317961175374499
7.6244626462995875,-0.3181733174475126,8.90563394169197,3.513960852407683,-3.0420938172717435,-4.090361349929422
7.621280913125112,-0.34859425562023005,8.940773550216047,3.473057238908389,-3.211924511353172,-3.8792097030447334
7.61779497056891,-0.38071350073376176,8.97550412260513,3.4342651418779417,-3.374643909759113,-3.684253935811032
7.613987835561572,-0.4144599398313529,9.00984677402391,3.3974226025198315,-3.5309318459373156,-3.505253199983983
7.609843236163258,-0.449769258290726,9.043821000049109,3.3623700705199915,-3.6815385466564026,-3.341997312894166
7.605345543580351,-0.48658464375729005,9.077444700754308,3.3289500973910497,-3.8272716420192974,-3.194321445495458
7.600479697142778,-0.5248573601774831,9.110734201728219,3.297006882936095,-3.9689868844464145,-3.062117580490138
7.595231123541003,-0.5645472290219472,9.14370427055758,3.2663857071311937,-4.10758169585324,-2.945343672391126
7.5895856512507835,-0.6056230459804796,9.17636812762889,3.2369322704072823,-4.243990844860458,-2.844031155026609
7.5835294207909785,-0.6480629544290841,9.208737450332963,3.208491958857016,-4.379183682278603,-2.758291210989302
7.577048791246687,-0.6918547912518701,9.240822369921533,3.180909046747123,-4.514162442549788,-2.6883200223630905
7.570130243334169,-0.736996415677368,9.272631460389004,3.154025846523492,-4.649961157433416,-2.6344030460325243
7.562760279177395,-0.7834960272517021,9.304171718854239,3.1276818160631668,-4.7876447293560656,-2.596918185144705
7.5549253189048775,-0.8313724745452628,9.33544853701487,3.1017126342117196,-4.928307676418764,-2.5763375469674936
7.546611594159425,-0.8806555513094504,9.366465663356987,3.0759492587420447,-5.0730719877873796,-2.573227272838118
7.537805038646331,-0.9313862711873242,9.397225155944408,3.0502169860136634,-5.223083413867383,-2.588244684201287
7.528491175934458,-0.983617105325998,9.427727325804545,3.0243345391716505,-5.379505355450277,-2.622131695421862
7.5186550048811975,-1.0374121588805008,9.45797067119626,2.998113222217432,-5.543509303964685,-2.6757030842320533
7.508280883292392,-1.0928472519201475,9.487951803418435,2.9713561913751114,-5.716260514851968,-2.749827769784105
7.497352410773191,-1.1500098570686672,9.517665365332185,2.9438579136772702,-5.898897262883411,-2.8454007138519417
7.485852312202504,-1.2089988296975014,9.547103944468958,2.9154039065387507,-6.0925016305221975,-2.963302425604791
7.473762323905529,-1.2699238460027233,9.576257983534346,2.885770882282703,-6.29805932428096,-3.1043423182179817
7.461063085445502,-1.332904439245533,9.605115692357172,2.854727459100523,-6.5164055189802434,-3.2691813595717414
7.447734041053046,-1.3980684944353354,9.633662966948178,2.8220356455048057,-6.748153237716602,-3.45822863524855
7.433753356108692,-1.4655500268125015,9.661883323403226,2.78745335915232,-6.993600362733422,-3.6715057071932056
7.419097855840567,-1.5354860304398357,9.68975785699475,2.750738302080388,-7.252611166851848,-3.9084721895301455
7.403742995536168,-1.6080121421083542,9.717265240015553,2.7116535801850863,-7.524468455196317,-4.167806065635031
7.387662874115085,-1.6832568266603174,9.744381775817404,2.669975519528736,-7.80769330301696,-4.447133370695346
7.370830305848481,-1.761333759690487,9.77108153101269,2.6255041858217827,-8.09983136564955,-4.742704564310285
7.3532169682515764,-1.8423320733469826,9.797336572870908,2.5780771401786797,-8.397208326309368,-5.049019995334464
7.334793647518107,-1.9263041566100763,9.823117344272694,2.5275869402253353,-8.694662811620503,-5.358415220088773
7.315530605952007,-2.0132507847262815,9.848393213674948,2.4740027880244475,-8.985273586049479,-5.66062946123617
7.2953980981047435,-2.1031035205867763,9.873133241555193,2.417396493412086,-9.26010934166347,-5.94239775902014
7.274367062898876,-2.195704614003411,9.897307206489314,2.3579725158218845,-9.50804366663691,-6.187129124896067
7.252410016758842,-2.29078505066978,9.920886931647534,2.296101224572924,-9.715693509173603,-6.374757487834902
7.229502166252144,-2.387941985761516,9.943847943893262,2.232353649694575,-9.867553801470441,-6.481875297467595
7.205622746394528,-2.4866175237762205,9.966171480390209,2.167534896719899,-9.946409076819437,-6.482274168613697
7.180756571156766,-2.586081614544415,9.987846829357407,2.102712155033762,-9.934098262758344,-6.348012780088046
7.154895755011322,-2.6854225971719985,10.008873950907745,2.039232027232882,-9.81268391815724,-6.051097677691974
7.128041529039602,-2.783549436353571,10.029266271180074,1.9787210504559622,-9.566026097931271,-5.565787877340539
7.1002060346760665,-2.879209697332884,10.049053481684634,1.9230631716825568,-9.181682994652286,-4.8714168021616855
7.071413937702737,-2.9710265272794065,10.06828411340146,1.87434900366094,-8.6529637351489,-3.9554762777584145
7.041703672429944,-3.0575561646308955,10.087027603438068,1.834794240883356,-7.980862623468575,-2.816555780416884
7.011128110783635,-3.1373647908655813,10.105375545846902,1.8066286830791871,-7.175537510954754,-1.466620159247518
6.979754462874979,-3.2091201659751287,10.123441832677694,1.7919624814867119,-6.256988677206827,0.06791018581965934
6.947663261215228,-3.271690052747197,10.141361457492561,1.7926415833449085,-5.254669860317259,1.746705156362371
6.914946360687756,-3.3242367513503694,10.15928787332601,1.8101086349085322,-4.205919899254305,3.5178872452505336
6.881703993174252,-3.3662959503429124,10.177388959675095,1.8452875073610375,-3.1533149861889274,5.322071256437044
6.848041033670823,-3.3978291002048016,10.195841834748705,1.898508219925408,-2.141258541695687,7.097598658912271
6.814062742668775,-3.4192416856217585,10.21482691694796,1.9694842065145306,-1.2122908807843789,8.786218445718541
6.779870325812557,-3.4313645944296023,10.234521759013106,2.0573463909717162,-0.403667482942169,10.338357195077949
6.745556679868261,-3.435401269259024,10.255095222922822,2.160729962922496,0.2552971755759028,11.717202817970827
6.71120266717567,-3.432848297503265,10.276702522552048,2.2779019911022043,0.7447798959847616,12.90107788967335
6.676874184200638,-3.4254004985434174,10.29948154246307,2.4069127699989377,1.0547711741298356,13.883928873321276
