th1 (rad),w1 (rad/s),th2 (rad),w2 (rad/s)
3.3561413822160078,1.4746615815283766,3.1104474641146624,-0.5332438578751192
3.3708879980312916,1.5113582442628495,3.1051150255359112,-0.5666008770702533
3.38600158047392,1.5500541850480845,3.0994490167652087,-0.6015126296113058
3.4015021223244006,1.5906623386447762,3.0934338904690954,-0.6378027282341032
3.417408745710848,1.6330839747186912,3.0870558631867544,-0.6752728831070632
3.433739585458035,1.6772089868461693,3.0803031343556837,-0.713702909769164
3.4505116753264966,1.7229166505282139,3.073166105257992,-0.7528513732159354
3.4677408418317786,1.7700768920012075,3.065637591525833,-0.7924569252832184
3.4854416107517907,1.8185520848618604,3.057713022273001,-0.8322403567456018
3.5036271316004095,1.8681993607218208,3.049390618705545,-0.8719073411841779
3.5223091252076277,1.918873385377596,3.040671545293703,-0.9111517976901675
3.541497859061404,1.9704295164314691,3.0315600273168015,-0.94965974828823
3.5612021542257186,2.0227272257450863,3.0220634298339193,-0.9871134990244534
3.5814294264831696,2.07563364456867,3.0121922948436746,-1.0231959366959162
3.6021857629288565,2.1290270742421202,3.0019603354767153,-1.0575947112986264
3.623476033671278,2.1828003034831505,2.9913843883637288,-1.0900060709686719
3.6453040367061096,2.236863585310041,2.9804843276540423,-1.120138132710048
3.66767267255921,2.291147151569011,2.969282946326942,-1.147713407109595
3.6905841440749003,2.3456031780620528,2.957805812255846,-1.172470444604297
3.714040175855521,2.400207154302711,2.9460811078098033,-1.1941645289046223
3.738042247398548,2.4549586542506905,2.934139462520757,-1.2125674032401084
3.762591833941055,2.509881543435605,2.9220137884883557,-1.2274660707683163
3.787690649375411,2.5650236899605776,2.9097391277806723,-1.238660756573074
3.8133408862750167,2.6204562695567675,2.8973525202149415,-1.2459621518276265
3.8395454489705845,2.67627276717516,2.8848928986966653,-1.249188079660194
3.866308176642336,2.7325877799264444,2.872401017900063,-1.2481597277150824
3.8936340544416006,2.7895357199082746,2.859919420622912,-1.2426975865230285
3.9215294116406834,2.847269502588092,2.8474924447576817,-1.2326172186564694
3.9500021066665645,2.905959289119844,2.835166272571117,-1.2177249646490271
3.979061699557763,2.9657913312866944,2.8229890229246264,-1.197813671052158
4.00871961287063,3.0269669473131824,2.8110108862141048,-1.1726585065670108
4.038989282343762,3.0897016367125345,2.7992843011484347,-1.142012916090394
4.069886298710887,3.154224323247727,2.787864171987531,-1.1056047512858997
4.101428541943364,3.2207766971520884,2.776808124474672,-1.0631326109231836
4.133636308914885,3.2896126107821084,2.76617679836544,-1.0142624252908705
4.166532435022706,3.3609974654226624,2.7560341741125316,-0.9586243267703354
4.200142409676933,3.435207510465031,2.746447930844828,-0.8958098632785908
4.2344944847815835,3.5125289590437045,2.7374898322120425,-0.8253696327692438
4.26961977437202,3.5932568059490615,2.72923613588435,-0.7468114452554826
4.305552342431511,3.67769321392569,2.7217680214317954,-0.659599153685225
4.342329274570768,3.7661453133329856,2.7151720298949433,-0.5631523359917355
4.379990727704098,3.858922238056008,2.709540506535026,-0.4568470568368538
4.418579950084658,3.956331198606845,2.7049720359666574,-0.3400179872874588
4.458143262070727,4.058672373467267,2.701571856093783,-0.2119622111419592
4.498729985805399,4.166232384840452,2.6994522339823632,-0.07194509354560746
4.540392309653804,4.279276119276075,2.698732783046907,0.08079137538126466
4.5831850708465645,4.398036662629819,2.6995406968007196,0.24701733057560477
4.627165437472863,4.522703149344816,2.702010870106476,0.42750045548396887
4.672392468966311,4.65340638591054,2.7062858746613156,0.622987713033758
4.718926532825416,4.790202205586249,2.712515751791653,0.8341831308781248
4.766828554881279,4.933052652923045,2.7208575831004342,1.061721573363733
4.816159081410509,5.081805285857658,2.7314747988340717,1.3061387026945002
4.866977134269086,5.236171117678653,2.744536185861017,1.5678376895173867
4.919338845445872,5.395701989175235,2.760214562756191,1.847053668565239
4.973295865337625,5.559768438691281,2.7786850994418435,2.143817418653475
5.028893549724538,5.727539386685344,2.8001232736283783,2.4579202249973044
5.0861689435913915,5.897965121239197,2.824702475878351,2.788882277627255
5.145148594803784,6.069765104399798,2.8525912986546236,3.135927175836789
5.205846245847781,6.241421963063937,2.8839505704129915,3.497965043717522
5.268260465478421,6.411182648967182,2.9189302208501666,3.8735863332137304
5.332372291968093,6.5770671543517985,2.957666084182304,4.261067563808821
5.398142963511611,6.736884409101363,3.0002767598203923,4.658389062704935
5.465511807602625,6.88825417439168,3.046860650447442,5.06326335959392
5.534394349346542,7.02863304701462,3.097493284043381,5.473171478213326
5.6046806798166875,7.155342278207848,3.152224998825514,5.885403234735745
5.676234102598766,7.2655951547899535,3.2110790311728716,6.297097090167751
5.748890054146665,7.35652229477405,3.2740500020745493,6.705275344993142
5.822455277094406,7.425194390348422,3.3411027555244805,7.106871632704965
5.89670722099789,7.468643596541911,3.41217147185153,7.498749740560466
5.9713936569633095,7.483886712727005,3.487158969257135,7.87771557779797
6.04623252409058,7.467955232109308,3.5659361250351145,8.240527288249211
6.120912076411673,7.417938842656572,3.6483413979176067,8.583911590326483
6.195091464838239,7.331049568568005,3.7341805138208715,8.90459681845485
6.268401960523919,7.20471290568053,3.82322648200542,9.199374123516018
6.340449089580725,7.036689510282623,3.9152202232405804,9.465197108220261
6.410815984683551,6.825225914923266,4.009872194322783,9.699326177737689
6.479068243832784,6.569225471410494,4.10686545610016,9.899516812376744
6.544760498546889,6.26842209828955,4.205860624223928,10.064241306523321
6.607444719529784,5.923531199472288,4.306503037289161,10.192922831807092
6.666680031524507,5.536346876192889,4.408432265607233,10.286151650920774
6.722043500286436,5.109754987063569,4.51129378211644,10.345849222529065
6.773141050157071,4.647639485611,4.614752274341731,10.375349601314225
6.819617445013181,4.154674421392205,4.718505770354873,10.37937988977213
6.861164189227103,3.636012967362938,4.822299569252594,10.3639406523128
6.897524318900732,3.096902676213117,4.925938975775722,10.33610862123902
6.928493345662863,2.542267414186901,5.0293000619881125,10.30380205446896
6.9539160198047325,1.976297511320773,5.132338082532802,10.275559239398987
6.9736789949179405,1.4020803830588981,5.235093674926792,10.260381330812615
6.98769979874853,0.8212872880245119,5.337697488234918,10.267683742972844
6.9959126716287745,0.2339130164194424,5.440374325664646,10.307389488970403
6.998251801792969,-0.36195034168979834,5.54344822055435,10.39018650452791
6.994632298376071,-0.9703309061565093,5.647350085599629,10.52795856614613
6.984928989314506,-1.5975989120147824,5.75262967126109,10.734375819631063
6.968953000194358,-2.252651380929742,5.8599734294574,11.02556308319894
6.946426486385061,-2.9468550943314984,5.97022906028939,11.42055945200439
6.916957935441746,-3.6930944904329497,6.084434654809434,11.940692332622959
6.8800269905374165,-4.502084131524469,6.2038415781356635,12.605379338776263
6.835006149222171,-5.371234918138119,6.329895371523426,13.417901056409724
6.78129380004079,-6.256159250346918,6.4640743820875235,14.327348101461306
6.718732207537321,-7.015465748240209,6.607347863102136,15.153225806097101
6.6485775500549185,-7.372329168846934,6.7588801211631075,15.5313698116732
6.574854258366449,-7.076340503977187,6.91419381927984,15.13247088837994
6.5040908533266775,-6.250298615954272,7.065518528163639,14.129037769068598
6.441587867167135,-5.272919573427902,7.206808905854325,13.024619908141291
6.388858671432856,-4.3677662645128565,7.337055104935739,12.101018168111917
6.345181008787727,-3.57920175062869,7.458065286616858,11.400993880921462
6.30938899128144,-2.8895397074814784,7.572075225426072,10.890782656550511
6.280493594206625,-2.2722681513169167,7.680983051991578,10.529895808575073
6.257770912693456,-1.7049908981502464,7.786282010077328,10.286328732660165
6.240721003711953,-1.1707728529121846,7.88914529740393,10.136926469863152
6.229013275182831,-0.6571565459331201,7.990514562102562,10.065152197292932
6.2224417097235,-0.15508065486839562,8.09116608407549,10.058992992724086
6.2208909031748165,0.3418945976787543,8.191756014002731,10.109388951593909
6.224309849151604,0.8380600844193709,8.29284990351867,10.209097246713855
6.232690449995798,1.3358022109720764,8.394940875985808,10.35185728202273
6.246048472105518,1.8356906175684844,8.498459448806036,10.53175974834885
6.264405378281203,2.3364710723263986,8.603777046289524,10.742764707424229
6.287770089004467,2.835021184188905,8.711204693363767,10.97834803486448
6.3161203008463565,3.3263267956748583,8.820988173712411,11.231280002563489
6.349383568803105,3.803536935724482,8.933300973738046,11.493553111548215
6.38741893816035,4.25814876520932,9.048236504853527,11.756475671297586
6.430000425812443,4.680355334025235,9.165801261566504,12.010930645743711
6.476803979152695,5.0595562753459795,9.28591056802394,12.247767690751484
6.5273995419061555,5.384990241370631,9.408388244931455,12.458259632975022
6.5812494443198615,5.64641184774665,9.532970841261205,12.634530336668124
6.637713562797328,5.834722848451545,9.659316144627887,12.769867720312716
6.696060791281843,5.942488155387718,9.787014821831015,12.858881314800378
6.75548567283572,5.964315730021009,9.91560363497902,12.897534398703364
6.81512883013593,5.897130206858369,10.044578978966053,12.883142762625527
6.874100132204514,5.740392135035661,10.173410406592309,12.814448959547963
6.931504053554871,5.496290633551125,10.301554896187788,12.691835714670386
6.986466959890382,5.169877439063055,10.428473253334491,12.517651193110028
7.038165734281013,4.76905013555686,10.553649765265591,12.29652569813643
7.085856235636582,4.304273209943439,10.676615022246956,12.035513693670998
7.128898967736016,3.7879699987845057,10.796970159183667,11.743925881821099
7.166778667723861,3.2336138152715406,10.914409418001878,11.432814283853304
7.199114805876576,2.654648689691107,11.02873756084041,11.11419420578532
7.225661292773487,2.0634291157103943,11.139879502898264,10.800174765580042
7.246295583930591,1.4703575214636926,11.247881250554064,10.502188961388006
7.260999159145228,0.8833285689189453,11.352903140167944,10.230467488696718
7.269832444834417,0.3074973108578053,11.455207815054912,9.993820044172027
7.272907417942996,-0.2546886058642174,11.555146015496632,9.799712487289995
7.270360531884354,-0.803293920138618,11.653143140369533,9.654582821029459
7.262327592682968,-1.3406456300635665,11.749688968579827,9.56432840447898
7.248921136382332,-1.8711197433032214,11.845332252624617,9.534912183413914
7.2302099389493,-2.4010331575621753,11.940681374458757,9.573063500241457
7.206199607373678,-2.9386854829238995,12.036412009461172,9.687076320703008
7.176812752544439,-3.4945701945888556,12.133282772668203,9.887719876929857
7.141867050598551,-4.081726142931849,12.2321599714375,10.18924349294178
7.101049789169232,-4.716063774043424,12.334052406366919,10.610292593048337
7.053889151428797,-5.416087616647208,12.440155332297403,11.174002238333156
6.999728275262325,-6.200224357814905,12.551895354680735,11.90487409150806
6.937726031684176,-7.076645726168705,12.670944095595814,12.81543873120014
6.866959574422489,-8.012999978179252,12.799098482907816,13.86523229734421
6.786829574640696,-8.867218186947674,12.937750805881258,14.865552050300998
6.698157392771219,-9.313023824997359,13.086406326384267,15.375592636136977
6.605027154521245,-9.008585300028855,13.240162252745638,14.93317886044594
6.514941301520957,-8.09088260871492,13.389494041350098,13.730818489946394
6.434032475433808,-7.0467195470099755,13.526802226249561,12.427164701814133
6.363565279963709,-6.133415229798063,13.651073873267702,11.35735136011002
6.302231127665728,-5.380186778310672,13.764647386868802,10.549049210020028
6.248429259882621,-4.753656556642273,13.870137878969002,9.951108992594072
6.200892694316198,-4.2180446774400036,13.969648968894942,9.513385485703271
6.158712247541798,-3.7457403476542668,14.064782823751974,9.199280473363977
6.121254844065255,-3.3166240423599205,14.156775628485613,8.983763795004146
6.088088603641657,-2.915997688739059,14.246613266435656,8.849920858437676
6.058928626754266,-2.5329605447352717,14.335112475020033,8.78624601711018
6.033599021306913,-2.1593845353656094,14.422974935191135,8.784715022772506
6.012005175953258,-1.7893774873106063,14.51082208541886,8.839356292297808
5.9941114010801515,-1.4191315138632237,14.599215648341838,8.94507159618108
5.97992008594152,-1.0470915766605722,14.688666364303648,9.09652973262973
5.969449170174914,-0.6743920405517814,14.779631661629946,9.28703315825742
5.962705249769396,-0.3054775033255177,14.87250199321252,9.507355406862954
5.959650474736141,0.05126538565647454,14.96757554728115,9.744692455083594
5.960163128592706,0.3831835160145937,15.065022471831986,9.982068756645663
5.963994963752852,0.6738062525523556,15.164843159398442,10.198727764881204
5.970733026278376,0.9045434056814576,15.266830437047254,10.372048405195745
5.979778460335191,1.0577831859235032,15.37055092109921,10.481128767238207
5.990356292194426,1.1208150974383133,15.475362208771593,10.511301269312806
6.001564443168809,1.0892090572540896,15.58047522146472,10.457918765267737
6.01245653374135,0.9681161552312416,15.685054409117397,10.327622767055177
6.0221376952936625,0.7708290092917571,15.788330636787949,10.13641696186064
6.02984598538658,0.5153280545586463,15.889694806406554,9.905520006569892
6.034999265932167,0.22037715891092574,15.988750006472253,9.656877785404767
6.037203037521277,-0.09748079055032832,16.0853187843263,9.409864812287541
6.036228229615773,-0.4254971953206407,16.179417432449178,9.179701836193829
6.031973257662567,-0.7550478723448111,16.271214450811115,8.977300326411422
6.024422778939119,-1.0812082728521888,16.36098745407523,8.809942409370745
6.013610696210597,-1.4020302100680284,16.449086878168938,8.682278304614625
5.999590394109917,-1.717816137222636,16.535909661215083,8.597325793947782
5.9824122327376905,-2.030534422908472,16.62188291915456,8.557336490808572
5.962106888508606,-2.3434204007886272,16.707456284062648,8.564507144125173
5.93867268450072,-2.660759545602432,16.7931013555039,8.621570261656066
5.912065089044695,-2.9878327244652336,16.87931705812046,8.732318877030208
5.8821867618000425,-3.331001856425289,16.966640246890762,8.9021217103646
5.84887674323579,-3.697913092782178,17.055661463994408,9.13847246354679
5.811897612307968,-4.097776106809422,17.147046188629876,9.451579247309125
5.770919851239873,-4.5416055722398125,17.24156198110297,9.854892670923936
5.725503795517476,-5.042090582873029,17.340110907812207,10.365166839288408
5.6750828896887455,-5.612145299185098,17.443762576205092,11.000807878690432
5.618961436696894,-6.259603369979276,17.553770654991997,11.775068908363043
5.556365402997102,-6.971926790179175,17.67152134407563,12.675643745183722
5.48664613509531,-7.679910539617101,17.798277781527467,13.615267485128355
5.409847029699139,-8.200042591599425,17.934430456378752,14.352312086382021
5.327846603783145,-8.241468772281529,18.07795357724257,14.499470554690216
5.24543191606033,-7.661849793082863,18.222948282789474,13.873845605674171
5.168813418129501,-6.712943282812671,18.361686738846217,12.826868761708889
5.101683985301374,-5.7325524214739225,18.489955426463307,11.814392996248918
5.044358461086635,-4.857775183117138,18.608099356425797,11.012608460269767
4.995780709255464,-4.0962491633345355,18.718225441028494,10.424669799879304
4.954818217622119,-3.421742637932815,18.822472139027287,10.012151951296563
4.920600791242791,-2.807024226854979,18.92259365854025,9.738273040976015
4.892530548974241,-2.2303169715200823,19.01997638895001,9.575327937193487
4.87022737925904,-1.675141131292548,19.115729668321944,9.503569833528523
4.853475967946115,-1.1291276965729333,19.210765366657228,9.508932176994065
4.842184690980385,-0.5830328570239862,19.305854688427168,9.581096069129453
4.8363543624101455,-0.030120914866808013,19.401665649118463,9.712031773978206
4.836053153261477,0.5341362919114038,19.498785966858247,9.894894226269836
4.841394516180591,1.112123381246911,19.597734909120945,10.123155689929183
4.85251574999306,1.7039858633229092,19.698966466020238,10.389908286882319
4.869555608626289,2.3074549230570494,19.802865548889063,10.687321476718992
4.89263015785686,2.917685525136931,19.909738763656254,11.00628597421812
4.9218070131082285,3.527217278378551,20.019801623398436,11.336309746554535
4.957079185892014,4.1261733422603415,20.13316472086398,11.665741956964943
4.998340919314617,4.70278961568968,20.24982214043363,11.982371698708956
5.045368815471514,5.244299889646706,20.369645857420718,12.27437073237296
5.097811814367981,5.738095127584309,20.492389564744446,12.531434717302457
5.155192765643824,6.172957929873965,20.61770391191747,12.74586804577764
5.216922344942564,6.540102122676439,20.745162592375248,12.913316072198503
5.282323366169328,6.833772741588212,20.874295753097233,13.032921262062834
5.3506610935852095,7.051289184032036,21.00462496571786,13.106854209015362
5.42117398542553,7.192589954385129,21.135693507808014,13.139370077428195
5.493099884969381,7.259478343557431,21.267087208582296,13.135671567559166
5.565694668404956,7.254817342977972,21.398443924257887,13.100871749640271
5.638242841834736,7.181878509033238,21.52945264175429,13.039264148580603
5.710061626925069,7.0439555480212706,21.659845283240095,12.953983954628406
5.780501182405281,6.8442573015340455,21.789385122786378,12.847037968493417
5.848943755420621,6.586025030743811,21.917855502471312,12.719615707043097
5.914804005728059,6.272781459861487,22.04505165954174,12.572567019622655
5.977531820326674,5.908608273527129,22.170777329737966,12.406929574557488
6.036617903061946,5.498357633119752,22.29484662548354,12.22440241335966
6.091601479393144,5.04772715377504,22.417090649617137,12.027685304849596
6.142078750930894,4.56316284312751,22.53736750266563,11.820636636850912
6.187710379362169,4.051594810829471,22.65557386903414,11.608242107444422
6.228226327470464,3.5200472737320734,22.771656290108584,11.396425719262501
6.263426800207785,2.975188131878462,22.885620547301208,11.191764580545748
6.29317868152657,2.4228882756181767,22.997538193106667,11.001182757106491
6.317407564282751,1.8678471778280943,23.10755002067773,10.831695368303418
6.336086036061032,1.3133155024186536,23.215866974360765,10.690256862981634
6.3492191910852185,0.7609163831934322,23.32276954299058,10.583745183010723
6.356828354917153,0.2105424402847914,23.42860699482069,10.519094450324864
6.358933779320001,-0.339710340552007,23.53379793932394,10.50357801192178
6.355536675914481,-0.8936173690317203,23.638833719443156,10.545242067165919
6.346600502224163,-1.4569521393937177,23.744286140114816,10.653494058945393
6.332030980830226,-2.037694125759955,23.85082108070427,10.839849218795692
6.311654039572627,-2.646305821843402,23.959219572892227,11.11880675325141
6.285190981354193,-3.2959472273364954,24.07040764042474,11.508691839801008
6.252231509080827,-4.0021493896851155,24.18549455882275,12.03185615089549
6.2122100151839765,-4.780483478110035,24.305813120331706,12.712308968429669
6.164405180402876,-5.6381127996530775,24.432936210016003,13.565217167231289
6.108024052406345,-6.549073889951748,24.568588381688315,14.56428876187081
6.042533313506828,-7.3964974408158115,24.714231269307025,15.563467683397556
5.96856833909867,-7.8971186878175725,24.869865946141,16.192809391476263
5.889597152220494,-7.694619002940734,25.031794040055765,15.98379277042369
5.8126509621910865,-6.802586164185683,25.191631967760003,14.968758478271075
5.7446251005492295,-5.665468018696506,25.341319552542714,13.747839742953847
5.687970420362264,-4.598417948231616,25.478797949972254,12.726603959503253
5.641986240879948,-3.6674153141041455,25.606063989567286,11.974305306570335
5.605312087738906,-2.8493704195991807,25.72580704263299,11.44845614453386
