th1 (rad),w1 (rad/s),th2 (rad),w2 (rad/s),a1 (rad/s^2),a2 (rad/s^2)
3.9576644354455066,-2.182257310390407,1.5985002289120909,2.869054127951279,2.6106062268942605,-4.587386195731741
3.9358418623416025,-2.1561512481214646,1.6271907701916037,2.8231802659939618,2.4659862681249627,-4.685697673058163
3.914280349860388,-2.131491385440215,1.6554225728515433,2.77632328926338,2.351921611804368,-4.76179537734646
3.8929654360059858,-2.107972169322171,1.683185805744177,2.7287053354899156,2.263870329269461,-4.821199043068354
3.871885714312764,-2.0853334660294767,1.7104728590990763,2.680493345059232,2.1979114846953465,-4.868651230514354
3.851032379652469,-2.0633543511825234,1.7372777925496687,2.6318068327540884,2.150717940619554,-4.9081464920780915
3.8303988361406436,-2.041847171776328,1.7635958608772095,2.5827253678333078,2.1195016708429018,-4.942997873700969
3.8099803644228802,-2.020652155067899,1.7894231145555426,2.533295389096298,2.101947281323773,-4.9759190654369965
3.789773842872201,-1.9996326822546613,1.8147560684465056,2.483536198441928,2.0961433796878493,-5.009108963881953
3.7697775160496545,-1.9786712484577829,1.8395914304309249,2.4334451088031086,2.100517249537749,-5.044331206045515
3.7499908035650766,-1.9576660759624054,1.8639258815189559,2.3830017967426533,2.113775549771382,-5.082985004476052
3.7304141428054525,-1.9365283204646915,1.8877558994863823,2.3321719466978927,2.134852064062031,-5.126165940273617
3.7110488596008055,-1.9151797998240712,1.9110776189533614,2.2809102872951565,2.16286253991516,-5.174716722563292
3.691897061602565,-1.8935511744249196,1.933886721826313,2.2291631200695234,2.1970661333380526,-5.229268645825104
3.6729615498583157,-1.871580513091539,1.9561783530270083,2.1768704336112723,2.236832740708246,-5.29027481116279
3.6542457447274,-1.8492121856844566,1.977947057363121,2.1239676854996445,2.2816154373492594,-5.358036284843616
3.635753622870556,-1.826396031310964,1.9991867342181175,2.070387322651208,2.330927277086272,-5.432722350383229
3.617489662557446,-1.8030867585401011,2.0198906074446294,2.016060099147376,2.384321791306539,-5.514385932739632
3.5994587949720454,-1.7792435406270357,2.040051208436103,1.9609162398199798,2.44137663105296,-5.602975172311008
3.581666359565775,-1.7548297743165062,2.059660370834303,1.9048864880968697,2.501679904570142,-5.698342023017966
3.5641180618226103,-1.729812975270805,2.0787092357152717,1.84790306786669,2.56481886594104,-5.800248652769584
3.5468199320699023,-1.7041647866113945,2.0971882663939385,1.789900581338994,2.630370702743831,-5.908372339492327
3.5297782842037884,-1.6778610795839561,2.1150872722073286,1.7308168579440708,2.6978952491781527,-6.022309481146607
3.5129996734079487,-1.6508821270921745,2.132395440786769,1.6705937631326047,2.766929514275794,-6.141579271036294
3.496490852137027,-1.6232128319494166,2.149101378418095,1.6091779704222418,2.836983961673269,-6.265627526368458
3.4802587238175327,-1.594842992332684,2.1651931581223174,1.5465216951585572,2.907540507375812,-6.393831094215804
3.4643102938942056,-1.5657675872589258,2.180658375073903,1.4825833842163991,2.978052214668984,-6.525503190762514
3.4486526180216166,-1.535987065112236,2.1954842089160667,1.417328352308774,3.0479446609116922,-6.659899953673806
3.433292747370494,-1.505507618503119,2.2096574924391543,1.350729352772036,3.1166189300313114,-6.796228401460354
3.418237671185463,-1.474341429202806,2.223164785966875,1.2827670687574326,3.1834561486000146,-6.93365589716933
3.403494256893435,-1.442506867716806,2.2359924566544493,1.2134305097857394,3.247823434864682,-7.071321107790848
3.389069188216267,-1.4100286333681593,2.2481267617523066,1.142717298707831,3.309081072615357,-7.20834633855058
3.3749689018825855,-1.3769378226420057,2.259553934739385,1.070633835322325,3.366590660004349,-7.343851007820175
3.3611995236561656,-1.3432719160419622,2.270260273092608,0.9971953252441232,3.419723923002487,-7.476965920424137
3.347766804495746,-1.3090746768119372,2.280232226345049,0.9224256660398819,3.467871830314293,-7.606847902487747
3.3346760577276267,-1.2743959585087943,2.289456483005448,0.8463571870150044,3.510453607540212,-7.732694287846854
3.321932098142539,-1.2392914224333922,2.2979200548755983,0.7690302441365359,3.546925228852678,-7.8537567020352785
3.309539183918205,-1.2038221701448655,2.3056103573169637,0.6904926771161831,3.5767869688455463,-7.969353580995708
3.2975009622167564,-1.1680543004564101,2.3125152840881253,0.610799141306226,3.599589628014202,-8.078880891416718
3.2858204192121923,-1.132058404176268,2.3186232755011877,0.5300103323920589,3.614939102639433,-8.181820588240138
3.2744998351704298,-1.0959090131498737,2.3239233788251084,0.44819212650965745,3.622499051209229,-8.277746449089557
3.263540745038931,-1.0596840226377813,2.3284053000902047,0.3654146620187619,3.6219915099703286,-8.366327058344323
3.252943904812553,-1.023464107538078,2.3320594467103923,0.28175139143531863,3.613195422764052,-8.447325865611889
3.242709263737172,-0.9873321533104374,2.3348769606247455,0.19727813277919976,3.5959431666466,-8.520598402771865
3.232835942204068,-0.9513727216439715,2.3368497419525376,0.1120721487514811,3.5701152661565665,-8.58608689819027
3.223322214987628,-0.9156715689824058,2.3379704634400524,0.02621127976957839,3.5356335871981353,-8.643812664330852
3.214165499297804,-0.8803152331104244,2.3382325762377483,-0.06022684687373013,3.492453379421207,-8.693866745805213
3.2053623469667,-0.8453906993162122,2.337630307769011,-0.14716551433178227,3.4405545887386353,-8.736399391593636
3.1969084399735377,-0.8109851534288259,2.336158652625693,-0.23452950824771862,3.37993288659628,-8.77160895366153
3.1887985884392496,-0.7771858245628631,2.333813357543216,-0.3222455977843339,3.310590859556241,-8.799730813764684
3.181026730193621,-0.7440799159673007,2.3305909015653725,-0.41024290592198076,3.232529773575765,-8.82102690321523
3.173585931033948,-0.7117546182315431,2.3264884725061528,-0.49845317495413305,3.1457422757011053,-8.835776311589823
3.1664683848516324,-0.680297195474532,2.3215039407566116,-0.5868109380700313,3.050206326567775,-8.844267386361217
3.1596654128968873,-0.6497951322088543,2.315635831375911,-0.6752536119336434,2.945880575553293,-8.846791613739976
3.1531674615747987,-0.6203363264533214,2.3088832952565745,-0.7637215280710432,2.832701302236587,-8.843639449385531
3.1469640983102654,-0.5920093134309555,2.301246079975864,-0.8521579225648985,2.710580958286743,-8.835098143528471
3.1410440051759556,-0.5649035038480881,2.2927245007502153,-0.9405089040001833,2.5794082578152384,-8.821451485176425
3.1353949701374746,-0.5391094212699357,2.2833194117102136,-1.0287234188519476,2.4390496857011765,-8.802981280265993
3.1300038759247752,-0.5147189244129239,2.273032177521694,-1.1167532316546076,2.2893522258504597,-8.779970283668963
3.124856686680646,-0.4918254021544193,2.261864645205148,-1.2045529344912973,2.130147057488538,-8.752706228631205
3.1199384326591018,-0.47052393157953387,2.249819115860235,-1.2920799967776093,1.9612539294422981,-8.721486542272695
3.1152331933433066,-0.4509113922851109,2.236898315892459,-1.3792948622003363,1.782485901296765,-8.68662330395391
3.1107240794204554,-0.43308653327214325,2.2231053672704557,-1.4661610952398754,1.593654136977319,-8.648447995327116
3.106393214087734,-0.41714999190237007,2.208443756318057,-1.5526455751931465,1.3945724506265826,-8.607315606359279
3.10222171416871,-0.40320426739610427,2.1929173005661253,-1.6387187312567393,1.185061335736595,-8.563607699005901
3.098189671494749,-0.39135365403873834,2.1765301132535577,-1.7243548082467983,0.9649512546456206,-8.5177340868247
3.0942761349543617,-0.38170414149228216,2.1592865651710897,-1.8095321491150453,0.7340850241746099,-8.470132860806581
3.090459093539439,-0.3743632912505361,2.1411912436799394,-1.8942334777231111,0.49231920108035143,-8.421268574244442
3.0867154606269334,-0.3694400992397326,2.122248908902708,-1.9784461634655555,0.23952444428809608,-8.371628487011936
3.083021059634536,-0.3670448547968516,2.1024644472680527,-2.0621624483356746,-0.024415094637183676,-8.321716856287987
3.0793506110865674,-0.36728900574322343,2.081842822784696,-2.1453796168985546,-0.2996032297979841,-8.272047340742553
3.0756777210291353,-0.3702850380412033,2.0603890266157103,-2.22810009030598,-0.5861338603715279,-8.2231336532799
3.0719748706487233,-0.37614637664491857,2.0381080257126505,-2.310331426838779,-0.8840935087815099,-8.175478649432282
3.068213406882274,-0.38498731173273365,2.015004711444263,-2.392086213333102,-1.1935639929869513,-8.129562071613101
3.0643635337649466,-0.39692295166260316,1.9910838493109317,-2.4733818340492326,-1.514624919521673,-8.08582718248998
3.060394304248321,-0.4120692008578199,1.9663500309704394,-2.5542401058741326,-1.847355668940454,-8.044666514210514
3.0562736122397425,-0.43054275754722443,1.940807629911698,-2.634686771016238,-2.19183654323217,-8.006406936156887
3.05196818466427,-0.4524611229795461,1.9144607622015357,-2.714750840377807,-2.548148753873844,-7.971294205687809
3.0474435734344745,-0.47794261051828457,1.8873132537977577,-2.794463782434685,-2.916372947320845,-7.939477118286193
3.0426641473292917,-0.507106339991493,1.8593686159734109,-2.8738585536175467,-3.296585989450424,-7.9109913205886615
3.0375930839293765,-0.5400721998859973,1.8306300304372354,-2.9529684668234335,-3.688855759519811,-7.885742797045401
3.0321923619305164,-0.5769607574811955,1.8011003457690011,-3.0318258947938874,-4.093233735716585,-7.863490993435015
3.0264227543557043,-0.6178930948383613,1.7707820868210622,-3.1104608047282376,-4.5097451871958745,-7.843831502754854
3.020243823407321,-0.6629905467103201,1.7396774787737799,-3.1888991197557863,-4.938376821293838,-7.826178215226901
3.0136139179402175,-0.7123743149232584,1.707788487576222,-3.2671609019080554,-5.379061770006371,-7.80974482784327
3.006490174790985,-0.7661649326233221,1.6751168785571413,-3.345258350186488,-5.831661838420418,-7.793525623031003
2.9988285254647518,-0.8244815510075263,1.6416642950552764,-3.423193606416798,-6.295946982097973,-7.7762754631864865
2.9905837099546764,-0.8874410208285061,1.6074323589911084,-3.500956361048663,-6.771572033763351,-7.756489010172807
2.981709299746391,-0.9551567411661396,1.5724227953806218,-3.578521251150391,-7.258050765994694,-7.73237926820638
2.97215773233473,-1.0277372488260865,1.536637582869118,-3.655845043832455,-7.754727460339351,-7.7018556663344055
2.961880359846469,-1.10528452342948,1.5000791324307934,-3.732863600495799,-8.260746258833123,-7.662502043880815
2.950827514612174,-1.1878919860178112,1.4627504964258353,-3.8094886209346073,-8.775018705502047,-7.611555079023552
2.938948594751996,-1.2756421730728316,1.4246556102164893,-3.8856041717248426,-9.296190046499747,-7.545883906114166
2.926192173021268,-1.368604073537829,1.385799568499241,-3.9610630107859843,-9.822605050170571,-7.461971898812983
2.9125061322858894,-1.4668301240395347,1.3461889383913812,-4.0356827297741145,-10.352274332559503,-7.355901848558039
2.897837831045494,-1.5703528673651297,1.3058321110936402,-4.109241748259695,-10.882842426883458,-7.223346033136928
2.882134302371843,-1.6791812916339643,1.2647396936110433,-4.181475208591064,-11.411559110683468,-7.059562936092485
2.8653424894555033,-1.7932968827407991,1.2229249415251326,-4.252070837951989,-11.935255790693475,-6.859402627694187
2.847409520628095,-1.912649440647734,1.1804042331456128,-4.320664864228931,-12.450329026574602,-6.617323030608212
2.8282830262216176,-2.03715273091348,1.1371975845033235,-4.386838094535013,-12.952733528727647,-6.327419441681075
2.8079114989124827,-2.1666800662007564,1.0933292035579734,-4.450112288951823,-13.437987165289538,-5.983469734791534
2.786244698250475,-2.3010599378536516,1.0488280806684551,-4.509946986299738,-13.90119062781692,-5.578997595471265
2.763234098871939,-2.440071844131821,1.0037286108054577,-4.565736962254451,-14.337064400636907,-5.1073559031657885
2.7388333804306204,-2.58344248813819,0.9580712411829132,-4.616810521286109,-14.740005523122145,-4.561831952792166
2.7129989555492386,-2.7308425433694117,0.9119031359700521,-4.66242884081403,-15.104166300392903,-3.9357755732359037
2.6856905301155445,-2.8818842063733405,0.8652788475619119,-4.701786596546389,-15.423556589774888,-3.2227503491656617
2.6568716880518113,-3.0361197722710895,0.818260981596448,-4.7340141000380465,-15.69217056675398,-2.4167070933052983
2.6265104903291006,-3.193041477938629,0.7709208405960676,-4.758181170971099,-15.904137973389355,-1.5121774768186629
2.594580075549714,-3.3520828576725226,0.7233390288863566,-4.773302945739285,-16.053898812950155,-0.504484350326198
2.561059246972989,-3.512621845802024,0.6756059994289637,-4.778347789242547,-16.13639933380893,0.610036167158489
2.525933028514969,-3.6739858391401135,0.6278225215365383,-4.772247427570962,-16.147306011244265,1.833807233228049
2.489193170123568,-3.835458899252556,0.5801000472608286,-4.753909355238681,-16.08323315510877,3.167786322577464
2.4508385811310425,-3.9962912308036436,0.5325609537084418,-4.722231492012907,-15.941978796828234,4.6112520476638315
2.410875668823006,-4.1557110187719255,0.48533863878831274,-4.676118971536268,-15.72276266531144,6.161613447858555
2.3693185586352867,-4.31293864542504,0.43857744907295004,-4.614502837057683,-15.426459337337949,7.814253867600179
2.3261891721810364,-4.467203238798419,0.3924324207023732,-4.53636029838168,-15.05581900335923,9.562423062459672
2.2815171397930523,-4.6177614288320115,0.3470688177185564,-4.440736067757084,-14.615667676860033,11.397192802580125
2.2353395255047324,-4.763918105600612,0.30266145704098557,-4.326764139731282,-14.113078081323541,13.307492921157209
2.1877003444487264,-4.905048886413848,0.25939381564367275,-4.19368921051971,-13.55750194985441,15.280246263249987
2.138649855584588,-5.040623905912392,0.21745692353847565,-4.04088674788721,-12.96085429065816,17.30062190981504
2.0882436165254643,-5.1702324488189735,0.17704805605960355,-3.86788052878906,-12.337540710532513,19.352425769548447
2.0365412920372745,-5.293607855924298,0.13836925077171294,-3.6743562710935755,-11.704420724952962,21.418645418463072
1.9836052134780315,-5.410652063173828,0.10162568806077718,-3.460169816908945,-11.080703792143035,23.482161261462526
1.9294986928462932,-5.5214591010952585,0.06702398989168773,-3.2253482042943196,-10.487781215023052,25.526628365510835
1.8742841018353407,-5.626336913245489,0.03477050784874453,-2.970081920639211,-9.949006431716832,27.537522993998312
1.8180207327028857,-5.725826977562657,0.0050696886423524205,-2.694706690699228,-9.489448472086668,29.503336191811904
1.7607624629272591,-5.820721462283524,-0.02187737826463986,-2.399673328781109,-9.135657796311085,31.416885963465855
1.702555248304424,-5.912078040246635,-0.045874111552450955,-2.0855044691464504,-8.915499037545908,33.27671266994554
1.6434344679019577,-6.001233030622093,-0.06672915624391546,-1.752737342446995,-8.85811957324752,35.08852245092989
1.5834221375957367,-6.0898142263545685,-0.0842565296683854,-1.4018521179376962,-8.994134382628722,36.8666531605553
1.522523995332191,-6.1797555701808555,-0.09827505084776236,-1.033185586332143,-9.356114292247208,38.63555669264709
1.4607264396303825,-6.273316713103328,-0.10860690671108379,-0.6468300194056722,-9.979463965287948,40.431316730643
1.3979932724993493,-6.373111352756207,-0.11507520690514052,-0.24251685209924223,-10.903763011553622,42.303240614864045
1.3342621589717873,-6.482148982871744,-0.11750037542613294,0.18051555404939823,-12.174606262720749,44.31555304582895
1.26944066914307,-6.603895045498951,-0.11569521988563895,0.6236710845076877,-13.845886561465433,46.549123787808156
1.2034017186880805,-6.7423539111136055,-0.10945850904056208,1.0891623223857692,-15.982238989316333,49.1028632445941
1.1359781795769446,-6.902176301006769,-0.09856688581670439,1.5801909548317101,-18.660827137013083,52.09365309792517
1.0669564165668768,-7.088784572376899,-0.08276497626838729,2.101127485810962,-21.97037355728823,55.651837916647885
0.9960685708431078,-7.308488307949782,-0.06175370141027767,2.657645864977441,-26.00233729899763,59.90500659661854
0.9229836877636101,-7.568511680939758,-0.035177242760503255,3.2566959309436263,-30.822236237361956,64.93297595495868
0.8472985709542125,-7.876734043313378,-0.0026102834510669942,3.9060256904932134,-36.39381531922487,70.65528960435654
0.7685312305210786,-8.240672196505626,0.036449973453865143,4.612578586536779,-42.3979120352218,76.56925137309968
0.6861245085560224,-8.664651316857844,0.08257575931923294,5.378271100267776,-47.840805632493876,81.19111230918146
0.599477995387444,-9.143059373182783,0.1363584703219107,6.1901822233595905,-50.34838042639633,81.05823861442096
0.5080474016556161,-9.646543177446746,0.19826029255550662,7.0007646095038005,-45.4334567489563,69.70911545006551
0.41158196988114865,-10.100877744936309,0.26826793865054466,7.697855764004456,-27.593258496925582,39.284773986025556
0.31057319243178555,-10.376810329905565,0.34524649629058923,8.090703503864711,3.320578095536882,-10.367993523389401
0.20680508913272988,-10.343604548950196,0.42615353132923633,7.987023568630817,34.88133095539729,-61.37698052390329
0.10336904364322791,-9.994791239396223,0.5060237670155445,7.373253763391784,51.723553044483474,-91.48239989333456
0.0034211312492656715,-9.477555708951389,0.5797563046494624,6.458429764458438,52.590089983190666,-98.41366117389609
-0.09135442584024822,-8.951654809119482,0.6443406022940468,5.4742931527194765,45.596333557362335,-93.46695805218774
-0.18087097393144302,-8.49569147354586,0.6990835338212416,4.539623572197599,36.93369335294672,-85.46745474752903
-0.2658278886669016,-8.126354540016392,0.7444797695432176,3.684949024722309,29.064044637940007,-78.02440407084683
-0.34709143406706555,-7.835714093636992,0.7813292597904407,2.904704984013841,22.568143036636762,-72.05056987093543
-0.42544857500343547,-7.6100326632706246,0.810376309630579,2.1841992853044863,17.394671753609924,-67.51271672104066
-0.5015489016361417,-7.436085945734526,0.8322183024836239,1.5090721180940796,13.347866299390228,-64.1299801335148
-0.575909761093487,-7.302607282740623,0.8473090236645647,0.8677723167589315,10.238315358074107,-61.59899019697302
-0.6489358339208933,-7.200224129159882,0.855986746832154,0.25178241478920127,7.917515601189647,-59.653101593282656
-0.7209380752124921,-7.121048973147986,0.8585045709800461,-0.34474860114362527,6.277257246056254,-58.070455720424924
-0.7921485649439719,-7.058276400687424,0.8550570849686098,-0.9254531583478746,5.240332778777835,-56.669045780399024
-0.8627313289508461,-7.005873072899646,0.845802553385131,-1.4921436161518649,4.75055037818734,-55.30048039747984
-0.9327900596798426,-6.958367569117772,0.8308811172236124,-2.0451484201266634,4.7641509971175795,-53.845413261111375
-1.0023737353710203,-6.910726059146596,0.8104296330223457,-2.5836025527377773,5.2429972241791125,-52.21083570540184
-1.0714809959624862,-6.858296086904805,0.784593607494968,-3.105710909791796,6.149470417270458,-50.32863712224907
-1.1400639568315343,-6.7968013827321005,0.7535364983970501,-3.6089972810142865,7.442940755689842,-48.154715133019955
-1.2080319706588554,-6.722371975175202,0.7174465255869071,-4.090544432344486,9.077665378380136,-45.66803419236843
-1.2752556904106074,-6.6315953213914005,0.6765410812634622,-4.54722477426817,11.00194568414406,-42.86923641715453
-1.3415716436245213,-6.52157586454996,0.6310688335207806,-4.975917138439716,13.158336165978225,-39.77863059049084
-1.4067874022700209,-6.389992502890178,0.5813096621363835,-5.373703444344624,15.484666098527333,-36.433576143153104
-1.4706873272989227,-6.235145841904904,0.5275726276929372,-5.738039205776155,17.9156313567271,-32.88540556138536
-1.5330387857179717,-6.0559895283376335,0.47019223563517565,-6.066893261390009,20.384741466707773,-29.19607933504159
-1.593598681001348,-5.852142113670555,0.40952330302127554,-6.358854054740425,22.826455548754346,-25.434754214507485
-1.6521201021380536,-5.623877558183012,0.3459347624738713,-6.613201596885499,25.178389548600652,-21.674397843057314
-1.7083588777198837,-5.372093662697005,0.2798027465050163,-6.8299455753160725,27.383506620709007,-17.988535170349447
