th1 (rad),w1 (rad/s),th2 (rad),w2 (rad/s),a1 (rad/s^2),a2 (rad/s^2)
3.956716979643192,0.030665981051546394,1.8873235026977582,-1.4590682596849494,4.483801486164344,-7.1682041765260545
3.9570236394537073,0.07550399591318983,1.8727328201009086,-1.53075030145021,4.340952824336064,-7.2193256682055535
3.957778679412839,0.11891352415655047,1.8574253170864066,-1.6029435581322655,4.194989419345234,-7.268876153368486
3.9589678146544047,0.1608634183500028,1.841395881505084,-1.6756323196659504,4.046132066719502,-7.317553288881616
3.9605764488379047,0.20132473901719783,1.8246395583084245,-1.7488078525547666,3.8946578250560604,-7.366000225688406
3.962589696228077,0.24027131726775844,1.807151479782877,-1.8224678548116506,3.7409087007358583,-7.414787204648149
3.9649924094007543,0.27768040427511703,1.7889268012347603,-1.896615726858132,3.585303598848149,-7.4643894453453195
3.9677692134435056,0.31353344026359853,1.769960643966179,-1.9712596213115852,3.42835421468631,-7.515160551949757
3.9709045478461418,0.34781698241046166,1.750248047753063,-2.046411226831083,3.2706856371406334,-7.567300506844358
3.974382717670246,0.380523838781868,1.7297839354847522,-2.1220842318995263,3.1130625318745486,-7.620817166396131
3.978187956058065,0.4116544641006135,1.708563093165757,-2.1982924035634874,2.9564218568034755,-7.675480028894325
3.982304500699071,0.4412186826686483,1.686580169130122,-2.2750472038524308,2.801913115722203,-7.730764937388255
3.9867166875257576,0.4692378138258703,1.6638296970915978,-2.352354853226313,2.650947147069836,-7.785788349936272
3.9914090656640164,0.4957472852965687,1.6403061485593347,-2.430212736725676,2.505254326582181,-7.839229918039638
3.996366538516982,0.5207998285623905,1.6160040211920779,-2.5086050359060725,2.3669527653991627,-7.889242451818044
4.001574536802606,0.5444693562163821,1.5909179708330172,-2.587497460424253,2.2386265101915437,-7.933349048090942
4.00701923036477,0.5668556213182976,1.5650429962287746,-2.666830950905162,2.123412764010794,-7.968328394347686
4.012687786577953,0.5880897489584055,1.538374686719723,-2.746514234848639,2.0250955702803113,-7.99009127309615
4.018568684067537,0.6083407046612086,1.5109095443712366,-2.8264151475796004,1.9482010242153154,-7.993554367090667
4.024652091114149,0.6278227149033617,1.4826453928954406,-2.9063506912505073,1.898085662461372,-7.972521929581371
4.030930318263183,0.6468035715279754,1.4535818859829355,-2.986075910546321,1.8810050247403993,-7.919592034234724
4.037398353978462,0.6656136217753794,1.4237211268774723,-3.065271830888668,1.904143389062685,-7.826112114674004
4.044054490196216,0.6846550556660063,1.3930684085685856,-3.1435329520354083,1.9755785368699021,-7.682218153616779
4.050901040752876,0.7044108410347053,1.3616330790482316,-3.220355133571576,2.1041478033897865,-7.477002327991882
4.057945149163223,0.7254523190686032,1.3294295277125159,-3.295125156851495,2.299175142174286,-7.198863201928018
4.065199672353909,0.748444070490346,1.296478276144001,-3.367113788870775,2.570016182848407,-6.836097160842084
4.072684113058813,0.7741442323188301,1.2628071382552932,-3.435474760479196,2.925383356490938,-6.377784310753557
4.080425555382001,0.8033980658837395,1.2284523906505012,-3.499252603586732,3.3724312938988463,-5.8149995502265925
4.088459536040838,0.837122378822728,1.193459864614634,-3.5574025990889977,3.915619055799531,-5.142332815690437
4.096830759829065,0.8762785693807233,1.157885838623744,-3.6088259272459022,4.555423095850577,-4.35962745718226
4.105593545522872,0.9218328003392291,1.121797579351285,-3.652422201817725,5.287049791245232,-3.4737461389480564
4.114811873526264,0.9747032982516814,1.085273357333108,-3.6871596632072055,6.099375262840351,-2.5000669089901857
4.124558906508781,1.035697050880085,1.0484017607010359,-3.7121603322971075,6.974397202240439,-1.4633318855772806
4.1349158770175825,1.1054410229024894,1.0112801573780648,-3.7267936511528803,7.887484238566709,-0.39746295774975515
4.145970287246607,1.1843158652881565,0.9740122208665359,-3.730768280730378,8.808622476060565,0.6559353409438825
4.157813445899489,1.272402090048762,0.9367045380592322,-3.724208927320939,9.70467832750301,1.650433264455806
4.170537466799977,1.3694488733237922,0.8994624487860228,-3.707704594676381,10.542453186231016,2.5387209220935514
4.184231955533215,1.4748734051861023,0.862385402839259,-3.6823173854554456,11.292070856599342,3.2770533599919585
4.198980689585076,1.5877941137520957,0.8255622289847045,-3.649546851855526,11.930101988665523,3.829415606875958
4.214858630722597,1.707095133638751,0.7890667604661493,-3.6112526957867663,12.441855277503988,4.170645030868439
4.231929582058985,1.8315136864137909,0.7529542335082816,-3.5695462454780817,12.822455680445483,4.287983863037859
4.250244718923123,1.9597382432182457,0.7172587710535008,-3.526666406847703,13.076620309626138,4.1809074451910515
4.269842101355306,2.0905044463145073,0.6819921069850238,-3.4848573323957925,13.21733078473087,3.8594519352312733
4.290747145818451,2.222677754161816,0.6471435336610658,-3.4462628130434796,13.263796374672946,3.3415296284600453
4.31297392336007,2.3553157179085455,0.612680905530631,-3.412847516758879,13.239163873178184,2.6498131055151988
4.336527080539155,2.4877073566403274,0.5785524303630423,-3.386349385703727,13.168372021653129,1.8087052643521278
4.361404154105559,2.619391076856859,0.544688936506005,-3.3682623330602057,13.076419823383752,0.8417520308366547
4.387598064874127,2.7501552750906963,0.511006313175403,-3.359844812751839,12.98717474740572,-0.2303310162707307
4.415099617625034,2.8800270225647537,0.4774078650478846,-3.3621481229145465,12.922728813511243,-1.3910050722269454
4.443899887850682,3.009254310699866,0.44378638381873914,-3.376058173636816,12.90323577674058,-2.628720855545175
4.47399243095768,3.138286668467272,0.410025802082371,-3.402345382192268,12.947130657707607,-3.9373445674092156
4.505375297642353,3.267757975044348,0.3760023482604483,-3.44171882786636,13.07163332185947,-5.316357512042864
4.538052877392797,3.3984743082629425,0.34158515998178474,-3.494882402986789,13.293457924131824,-6.770979800472832
4.5720376204754265,3.5314088875042606,0.30663633595191686,-3.562592200991517,13.629679126416647,-8.31234929198521
4.6073517093504694,3.667705678768427,0.2710104139420017,-3.6457156939113693,14.098737018040962,-9.95786829151101
4.644028766138153,3.808693048948837,0.234553257002888,-3.7452943768264793,14.72159180153592,-11.731817719266692
4.682115696627641,3.9559089669641962,0.1971003132346232,-3.862612554019146,15.52306448244758,-13.666332443516731
4.721674786297283,4.111139611788672,0.15847418769443175,-3.999275878454313,16.53341847615516,-15.80282846860998
4.76278618241517,4.276473796550223,0.11848142890988861,-4.157304163140413,17.790242541371317,-18.19396126642478
4.805550920380672,4.454376221963937,0.07690838727848448,-4.339243775804661,19.340669775254305,-20.906146903019163
4.850094682600312,4.64778291971648,0.03351594952043787,-4.548305244834853,21.24386527905309,-24.022527885914474
4.896572511797476,4.860221572507011,-0.011967102927910658,-4.788530523693997,23.573426841262496,-27.64585825816224
4.945174727522547,5.095955840919636,-0.05985240816485063,-5.06498910627562,26.418607096169104,-31.89974964729984
4.996134285931743,5.360141911881327,-0.11050229922760682,-5.383986602748618,29.88146406944635,-36.924194610612275
5.049735705050556,5.658956552575791,-0.16434216525509301,-5.753228548854741,34.0627401968516,-42.85524612988896
5.106325270576313,5.999583954544307,-0.22187445074364043,-6.181781010153631,39.0192335803417,-49.76465638180344
5.166321110121756,6.389776290347724,-0.28369226084517674,-6.679427573971665,44.65319006492328,-57.50407167596071
5.230218873025233,6.836308190996957,-0.35048653658489337,-7.254468290731272,50.4509439973376,-65.33755006880594
5.2985819549352025,7.340817630970333,-0.4230312194922061,-7.907843791419332,54.93401365021105,-71.17012695060691
5.371990131244906,7.890157767472444,-0.5021096574063995,-8.6195450609254,54.76846851456566,-70.29578008805628
5.45089170891963,8.437842452618101,-0.5883051080156535,-9.322502861805964,44.31522699521579,-54.76363084012407
5.535270133445811,8.880994722570259,-0.6815301366337131,-9.870139170207205,18.77038083605519,-17.787291552678152
5.624080080671514,9.068698530930812,-0.7802315283357851,-10.048012085733987,-16.660540117030674,33.36946526024483
5.714767065980822,8.902093129760505,-0.8807116491931251,-9.714317433131539,-44.59590235645684,74.34462665939526
5.803787997278427,8.456134106195936,-0.9778548235244404,-8.970871166537586,-54.207572426025315,89.92386055783773
5.888349338340386,7.914058381935683,-1.0675635351898163,-8.071632560959209,-50.635950403715604,87.21626812144558
5.967489922159743,7.407698877898527,-1.1482798607994085,-7.199469879744753,-42.39090413616428,78.05466299501948
6.041566910938728,6.983789836536884,-1.220274559596856,-6.418923249794558,-33.89005708564967,68.58899863910794
6.111404809304097,6.644889265680387,-1.2844637920948017,-5.733033263403478,-26.490691626317343,60.71840101324132
6.177853701960901,6.379982349417213,-1.3417941247288365,-5.125849253271065,-20.349434717494056,54.67196637212392
6.241653525455073,6.176488002242273,-1.3930526172615472,-4.579129589549826,-15.286785066088804,50.2063599656255
6.303418405477496,6.023620151581385,-1.4388439131570454,-4.077065989893571,-11.078064679974737,47.00766966463819
6.363654606993309,5.912839504781638,-1.479614573055981,-3.6069892932471888,-7.532513443739124,44.79964421407955
6.422783002041125,5.8375143703442465,-1.515684465988453,-3.1589928511063934,-4.50596835418594,43.35991264698208
6.481158145744568,5.792454686802387,-1.5472743944995169,-2.7253937246365725,-1.8956934849320062,42.51152916408329
6.539082692612592,5.773497751953067,-1.5745283317458827,-2.3002784329957393,0.3678662061662606,42.110489055023
6.596817670132123,5.777176414014729,-1.59753111607584,-1.8791735424455092,2.3285129588376767,42.034904568536646
6.65458943427227,5.800461543603106,-1.6163228515002952,-1.4588244967601427,4.010329150102081,42.17701744594107
6.712594049708302,5.840564835104127,-1.6309110964678966,-1.037054322300732,5.422637885447524,42.43801044781508
6.7709996980593425,5.8947912139586025,-1.6412816396909038,-0.6126742178225812,6.564353486957234,42.72533783790079
6.8299476101989285,5.960434748828175,-1.6474083818691296,-0.18542083944357335,7.428083878126909,42.95227094317897
6.88955195768721,6.034715587609444,-1.6492625902635654,0.24410186998821637,8.004166513666132,43.03931207686658
6.949899113563305,6.114757252746105,-1.6468215715636831,0.6744949907568822,8.284614201024871,42.91701273758648
7.011046686090766,6.197603394756354,-1.6400766216561142,1.103665118132747,8.26675355107938,42.52956358047597
7.073022720038329,6.2802709302671476,-1.6290399704747867,1.5289607539375067,7.956199166023051,41.838370648919444
7.135825429341001,6.359832921927378,-1.6137503629354115,1.9473444604267012,7.368764981804327,40.82477759611057
7.1994237585602745,6.433520571745421,-1.5942769183311445,2.355592236387807,6.530997881017365,39.49120301829961
7.263758964277729,6.498830550555595,-1.5707209959672663,2.750504266570803,5.479219150440708,37.86025029902617
7.3287472697832845,6.553622742060002,-1.5432159533015584,3.129106769561065,4.25722484330257,35.971760224020755
7.394283497203885,6.596194990493028,-1.5119248856059477,3.4888243718012726,2.9130459140170717,33.878203987171396
7.460245447108815,6.625325449633198,-1.477036641887935,3.8276064116729867,1.4953247971721237,31.639132998837322
7.5264987016051474,6.64027869760492,-1.4387605777712051,4.14399774166136,0.04988350784875091,29.31552754178187
7.592901488581196,6.6407775326834075,-1.3973206003545915,4.437153017079178,-1.3830533982221092,26.964805063373827
7.65930926390803,6.626946998701187,-1.3529490701837996,4.706801067712917,-2.7707103234444252,24.637015249639475
7.725578733895042,6.599239895466742,-1.3058810595066705,4.953171220209311,-4.088623994879655,22.372453905216545
7.791571132849709,6.558353655517946,-1.2563493473045775,5.176895759261477,-5.320624953665119,20.2006582107406
7.857154669404888,6.505147405981295,-1.2045803897119627,5.378902341368883,-6.458144765320973,18.140557471572976
7.9222061434647015,6.440565958328085,-1.1507913662982738,5.5603079160846125,-7.4990893032281,16.2014620692647
7.986611803047983,6.365575065295804,-1.0951882871374277,5.722322536777259,-8.446499467070058,14.384564835492904
8.050267553700941,6.281110070625103,-1.037965061769655,5.866168185132188,-9.307172998756695,12.684674784259558
8.113078654407191,6.1880383406375365,-0.979303379918333,5.993014932974783,-10.090365067486095,11.091973501036952
8.174959037813567,6.087134689962675,-0.9193732305885852,6.103934667985153,-10.8066347008056,9.59365695544869
8.235830384713193,5.979068342954619,-0.8583338839087337,6.19987123753964,-11.466865611004511,8.175386796540817
8.295621068142738,5.864399686844574,-0.7963351715333372,6.281625105505048,-12.081464883832115,6.822520000881797
8.354265065011184,5.743585038006253,-0.7335189204782867,6.349850305513867,-12.65972963034844,5.5211141184207335
8.411700915391247,5.6169877417027685,-0.670020417423148,6.405061446698074,-13.209367008804099,4.258720166105445
8.467870792808275,5.484894071614727,-0.6059698029561673,6.447648648359128,-13.736153783425303,3.024980318120548
8.522719733524422,5.347532533780474,-0.541493316472576,6.477898451540334,-14.243724979960048,1.8120467288178728
8.576195058862227,5.2050952839808735,-0.4767143319571727,6.496018918828512,-14.733485004505262,0.6148343292481163
8.628246011702036,5.057760433935821,-0.4117541427688876,6.502167262120993,-15.204637218985432,-0.5688832401817834
8.678823616041393,4.905714061745966,-0.34673247014767766,6.4964784297191756,-15.654328416295757,-1.738527510375158
8.727880756658854,4.749170777583009,-0.2817676858504859,6.479093154615424,-16.07790248437483,-2.8909113544279186
8.775372464434684,4.588391752739261,-0.21697675430433166,6.450184041071145,-16.469252922268144,-4.020566563936688
8.821256381962076,4.4236992235165795,-0.15247491389362022,6.409978375431778,-16.82125743087305,-5.1201860737086475
8.865493374197243,4.255486649207849,-0.08837513013930244,6.358776514694691,-17.126270649314755,-6.181156677695181
8.908048240689322,4.084223942714702,-0.024787364992355523,6.296964947917739,-17.376644628851782,-7.194150575043769
8.948890480116468,3.910457496426184,0.03818228448682187,6.225023442167301,-17.56524225124476,-8.149738086709613
8.987995055080729,3.734805073913736,0.10043251890849489,6.143526061300205,-17.68590767658564,-9.038980861484923
9.025343105819866,3.55794599714788,0.16186777952149695,6.0531362526853565,-17.733860692284694,-9.853965853486319
9.060922565791344,3.380607390225033,0.2223991420483505,5.954596594150494,-17.705988476073575,-10.588245600104436
9.094728639693594,3.2035475054642975,0.28194510798985545,5.848714138149449,-17.601018004453383,-11.237159358255116
9.126764114748237,3.0275373254197637,0.34043224937134997,5.736342544566898,-17.419563781930226,-11.798021259953897
9.157039488002434,2.8533416876004614,0.39779567481701894,5.618362331967359,-17.164057093080565,-12.270174173924062
9.18557290487844,2.6817011166696556,0.4539792981366925,5.495660590228118,-16.838573000240224,-12.654919667429262
9.212389916045137,2.5133153866672533,0.5089359040389737,5.369111393553825,-16.44857860053986,-12.955343873965553
9.23752306991181,2.3488296006618548,0.562627017974512,5.2395579548141695,-16.00062995840761,-13.176065231083916
9.261011365918428,2.1888233010777784,0.6150225975226536,5.1077973025033305,-15.502045601760061,-13.322932633822385
9.282899598929205,2.033802845060178,0.666100570547687,4.9745679761651065,-14.960581999336659,-13.402701819675285
9.303237627379808,1.8841970250668114,0.7158462503093381,4.840540957968353,-14.384131858004682,-13.422714463211799
9.322079597630475,1.7403557064867645,0.7642516598890217,4.706313813336235,-13.780460360804481,-13.39059944057054
9.339483154695342,1.6025511028787198,0.811314798022384,4.57240781893053,-13.156988519962308,-13.314009975164083
9.355508665724129,1.4709812176790966,0.8570388762116894,4.439267719178889,-12.520627365529178,-13.20040470953946
9.37021847790092,1.345774944023805,0.9014315534034782,4.3072636720834945,-11.877662200108958,-13.056875753647095
9.383676227341159,1.2269983220227154,0.9445041901243132,4.176694914547023,-11.233682843142871,-12.89002277817851
9.395946210561386,1.1146614935912866,0.9862711392697834,4.047794686765238,-10.59355367651358,-12.705869372402196
9.407092825497298,1.0087259568261508,1.0267490861374358,3.920735993041216,-9.961416254229087,-12.509816119604938
9.41718008506556,0.90911179428386,1.065956446067848,3.7956378318451667,-9.340717040065469,-12.306624003469098
9.4262712030084,0.8157046238832053,1.1039128243862995,3.6725715918104758,-8.734253250095387,-12.100421638497863
9.434428249247231,0.7283620913822514,1.1406385403044041,3.5515673754254973,-8.14423057684999,-11.894730202667713
9.441711870161054,0.6469197856137515,1.1761542140586592,3.4326200733988204,-7.57232756895465,-11.692500647595452
9.448181068017192,0.571196509924205,1.2104804147926473,3.3156950669228658,-7.0197624898804385,-11.496158613194266
9.453893033116433,0.5009988850254006,1.243637365461876,3.200733480790923,-6.4873594821984115,-11.307653362796312
9.458903021966687,0.43612529020341645,1.2756447002697853,3.08765694716296,-5.975611758704767,-11.128507901603127
9.463264274868722,0.37636917261636876,1.3065212697414148,2.976371868146929,-5.484740299125568,-10.959868198480914
9.467027966594886,0.3215217696251131,1.336284988422884,2.8667731861621197,-5.0147471431837,-10.802550075428266
9.470243184291137,0.2713742981932761,1.3649527202845053,2.758747685407837,-4.5654628445831955,-10.657082854755089
9.472956927273069,0.22571966974744412,1.3925401971385838,2.652176856860286,-4.136588001314995,-10.523749266600639
9.475214123970543,0.18435378973429417,1.4190619657071866,2.5469393641942797,-3.7277290248375303,-10.40262143078068
9.477057661867887,0.14707649948591886,1.4445313593491294,2.442913149886473,-3.3384284740867005,-10.293592951906664
9.478528426862747,0.11369221474505185,1.468960490847994,2.3399772203674063,-2.9681903786681847,-10.196407320653893
9.479665349010197,0.08401031095837,1.4923602630516681,2.2380131471608675,-2.6165010254753076,-10.11068291149395
9.48050545211978,0.057845300703616924,1.514740394523277,2.136906318045928,-2.2828456981732512,-10.035934921039242
9.481083905126816,0.03501684372188441,1.5361094577037362,2.0365469688355358,-1.9667218506026833,-9.971594612325543
9.481434073564035,0.015349625215857577,1.5564749273920915,1.9368310227122802,-1.6676491717863389,-9.917026227884259
9.481587569816194,-0.0013268665020058114,1.5758432376192142,1.8376607604334376,-1.385176968289949,-9.871541915542037
9.481574301151174,-0.015178636184905302,1.5942198452235485,1.7389453412780171,-1.118889253789811,-9.834414981190527
9.481422514789324,-0.026367528722803412,1.6116092986363286,1.6406011914661118,-0.8684078989618617,-9.804891746664056
9.481158839502097,-0.03505160771242203,1.6280153105509898,1.5425522739994713,-0.6333941592152794,-9.78220225167436
9.480808323424972,-0.041385549304574824,1.6434408332909844,1.4447302514827276,-0.4135488644743562,-9.765569998981823
9.480394467931927,-0.04552103794931839,1.6578881358058117,1.3470745514929094,-0.2086115246710715,-9.754220903485287
9.479939257552433,-0.0476071531960291,1.6713588813207407,1.2495323424580567,-0.01835857693423654,-9.747391570029011
9.479463186020473,-0.04779073896537147,1.6838542047453213,1.1520584267577665,0.15739902452820453,-9.744336992388172
9.47898527863082,-0.04621674872008942,1.695374789012899,1.0546150568338848,0.3188186974700604,-9.744337737697043
9.478523111143618,-0.04302856174538881,1.7059209395812378,0.9571716794569144,0.46602944177952516,-9.746706656836393
9.478092825526163,-0.03836826732759356,1.715492656375807,0.8597046128885505,0.5991352318908414,-9.750795142061804
9.477709142852888,-0.03237691500868515,1.7240897025046926,0.7621966614679324,0.7182184700094839,-9.755998938284538
