th1 (rad),w1 (rad/s),th2 (rad),w2 (rad/s)
4.0309030875369025,2.0464029320228123,5.884460304180061,-0.9828746512661095
4.051367116857131,2.1301075506627627,5.8746315576674,-0.9616871535279987
4.072668192363759,2.213933553826456,5.86501468613212,-0.9457493710596155
4.094807527902024,2.2980682745176044,5.855557192421524,-0.9352816576035956
4.1177882106472,2.3827105199824463,5.846204375845488,-0.9305194213471987
4.141615315847025,2.468072794838055,5.836899181632016,-0.9317154033402149
4.1662960437954055,2.554383944284588,5.827582027598614,-0.9391423156428192
4.191839883238251,2.641892273165176,5.818190604442186,-0.9530959287137167
4.218258805969903,2.730869208427048,5.808659645155048,-0.9738987108909399
4.245567498054173,2.8216135858481755,5.798920658046138,-1.0019041372205648
4.273783633912655,2.914456656376409,5.788901616673932,-1.0375017995286238
4.302928200476419,3.00976792216553,5.7785265986786465,-1.0811234627696902
4.3330258796980745,3.107961925416658,5.767715364050949,-1.133250220956819
4.364105498952241,3.209506120578071,5.756382861841381,-1.194420903153948
4.396200560158022,3.3149299550762032,5.7444386528098415,-1.265241854854493
4.4293498597087835,3.424835252326526,5.731786234261296,-1.3463981525919007
4.463598212232049,3.5399079095717485,5.718322252735377,-1.4386661645900425
4.4989972913277665,3.6609307499204777,5.7039355910894765,-1.5429270858425765
4.535606598826972,3.788797028270734,5.688506320231051,-1.6601805441076471
4.573494569109679,3.924523453603297,5.671904514789975,-1.791556405457613
4.612739803645711,4.069260426622833,5.653988950735399,-1.9383211772091997
4.653432407911939,4.224295106170132,5.634605738963307,-2.1018723497488594
4.695675358973641,4.39103923753976,5.613587015465819,-2.2837086854685698
4.739585751349038,4.570987293822963,5.590749928611133,-2.4853552945150947
4.785295624287268,4.765619687640628,5.565896375665981,-2.708206939871159
4.832951821163674,4.976208305149972,5.53881430626727,-2.953228198429984
4.882713904215174,5.203455371360736,5.50928202428297,-3.2204121439934967
4.934748457928781,5.446863544064258,5.477077902843035,-3.5078530340897984
4.989217093369423,5.70371174589699,5.441999372502138,-3.8102570527291926
5.046254210828393,5.96755415125837,5.403896801974846,-4.11677930900451
5.105929752340977,6.226404353040607,5.362729008884801,-4.408427522184013
5.168193795871383,6.461419536245253,5.318644733662961,-4.656205620458474
5.232807991233835,6.647958115628069,5.272082677458377,-4.8226783157472095
5.299287572390115,6.761324162703112,5.223855894300905,-4.870263120374338
5.366900814017146,6.786936476236113,5.175153263097162,-4.775892632132817
5.434770178779507,6.728814549383106,5.127394336775834,-4.543359891786359
5.502058324273338,6.608383680653561,5.08196073785797,-4.201903079065266
5.568142161079874,6.453993564387632,5.039941707067317,-3.791443169513283
5.63268209672375,6.290195790514117,5.002027275372185,-3.3472509831883186
5.695584054628891,6.133145966662982,4.9685547655403015,-2.8931793557081966
5.756915514295521,5.991230991265377,4.939622971983219,-2.442332739184534
5.816827824208175,5.867535089011881,4.9151996445913735,-2.0004397594707894
5.875503175098293,5.7620889320860655,4.895195246996666,-1.569004903627026
5.933124064419154,5.673363678232121,4.879505197960396,-1.147442640231951
5.989857701201475,5.599122583336035,4.868030771558076,-0.7343252544741854
6.045848927034836,5.53686078678297,4.860687519013334,-0.3280537958716128
6.101217534902665,5.484012783507241,4.857406981054618,0.07280302900783109
6.156057662737738,5.438038870383065,4.858135011344697,0.46934969104444074
6.210438051441569,5.396453250129355,4.8628285082551415,0.8622990517894371
6.2644025839428625,5.356827468576276,4.871451498773036,1.2519569142305202
6.317970858628625,5.31678677667859,4.883971067915341,1.6382332480235564
6.371138726395411,5.274008345067302,4.900353400395576,2.0206692912266546
6.423878809846084,5.226225589012469,4.920560093307842,2.3984757556601366
6.476141065736209,5.171240262883563,4.944544850864443,2.7705802044055825
6.527853468365044,5.106942434071096,4.9722506529084995,3.135682781680246
6.578922892705755,5.031337427437668,5.003607480725302,3.492319652905129
6.629236266980132,4.942578094301301,5.038530677254353,3.838933205180734
6.678662047923145,4.8390001996761045,5.07692000930616,4.1739475342106385
6.727052049919906,4.719158306442625,5.1186594846482665,4.495847175514412
6.774243632984332,4.5818592688930595,5.163617956403411,4.803256543161501
6.820062225673262,4.426190348424123,5.211650521835026,5.095017200854076
6.864324129157503,4.251539051120177,5.262600693843567,5.37025996576072
6.906839519668705,4.05760207554626,5.316303293501175,5.628468973297354
6.947415540424168,3.8443812527599133,5.3725879832341485,5.869535231565004
6.985859352951767,3.6121650448561966,5.431283335549798,6.093797868334083
7.021981003400329,3.3614950047964034,5.492221314233139,6.302072197788274
7.055595953448293,3.0931175236470754,5.5552420362110215,6.495664854603705
7.0865271286847635,2.8079221141050654,5.620198684757058,6.6763774703128975
7.114606349825814,2.5068683060771866,5.6869624594601875,6.8465015768835835
7.1396750328865854,2.1909038851284626,5.755427475229023,7.008808457268312
7.16158407173787,1.8608776708351606,5.8255155598017065,7.166538327886889
7.180192848446222,1.5174504068407297,5.897180943080575,7.323393276562635
7.195367352514629,1.161007911533404,5.970414875846202,7.483537392547356
7.206977431629963,0.7915820478548412,6.045250249771676,7.651604785741889
7.214893252108512,0.40878854505180856,6.121766297629095,7.83271025211997
7.21898113755903,0.011798602875251973,6.200093400150294,8.032445253554808
7.219099123587783,-0.40062197583260584,6.280417852685842,8.256817712686411
7.215092903829457,-0.8299382284941788,6.362986029812706,8.512046352756144
7.206793521544515,-1.2774017970654532,6.448106493340267,8.804028035847566
7.194019503573861,-1.743081833215237,6.536146773698743,9.137127492180955
7.1765886852417085,-2.223922843935179,6.627518048620552,9.511665194149888
7.154349456802357,-2.710172388604609,6.722634700562051,9.919171189877225
7.12724773291631,-3.1796657297377897,6.821826412460823,10.334628821688622
7.095451075618932,-3.5911465508899,6.9251727006777095,10.707196486817589
7.059539610110034,-3.883008779016225,7.0322446655458855,10.958010140617672
7.020709522319871,-3.990438934427469,7.1418247669520625,11.002782114745425
6.980805132975596,-3.8847815924884284,7.251852588099517,10.804478458915083
6.941957317050711,-3.6016857049278213,7.359897372688668,10.410547051442148
6.905940460001434,-3.2180103617667397,7.464002843203089,9.920965131301134
6.873760356383766,-2.8038546806064493,7.563212494516101,9.42416476877828
6.845721809577701,-2.400297908335718,7.657454142203884,8.968887422418797
6.821718830494344,-2.0242523238484886,7.747143016428072,8.57216518991957
6.801476307255859,-1.6794803396215292,7.832864668327267,8.234610354429805
6.784681503859644,-1.3641537891315803,7.915210771871565,7.95047004679087
6.771039965968328,-1.0746313891594206,7.9947154723394735,7.7124301769734895
6.760293652076733,-0.8070631415328737,8.071839774109208,7.513515017062333
6.752223020661404,-0.557977752715975,8.146974924279831,7.347681130509699
6.746643243134244,-0.3244405931182418,8.220451735584929,7.209891377625451
6.7433988372030615,-0.10404577596619191,8.292550649361184,7.0960089838816005
6.7423583794434,0.10514660353139055,8.3635107392,7.002647935564561
6.7434098454787135,0.3046838004624445,8.433537218555646,6.9270296928513915
6.746456683483338,0.49578822881625495,8.50280751548416,6.866861380069816
6.7514145657715,0.6794151470989888,8.571476129284857,6.820237336294942
6.75820871724249,0.8563000515356677,8.639678502647806,6.785561401533478
6.766771717757846,1.026997098108986,8.70753411666314,6.7614862377449905
6.777041688738937,1.1919101823414011,8.77514897904059,6.74686614919286
6.788960790562351,1.3513181706101813,8.842617640532518,6.740720396074082
6.802473972268452,1.5053955045524543,8.91002484449326,6.742204556052506
6.817527927313977,1.6542291113390601,8.977446890053784,6.750587969198341
6.834070218427367,1.7978322902261086,9.044952769745768,6.765235679485573
6.852048541329628,1.9361560215333093,9.112605126540624,6.785593569021753
6.871410101544961,2.0690979583883724,9.18046106223084,6.8111755878400935
6.892101081128844,2.1965092115661076,9.248572818109242,6.841552131805603
6.914066173244505,2.318198921273529,9.316988339427297,6.87633873185135
6.93724816245724,2.4339365261682384,9.385751726745811,6.9151843052842805
6.9615875277189225,2.5434515907011304,9.454903569798654,6.95775829875925
6.987022043625934,2.646431040744647,9.524481152786247,7.003736136651576
7.01348635403338,2.7425136904915073,9.594518514152764,7.052782492423682
7.040911490938295,2.831282029418652,9.665046339077001,7.104532040272029
7.069224311232482,2.912251387929115,9.736091659479722,7.1585675385370315
7.098346825111773,2.984856827540779,9.807677334865092,7.214395366778644
7.1281953933871804,3.04843842047524,9.879821288532879,7.271419009122365
7.158679777591932,3.1022260062477685,9.952535478624103,7.328911471048779
7.18970203765441,3.1453250432638655,10.02582459333459,7.385988252108441
7.221155288087049,3.1767057975825197,10.099684475855675,7.441583272185242
7.252922346062874,3.195198783325077,10.174100308577527,7.494431028369655
7.284874333896125,3.199499995405422,10.249044618861223,7.543059151144362
7.316869333850179,3.188189896249631,10.324475210372666,7.585796260897787
7.348751232812676,3.159770103527961,10.400333172981645,7.620800333650737
7.380348933847955,3.1127209905760194,10.476541176318152,7.64611232058082
7.411476143753715,3.045581671845688,10.55300229952396,7.659738156083569
7.441931960472172,2.957050928137594,10.629599681084796,7.659759254269325
7.471502469753548,2.8461036151719994,10.70619727362749,7.6444671262569095
7.499963505905268,2.712112486770427,10.78264194489006,7.61251230500029
7.527084630772972,2.5549611151065164,10.858767067940063,7.563052365317165
7.5526342419240375,2.3751310207246394,10.934397591593234,7.495879971964969
7.576385552131284,2.17374653881081,11.009356391312883,7.411511167858253
7.598123017519392,1.9525651003877387,11.083471502991465,7.311217599517999
7.61764866852327,1.7139082045770657,11.156583678986644,7.196994014951354
7.63478775056904,1.4605378948591703,11.228553619136157,7.071462718591816
7.649393129517632,1.195492670395619,11.299268246322075,6.937727217282213
7.6613480562215885,0.9219030610942875,11.368645518494898,6.799195311773546
7.6705670868325315,0.6428090217727189,11.436637471612633,6.659395441944702
7.676995177050259,0.3609986966469398,11.50323142603208,6.521808702720056
7.680605164016728,0.0788821347808416,11.568449513059281,6.389733616524277
7.6813939853645365,-0.20159389265036626,11.632346849224524,6.266193404011264
7.679378046438033,-0.47899081710484803,11.695008783264637,6.153888187626959
7.6745881382669845,-0.7523890357755751,11.756547665140907,6.055188817134149
7.667064247909229,-1.021373612472514,11.817099553312248,5.97216554078741
7.656850511784504,-1.2860049467065924,11.876821208720122,5.906643544759458
7.643990462317438,-1.5467838780780605,11.935887644167716,5.860277969574295
7.628522623536657,-1.8046193228830538,11.994490423863459,5.834642747282288
7.610476430307827,-2.060804958058386,12.052836851336282,5.831329905306423
7.589868380727243,-2.317010082859613,12.111150150389348,5.8520584295149956
7.566698279898646,-2.5752888046976095,12.169670734684498,5.89879410568587
7.54094539185167,-2.838111116461679,12.228658675741357,5.9738837780587115
7.512564280687053,-3.108419031081197,12.288397513521945,6.0802089003109785
7.481480090376241,-3.3897101023443517,12.349199602525054,6.221363422204928
7.447582989352798,-3.686147954512797,12.411413236747103,6.401858176638077
7.4107215098076695,-4.0026915299567785,12.475431818513485,6.627343590339194
7.370694594508102,-4.345213839913721,12.541705254416877,6.9048140841685814
7.327242456108965,-4.720528855002238,12.610753395258563,7.242685743224054
7.280037167558943,-5.1361200089104155,12.683180252690804,7.650465449923238
7.228675967469838,-5.599074466882415,12.759684907190035,8.137326938653999
7.1726852228010145,-6.113101596045583,12.841058176576576,8.708034369787473
7.111554206840559,-6.6713658411627454,12.92813852027445,9.353040268598756
7.044840548428931,-7.241727165003107,13.021668922960437,10.027963148666691
6.9724232767789,-7.744267472975791,13.121948554447103,10.622171118446454
6.894980602049142,-8.04196933151973,13.228170265631567,10.945451510429292
6.814560908733945,-8.00232195577778,13.33762478073586,10.813303033109484
6.734537689176167,-7.630675614458815,13.445757811066954,10.231846199165279
6.658230933031579,-7.086757319255777,13.548076273058607,9.41981266152581
6.587363359839021,-6.531100435671776,13.642274399673864,8.595497482412899
6.522052355482303,-6.038921205404597,13.728229374497992,7.85904021925428
6.4616631434282565,-5.625753815376303,13.806819776690535,7.22899613836135
6.405405605274494,-5.284573918759901,13.879109738074149,6.693691557040136
6.352559866086895,-5.003418631746102,13.94604665364455,6.235261037762791
6.302525679769434,-4.77113139554359,14.008399264022179,5.837321707214918
6.254814365813998,-4.578641481005669,14.066772481094329,5.48658308251372
6.209027951003941,-4.418887275376523,14.121638311919467,5.172659841709546
6.164839078250176,-4.286428730018406,14.173364910336563,4.8875029372835606
6.1219747909499915,-4.177057376744957,14.222239939709398,4.624857714647421
6.080204217182542,-4.087475569930078,14.268488516855873,4.37983905377923
6.039329461483241,-4.015047041482335,14.312286907393666,4.148622217215997
5.999178991068418,-3.9576042886335663,14.353773129565827,3.928227528696216
5.9596029481820825,-3.9132975256366804,14.39305540485279,3.716376648027566
5.920469972925716,-3.880473175133658,14.430219171333066,3.5114022176546396
5.881665241174379,-3.857573687221266,14.465333193509613,3.3121963721918597
5.843089504302166,-3.8430540066475123,14.49845515723153,3.1181858926525075
5.804658964235691,-3.8353131550993433,14.529637016158055,2.9293226291658914
5.766305832684698,-3.832642151841503,14.558930242449714,2.7460775835456412
5.727979411166283,-3.833191731314513,14.58639101828517,2.5694263499158323
5.689647493853138,-3.834964706249001,14.612085281784328,2.4008132934704545
5.651297846790648,-3.8358378919573406,14.636093414719033,2.242082898864601
5.612939467871074,-3.8336167769275877,14.658514243707678,2.0953700851638253
5.574603300101798,-3.8261223868158427,14.679467944559317,1.9629474819514834
5.53634207623364,-3.8113043917206344,14.699097419378832,1.8470363386435003
5.498229032316434,-3.7873685248986795,14.717567782765267,1.749597392659127
5.4603553470674475,-3.752901483128273,14.735063756691858,1.6721261593703998
5.4228263322361645,-3.7069744255868162,14.751785018285561,1.6154809820845686
5.385756587980296,-3.649208117931512,14.767939828106407,1.5797699011603135
5.349264506800981,-3.579788619816709,14.78373752711801,1.564313881323998
5.3134666206028145,-3.4994308301406485,14.79938066593125,1.5676911401716291
5.278472312301408,-3.409296009517455,14.815057577332967,1.587853603806737
5.244379352206233,-3.310876410016467,14.830936113371035,1.6222953772280873
5.211270588106069,-3.2058639000208986,14.847159067143316,1.6682469971051217
5.179211949105859,-3.0960195953361382,14.863841537114368,1.722868872841389
5.148251753152498,-2.9830585995108754,14.881070225842782,1.7834218353769011
5.118421167157389,-2.868559220218326,14.898904444196551,1.8474001907336466
5.089735574955205,-2.75390080601353,14.917378446103887,1.9126209420336326
5.06219656689507,-2.6402297458957023,14.936504655524224,1.9772700972059782
5.035794269436113,-2.5284498634208994,14.956277356496285,2.0399121388995702
5.010509770801904,-2.4192316237586096,14.976676477885281,2.099471485421309
4.986317454564318,-2.3130340971411907,14.997671192739494,2.155195399404113
4.963187113592906,-2.21013411992291,15.019223146733536,2.20660691321898
4.941085772393677,-2.110658146203199,15.041289215865726,2.2534546171004415
4.919979190931645,-2.0146135258607805,15.06382376203673,2.2956641743726753
4.899833055673038,-1.921917124435375,15.086780403780457,2.333294582489034
4.880613884428684,-1.8324201760666847,15.110113349605347,2.366500698098944
4.862289682668018,-1.7459289838963659,15.133778356586337,2.395502453243763
4.844830392829054,-1.6622215641869995,15.157733381118774,2.42056048030526
4.828208177187184,-1.5810606128819487,15.181938985921827,2.441957462884279
4.812397571058365,-1.5022033078328765,15.206358560550669,2.4599843541880193
4.797375537980036,-1.425408494626833,15.230958404092549,2.474930577098546
4.783121453033768,-1.3504417779562103,15.255707709863534,2.4870773799858803
4.769617035254206,-1.2770789824761566,15.280578483663394,2.4966936257402037
4.756846245429444,-1.2051083763814736,15.305545419920795,2.504033409624563
4.744795161665629,-1.1343319793925457,15.330585754017042,2.509335017149525
4.7334518418717035,-1.064566211016179,15.355679104188537,2.5128208371579253
4.722806179761542,-0.99564207783752,15.380807312560117,2.5146979339122657
4.712849758983166,-0.9274050510070255,15.40595429189924,2.515159054625593
4.703575708473096,-0.859714746582855,15.431105882445497,2.514383906725051
4.694978561007267,-0.7924444909431545,15.456249721512748,2.5125405841292716
4.687054116097836,-0.7254808298492845,15.48137512735404,2.5097870561218807
4.679799307799343,-0.6587230216806758,15.506472997915258,2.506272658091499
4.673212077582536,-0.5920825417528315,15.531535724496173,2.502139542325739
4.667291252165008,-0.5254826145130197,15.55655711991943,2.4975240607476947
4.662036426019878,-0.45885778299476876,15.581532360526907,2.492558061237662
4.65744784818993,-0.3921535195717113,15.606457941139285,2.4873700860019414
4.653526312994213,-0.3253258782899334,15.631331641999305,2.4820864651262493
4.650273054211314,-0.2583411864956116,15.656152506650567,2.4768323015939995
4.647689642346358,-0.19117577182222623,15.680920829666507,2.4717323461243446
4.645777884628136,-0.12381571964090456,15.705638153127751,2.4669117615408225
4.644539727431727,-0.05625665564434597,15.73030727074316,2.46249677727773
4.643977160875284,0.011496451794744733,15.754932238515936,2.4586152352562727
4.6440921253932315,0.07942947457094403,15.779518390868498,2.4553970288493416
4.644886420138941,0.14751929766717237,15.804072361156992,2.4529744370927427
4.646361613115613,0.21573398573360475,15.828602105527919,2.4514823567485995
4.64851895297295,0.2840329465055097,15.853116929095405,2.451058435314329
4.651359282438005,0.35236709326650995,15.877627513448548,2.4518431086090025
4.65488295337067,0.42067900766167227,15.902145944534638,2.453979547154417
4.659089743447287,0.4889031032770902,15.926685740006182,2.4576135161870267
4.663978774480057,0.5569657895690752,15.951261875168052,2.4628931547689996
4.669548432375748,0.6247856349842987,15.975890806715743,2.4699686800895604
4.675796288725591,0.6922735274968558,16.00059049351664,2.478992023639387
4.682719024000559,0.7593328303301006,16.025380413753034,2.4901164064821795
4.69031235230386,0.8258595303564948,16.050281577817856,2.5034958613248497
4.6985709476074256,0.8917423765985877,16.075316536431103,2.519284709493741
4.707488371373412,0.9568630064039658,16.10050938352604,2.537637001258489
4.7170570014374515,1.021096057246234,16.125885753538626,2.5587059282141182
4.727267962009914,1.0843092627171478,16.151472812820767,2.582643216647792
4.738111054637085,1.1463635321217116,16.177299244987246,2.60959851099541
4.749574689958302,1.2071130141647026,16.2033952300972,2.6397187566523006
4.761645820099949,1.2664051465180528,16.229792417663724,2.67314759155708
4.77430987156513,1.324080694577995,16.256523893579296,2.7100247561280484
4.78755067851091,1.3799737844550022,16.283624141140574,2.750485531296913
4.801350416355461,1.4339119371889406,16.311128996453544,2.794660214539484
4.81568953572735,1.4857161133548011,16.33907559859894,2.8426736439106164
4.830546696860899,1.5352007796406537,16.367502335038044,2.8946447800862707
