th1 (rad),w1 (rad/s),th2 (rad),w2 (rad/s)
3.9242219217639307,0.7100060310689336,5.894745057907029,-1.6358201437993414
3.93132198207462,0.8049430649030967,5.878386856469035,-1.5664004529561242
3.9393714127236508,0.8982306277261041,5.862722851939474,-1.4995520628500998
3.9483537190009117,0.99000132880661,5.847727331310973,-1.4354339604159927
3.958253732288978,1.0803930197681162,5.833372991706813,-1.3742026334452377
3.969057662486659,1.1695480629194652,5.819630965372361,-1.316013647415263
3.980753143115854,1.257612773602097,5.806470828898208,-1.2610231555994706
3.993329270851875,1.344737039803949,5.7938605973422135,-1.209389348210933
4.006776641249914,1.4310741223184527,5.781766703860104,-1.1612738500588613
4.021087382473098,1.5167806394034198,5.7701539653595155,-1.1168430797029845
4.036255188867132,1.6020167411699149,5.758985534562486,-1.0762695864848182
4.052275356278831,1.6869464807668435,5.748222838697638,-1.039733385209303
4.0691448210865,1.7717383917967744,5.737825504845545,-1.0074233117582971
4.086862205004468,1.8565662842888782,5.7277512717279615,-0.9795384266463195
4.105427867847356,1.9416102749631132,5.717955887461498,-0.9562894975737123
4.124843970596988,2.027058071449073,5.708392992485761,-0.9379005964654663
4.145114551311479,2.1131065345729336,5.6990139865211065,-0.9246108513389105
4.166245616657208,2.199963547776414,5.689767878007717,-0.9166763985886061
4.188245252134972,2.2878502281142934,5.680601114021831,-0.9143725867713699
4.211123754416115,2.377003518928545,5.671457388154118,-0.9179964883968936
4.2348937896054,2.4676792098814,5.662277423270149,-0.9278697809601296
4.259570581704214,2.560155434908661,5.652998725460548,-0.9443420613801461
4.2851721360533,2.6547367016757835,5.643555304846746,-0.9677946572215488
4.311719503070059,2.7517585052648976,5.633877358274531,-0.9986449903358392
4.339237088122707,2.851592570629711,5.623890908371172,-1.0373515284803287
4.367753013829004,2.954652746969332,5.613517393086369,-1.0844193191270226
4.397299541298698,3.0614015327656303,5.602673199895098,-1.1404060223509238
4.427913556626354,3.172357126420813,5.591269139671589,-1.20592822219371
4.459637127890562,3.2881007470395756,5.579209857449651,-1.2816675585297637
4.492518135360958,3.4092837080159653,5.5663931818643535,-1.3683758192116446
4.526610972441118,3.5366332789361543,5.552709423672237,-1.4668774591554372
4.561977305230479,3.6709556187496597,5.538040649080682,-1.578066897557327
4.598686861417975,3.8131328123407062,5.522259980105109,-1.7028961129683897
4.6368181895413825,3.9641089916533643,5.505231018975425,-1.8423450825912873
4.676459279457916,4.124857219614172,5.486807568149512,-1.9973628636175713
4.717707851654057,4.296313640759335,5.466833939513337,-2.168759729961359
4.7606709880616505,4.479257663310443,5.445146342213723,-2.3570198114907366
4.8054635646947546,4.6741063110095915,5.421576144098816,-2.561988749962996
4.85220462780485,4.880578776202464,5.395956256599186,-2.782374111129715
4.901010415566875,5.097180126763155,5.368132515487889,-3.014987117267955
4.951982216834506,5.320469498588768,5.337982644315209,-3.253679125816951
5.0051869118203935,5.544157820970509,5.30544585305704,-3.4880420555519
5.060628490030099,5.758284354863805,5.270565432501521,-3.7022355266722595
5.118211333578737,5.949079925523673,5.233543077234799,-3.8748165590254313
5.177702132833973,6.100464778622749,5.194794911644545,-3.9809329517795318
5.238706780620201,6.197862785660125,5.154985582126749,-3.9978612415340056
5.300685408476802,6.23346528894726,5.115006969711409,-3.912659379227223
5.363020061366274,6.209940225939208,5.075880375919137,-3.7276413955226193
5.425119463625666,6.139596486426416,5.038603961963911,-3.4593655271731714
5.4865154284899305,6.039414352588693,5.004010306692179,-3.1316473594588405
5.546909572015817,5.9255111784953725,4.9726938330975905,-2.7676438526357465
5.606164683800771,5.809972411109296,4.9450173945712335,-2.3852184254716904
5.6642644079118645,5.700311534169414,4.921165210316516,-1.9960359446110953
5.721267523253559,5.600342819039927,4.901204850870405,-1.606706793357486
5.777270951443958,5.511362544632329,4.88513778293683,-1.2204195613697193
5.832384576890282,5.433125328790057,4.872933587323133,-0.8383208042114731
5.886715830178182,5.364508948529504,4.8645503792810185,-0.4604743733239374
5.940360919663477,5.303921688069048,4.8599456355477795,-0.08646440218601192
5.993400136544167,5.249535462472316,4.85908099152592,0.2842482602048281
6.04589549116889,5.19941259691455,4.861923474127968,0.6521251646149304
6.097889617138036,5.151572146297137,4.8684447257741175,1.0174433580810494
6.1494053386010075,5.1040242436881575,4.878619159354928,1.380244594278043
6.200445581037889,5.0547893770834085,4.8924216052977085,1.7403186273532056
6.250993474808723,5.0019123020824665,4.909824791571241,2.097208259252267
6.301012597829548,4.94347594276355,4.9307968741637636,2.450229431545323
6.350447357257183,4.877617975657572,4.9552991684792165,2.798502735406271
6.399223537013759,4.802551112248284,4.983284195833279,3.140994262575934
6.447249048136242,4.716586972737778,5.014694138459038,3.47656435915905
6.49441491786362,4.618162647355786,5.049459782050629,3.8040229581600613
6.540596544337178,4.505868455930405,5.08750001163223,4.122190000973673
6.585655228896482,4.378474993586767,5.128721911641967,4.429959177203529
6.62943997883235,4.234957279165716,5.173021503414002,4.726362933269542
6.671789551624007,4.074513710010416,5.220285132746698,5.010636509895963
6.712534688724111,3.896577583946605,5.270391497845657,5.282278730451639
6.751500464563577,3.7008191842365648,5.323214285150174,5.54110741897103
6.788508656405942,3.4871368328771197,5.3786253593398845,5.78730769871854
6.823380024734713,3.255635883896738,5.43649843632707,6.021472003214719
6.85593638357368,3.006595318508009,5.496713156359217,6.244631383914354
6.88600233675876,2.7404223767300633,5.55915947019836,6.458278546156639
6.91340656052606,2.4575964811860618,5.623742255659927,6.664383863920593
6.937982525337921,2.1586045805757377,5.690386094299133,6.865406225705851
6.959568571143678,1.843871051889785,5.759040156556192,7.064300657448342
6.978007281662576,1.5136867115988244,5.829683163130675,7.264523777649622
6.993144148778564,1.1681438727331122,5.902328400907171,7.470035429322078
7.004825587505895,0.8070888992608176,5.977028755200392,7.685288757780769
7.012896476498503,0.4301125507525278,6.053881642778199,7.915188639292777
7.0171976020060285,0.03661564353867636,6.133033529171127,8.16497421846208
7.0175637584414154,-0.3739796451494955,6.214683271355748,8.43993545522778
7.01382396198992,-0.8017426788581032,6.299082625908025,8.74478974680134
7.005806535201339,-1.2452407383616806,6.386530523376039,9.08240245788807
6.993354127817722,-1.6996681245684622,6.47735454795492,9.451332902711348
6.976357446572037,-2.1536333092888134,6.571867876982033,9.841536383604208
6.9548211134791496,-2.584455187483948,6.670283240818075,10.227946188914947
6.92897656160431,-2.953485584386424,6.772562702707225,10.563893189073962
6.899441705760446,-3.207049308619118,6.878201634597964,10.781882518910452
6.8673712126742545,-3.292250430219034,6.986020459787069,10.81431765151341
6.834448708372064,-3.1877383504142682,7.094163636302203,10.634364628133646
6.802571324867921,-2.9235169883865626,7.20050728258354,10.281862486083494
6.773336154984055,-2.5630062958410185,7.303325907444375,9.838590563395089
6.747706092025645,-2.166546507067199,7.401711813078325,9.379798493134084
6.726040626954973,-1.7723728306819384,7.495509798009666,8.95025801121655
6.708316898648153,-1.398419772080829,7.5850123781218315,8.568028673735272
6.694332700927345,-1.050497034971592,7.670692664859184,8.235956800075991
6.683827730577629,-0.7286742805366098,7.753052232859944,7.9502216523317415
6.676540987772262,-0.4308025553702648,7.832554449383261,7.704846697662212
6.67223296221856,-0.1541634929915665,7.9096029163598836,7.493687546876957
6.670691327288645,0.10384471834838671,7.984539791828653,7.311172923857381
6.671729774472128,0.34546618456856026,8.057651521067227,7.152499451571908
6.675184436317814,0.5725375469210773,8.129176515582946,7.013610897100476
6.680909811787024,0.7865140253262036,8.19931262455395,6.891106190404243
6.688774952040286,0.9885208077479535,8.268223686457993,6.782135213139908
6.6986601601177655,1.1794088149844593,8.336045038589393,6.684304143148957
6.71045424826761,1.3598068593143724,8.402888080020883,6.595596548857899
6.724052316860754,1.5301677551801949,8.468844045509462,6.5143102683283916
6.739353994412556,1.690808164245585,8.533987148192745,6.439007963457163
6.7562620760550125,1.8419427328408564,8.598377227827317,6.368478744844577
6.774681503383421,1.9837132467579874,8.662062015275763,6.301708399611923
6.794518635851001,2.1162134622289717,8.725079099271882,6.237856096319644
6.815680770473291,2.239510138268363,8.787457660235079,6.1762358179803325
6.838075871855975,2.353660664444645,8.849220018414883,6.116301124966755
6.8616124785004216,2.458727576051157,8.910383029664551,6.05763215776063
6.886199754260933,2.554790182103427,8.970959351242158,5.999924054605152
6.9117476560819675,2.6419534980083452,9.03095859178821,5.942976185326146
6.938167191062051,2.7203546675283126,9.09038835364147,5.886681793994235
6.9653707377373335,2.790167069723086,9.149255171581412,5.831017802600282
6.9932724084345645,2.8516023277449034,9.207565349607416,5.7760346572742876
7.021788431712014,2.904910460332789,9.265325696180158,5.721846199018596
7.050837536315342,2.9503784375912003,9.322544158170343,5.668619613753775
7.080341320691254,2.9883274158032633,9.37923035430788,5.616565563532602
7.110224594849287,3.0191089290447204,9.435396009943206,5.565928624670775
7.140415684139734,3.043100307333066,9.491055296189915,5.516978162635528
7.170846687213065,3.0606995724951807,9.54622507781627,5.469999761755791
7.201453682938017,3.0723200354650655,9.600925075433828,5.42528730436815
7.232176883292667,3.078384784600425,9.65517794847751,5.383135763023774
7.262960731138672,3.0793212163854875,9.709009306107747,5.343834734616875
7.2937539433025265,3.0755557200749353,9.762447653453917,5.307662709925642
7.324509500503276,3.0675085886511173,9.815524280553173,5.274882038532766
7.355184586389787,3.055589191705094,9.8682731009385,5.2457345191198685
7.385740478306838,3.0401914128229133,9.9207304461297,5.220437519729945
7.416142392435067,3.0216893256216326,9.972934821326998,5.199180512229013
7.446359285691283,3.0004330592296506,10.024926626449288,5.182121889948732
7.47636361628358,2.97674478599735,10.076747845348775,5.16938592723227
7.5061310641435535,2.9509147517166032,10.128441704621098,5.16105973420594
7.535640211660719,2.923197261839095,10.180052301963157,5.1571900596106435
7.5648721842791105,2.8938065365399264,10.231624202559264,5.157779799361198
7.59381024964451,2.8629123537496577,10.283202000552876,5.162784079595215
7.622439373182006,2.8306354137208336,10.334829841348828,5.1721058019370725
7.650745727319214,2.797042383111566,10.3865508993682,5.1855905679426035
7.67871615115033,2.7621406133641373,10.438406805047626,5.203020942475777
7.706337557283971,2.7258725802781525,10.490437014472382,5.224110076207394
7.733596283086753,2.6881101624093557,10.542678115234457,5.248494790271608
7.760477384710846,2.6486489684496726,10.595163063137173,5.275728336309001
7.786963874395343,2.607203040369746,10.647920346500262,5.305273186924685
7.81303590479904,2.5634004000445474,10.70097307836951,5.336494387146076
7.838669908799486,2.516780068693181,10.75433802224097,5.368654204681792
7.863837709486417,2.4667913609532133,10.808024564287788,5.400909046429759
7.888505623095949,2.4127964201933056,10.862033654752086,5.432309840914698
7.912633587297883,2.3540770889002878,10.916356753161233,5.461807287190848
7.936174358186886,2.289847255245447,10.970974826033142,5.488263489767287
7.95907283073934,2.2192717306430927,11.025857460930816,5.510471469956685
7.981265548045771,2.141492434472045,11.080962175630383,5.52718379053235
8.002680472390491,2.055662139515561,11.136234013535706,5.537150980601144
8.023237093785646,1.9609852399101586,11.191605523341718,5.539169556066724
8.042846946184747,1.856763967757023,11.246997218902385,5.532138209790494
8.061414585862318,1.742447303240046,11.30231860100029,5.5151192931426705
8.078839058894719,1.6176786776327636,11.357469793931715,5.487401229665971
8.095015845671046,1.4823377098397195,11.412343806228375,5.44855628785659
8.109839222769443,1.336570918600851,11.466829369106941,5.398487532118458
8.123204931955451,1.1808068337686541,11.520814244428125,5.337459061077802
8.135013000293137,1.0157522700004704,11.574188835038903,5.26610497063714
8.145170522993142,0.8423685993768594,11.626849884745274,5.185414748924558
8.153594208986911,0.6618293305874028,11.67870403223452,5.0966956693234335
8.160212502292785,0.4754626954500799,11.729670988927754,5.001515656836382
8.164967129247286,0.2846847705844956,11.779686145496118,4.90163247985807
8.16781397695313,0.09092956528658469,11.828702470294699,4.798916506793339
8.168723272605996,-0.10441764089992614,11.876691635362633,4.695274459937424
8.167679096196997,-0.30007850130747094,11.923644379962006,4.592580683648648
8.164678311183922,-0.494927821912345,11.969570186798492,4.492620739993225
8.159729032964798,-0.6880261767748121,12.014496394198424,4.397050086869131
8.15284877119705,-0.878639058657798,12.058466895067117,4.307368599635751
8.144062380610471,-1.0662440742365173,12.101540581063475,4.22491007527714
8.133399939868106,-1.2505285640931663,12.143789681816246,4.15084476553836
8.120894654227174,-1.43138041341145,12.18529812947163,4.0861924404258465
8.106580850093058,-1.6088748150868566,12.226160053875887,4.031843406519519
8.09049210194219,-1.783259483067201,12.266478487941082,3.988585168664964
8.072659507111517,-1.9549404187576582,12.306364339627732,3.957132896146148
8.05311010292394,-2.124469912390617,12.345935668589194,3.938162423939614
8.031865403800033,-2.2925380878447505,12.38531729282859,3.9323451075339624
8.008940022921585,-2.4599690166447603,12.42464074390393,3.940384410629906
7.984340332755138,-2.627722253527135,12.46404458801023,3.9630546200210466
7.958063110219866,-2.7969005827431386,12.503675134210441,4.001242548928369
7.930094104392435,-2.968764797486376,12.543687559699725,4.055993511057244
7.900406456417571,-3.1447564339904504,12.584247494810297,4.128563212157023
7.868958892077666,-3.326529486580686,12.625533126931867,4.220477463542027
7.8356935972118595,-3.5159921167060544,12.667737901567287,4.333601630846742
7.800533676044799,-3.71535897693929,12.711073917875755,4.470221151521862
7.763380086275406,-3.9272134436049195,12.755776129390973,4.63313252615547
7.724107951839357,-4.15457560024407,12.802107454652528,4.82573925975086
7.682562195836916,-4.400963706940454,12.850364847250036,5.052135760162859
7.638552558767512,-4.6704187766648415,12.900886204851664,5.317136692810583
7.5918483710008635,-4.9674226420291845,12.95405757177977,5.626154143370304
7.542174144580572,-5.296557347564999,13.010319113213473,5.984708986698604
7.489208571104922,-5.6615876835552745,13.07016620308046,6.397129609261577
7.43259269426937,-6.063344538517535,13.134137499173075,6.863563501260614
7.3719592488841945,-6.495349869250575,13.202773134185682,7.373811927104414
7.3070057501916885,-6.935975474746268,13.276511253456725,7.896284830337258
7.237645995444226,-7.337927231584012,13.355474101760098,8.363174771676096
7.164266723128386,-7.62405861629063,13.43910584947686,8.664482136181407
7.08802613696548,-7.711294907091257,13.525750670838674,8.681489852746864
7.010913187894568,-7.570160726499334,13.612565569366142,8.370261746429453
6.935211580629574,-7.2605499651679555,13.696268186830437,7.811962362055981
6.862606080977895,-6.884405644941182,13.774387810450998,7.146893459669215
6.793762024528483,-6.518401281197477,13.84585674504769,6.480540308997604
6.728578011716508,-6.197512609961913,13.910662148137666,5.8606044029598126
6.666602885616889,-5.930270526147836,13.969268192167265,5.298150617342059
6.607300180355411,-5.713929722875066,14.022249698340685,4.788632907013922
6.550160883126661,-5.542359043301789,14.070136027410824,4.322824075680439
6.494737292693642,-5.409190225425763,14.113364268167627,3.891185596101029
6.440645390439385,-5.308822571357836,14.152276124128639,3.4852817492290566
6.3875571647258065,-5.236600772184282,14.187128941620928,3.098061524458005
6.335191157003964,-5.188714073017109,14.218109556865508,2.723765517937265
6.283304016273792,-5.1620243894869455,14.245347212044882,2.35774375352224
6.231683772378923,-5.1538954073263055,14.268924649580104,1.9962826863912815
6.18014481830566,-5.162043807475406,14.288887476444016,1.6364687194163332
6.128524380230906,-5.184416001294225,14.30525216363818,1.2760900301023237
6.0766802202179635,-5.219088561054605,14.318013063939203,0.91357002966389
6.024489334607417,-5.2641898678657615,14.327148764235842,0.547923445208086
5.97184743592876,-5.317841252492123,14.332627998687922,0.17872577716181187
5.918669023403839,-5.378116840281676,14.33441525645954,-0.1939126318092284
5.864887855001022,-5.443021919840796,14.332476130141448,-0.5693757975560791
5.8104576358026145,-5.510489721136842,14.326782372165887,-0.9465811157470576
5.755352738591246,-5.578395954077323,14.317316561008417,-1.3240328589742634
5.699568779050473,-5.644589394101087,14.304076232418675,-1.6998923204676673
5.643122885109462,-5.706935405952073,14.287077309213998,-2.0720638593264407
5.5860535310499415,-5.763367879288647,14.266356670620734,-2.438293110870777
5.528419852257055,-5.811943972027799,14.241973739512026,-2.796271055096548
5.470300412536777,-5.850895643973787,14.21401102896106,-3.1437359965385556
5.411791456097039,-5.878672403674113,14.182573668995675,-3.478565168332617
5.353004732060298,-5.893970972468602,14.14778801731235,-3.798848729702956
5.294065022335612,-5.895749470715462,14.10979953001532,-4.102941160633911
5.2351075276284575,-5.883225887237472,14.068770118408981,-4.3894879929877275
5.176275268756083,-5.855862602380653,14.024875238479105,-4.657428858569509
5.117716642732276,-5.813340268656225,13.97830094989341,-4.905980433435799
5.059583240045714,-5.755525226473004,13.92924114555905,-5.134604641452542
5.002027987780984,-5.682434822623482,13.877895099144524,-5.342968305606543
4.945203639554749,-5.594204610521708,13.82446541608846,-5.530900367003743
4.889261593449532,-5.491060617425817,13.769156412418422,-5.698352028584613
4.834350987275274,-5.3732988495770675,13.712172892132577,-5.845363974332224
4.780617998779503,-5.24127312663698,13.653719252389255,-5.972043399792371
4.728205267513133,-5.0953913017756145,13.59399881839133,-6.07855214745751
4.677251354495377,-4.936119001107179,13.533213296916756,-6.165105891989522
4.627890164484305,-4.763989246383034,13.47156223799686,-6.231983138952892
4.580250272020475,-4.579615737411148,13.409242406607332,-6.2795418336801445
4.534454114646364,-4.383707195163386,13.34644698827053,-6.308240662685063
4.49061704269473,-4.1770800349600545,13.28336458164368,-6.318661707860713
4.448846242345129,-3.9606667790983012,13.220177964565073,-6.311531020822732
4.409239574554146,-3.7355180399229333,13.157062654356846,-6.287733944406767
4.371884394154916,-3.5027965859041585,13.094185314912778,-6.248322613100067
4.336856428295874,-3.26376288186536,13.031702088781778,-6.194513962192751
4.304218799477221,-3.019752466804042,12.96975694915985,-6.127677666070524
4.27402127480918,-2.7721464684383847,12.908480172499145,-6.049314569598959
4.246299810124796,-2.522337319082045,12.847987026803155,-5.961027216951744
4.221076436933976,-2.2716922237771473,12.788376754633637,-5.864484877741505
4.198359514696205,-2.021517078308565,12.729731905856221,-5.761385922670337
4.178144343913119,-1.77302334183714,12.672118046629517,-5.653420474469023
4.160414110494748,-1.527299893974226,12.615583841884828,-5.542235984950377
4.145141111555006,-1.285291247607873,12.560161482035324,-5.429407849433668
4.1322881990789275,-1.0477827616702153,12.505867403540988,-5.316416479783972
4.121810371462225,-0.8153928093206808,12.452703238743148,-5.204631534911164
4.113656443369019,-0.5885712873854552,12.400656923394036,-5.095303352420865
