th1 (rad),w1 (rad/s),th2 (rad),w2 (rad/s),a1 (rad/s^2),a2 (rad/s^2)
6.078061587589399,1.040683719846811,2.1788787773180767,0.17812112494748364,-1.6098235142247104,-9.957051970794012
6.088468424787868,1.024585484704564,2.1806599885675517,0.07855060523954352,-1.6991688910156864,-9.985563291989154
6.098714279634914,1.007593795794407,2.1814454946199473,-0.021305027680348018,-1.7743438484420302,-10.006566895139478
6.1087902175928575,0.9898503573099867,2.1812324443431437,-0.12137069663174281,-1.83500951122939,-10.020131762925628
6.118688721165958,0.9715002621976928,2.1800187373768263,-0.2215720142609991,-1.8808536272658471,-10.026379848963348
6.128403723787935,0.9526917259250344,2.177803017234216,-0.32183581275063256,-1.9115951672173772,-10.025491466772113
6.137930641047185,0.9335757742528606,2.17458465910671,-0.4220907274183537,-1.9269884054551503,-10.017710101792568
6.147266398789713,0.9143058901983091,2.1703637518325265,-0.5222678284362794,-1.926826330009199,-10.003346529671955
6.156409457691696,0.8950376268982171,2.1651410735481638,-0.6223012937329989,-1.9109432502215298,-9.98278216584759
6.165359833960678,0.8759281943960018,2.1589180606108336,-0.7221291153914748,-1.879216494100503,-9.956471615242805
6.174119115904638,0.8571360294549968,2.151696769456919,-0.8216938315439029,-1.8315671119185306,-9.924944435047092
6.182690476199188,0.8388203583358115,2.1434798311414798,-0.9209432758943737,-1.7679595271394204,-9.888806166538778
6.191078679782546,0.8211407630644173,2.134270398382536,-1.0198313375597616,-1.6884000991116128,-9.848738732335562
6.19929008741319,0.8042567620733012,2.124072085006939,-1.1183187248831172,-1.5929345829887722,-9.80550033217846
6.207332655033923,0.7883274162434135,2.1128888977581077,-1.2163737282049019,-1.4816444900334815,-9.75992500254269
6.215215929196357,0.7735109713430787,2.100725160476059,-1.3139729782303289,-1.3546423649837718,-9.712922032576838
6.2229510389097875,0.759964547693241,2.0875854306937556,-1.4111021985560972,-1.2120660058755481,-9.665475451061855
6.23055068438672,0.7478438876344855,2.0734744087081944,-1.5077569530667159,-1.0540716551870426,-9.618643816633963
6.238029123263065,0.7373031710826151,2.058396839177527,-1.6039433912330554,-0.8808261891825719,-9.57356055720712
6.245402154973891,0.7284949091907894,2.0423574052651965,-1.6996789968051267,-0.6924983248473772,-9.531435115491854
6.2526871040657985,0.7215699259423156,2.0253606152971453,-1.7949933479600453,-0.4892488509446234,-9.493555167160189
6.259902803325222,0.7166774374328694,2.007410681817545,-1.8899288996316472,-0.2712198717288757,-9.461290188189095
6.267069577699551,0.7139652387155806,1.9885113928212284,-1.984541801513538,-0.0385230290388401,-9.436096659993975
6.274209230086706,0.7135800084251922,1.968665974806093,-2.078902768113478,0.20877335875616365,-9.41952521693732
6.281345030170958,0.7156677420127538,1.9478769471249582,-2.1730980202828514,0.4706583337319343,-9.413230062386528
6.288501707591085,0.7203743253500732,1.9261459669221297,-2.267230320906717,0.747193638803852,-9.418981008203021
6.295705450844586,0.7278462617381117,1.9034736637130625,-2.3614201309887473,1.0385305264950753,-9.438678529473405
6.302983913461968,0.7382315670030625,1.879859462403175,-2.4558069162834815,1.3449282400886358,-9.474372271857737
6.310366229131998,0.7516808494039489,1.8553013932403402,-2.5505506390020587,1.6667744099174222,-9.52828350241036
6.3178830376260375,0.7683485935031231,1.8297958868503195,-2.6458334740261624,2.004607642692186,-9.602832053532966
6.3255665235610685,0.788394669930045,1.8033375521100579,-2.7418617945614923,2.3591426076578417,-9.700668368164099
6.333450470260369,0.8119860960066234,1.775918934164443,-2.8388684782431333,2.7312979303441387,-9.824711301592432
6.341570331220436,0.8392990753100648,1.7475302493820117,-2.9371155912590576,3.1222271764448566,-9.978192352127193
6.3499633219735365,0.8705213470745133,1.718159093469421,-3.0368975147803297,3.533353117696172,-10.164706945956368
6.358668535444282,0.905854878251475,1.6877901183216177,-3.1385445842398934,3.9664052733766484,-10.38827323431507
6.367727084226797,0.9455189309852415,1.6564046724792187,-3.242427316583044,4.423460340671701,-10.65339847850771
6.377182273536649,0.9897535343919586,1.6239803993133883,-3.348961301368121,4.9069844418597,-10.965152341471546
6.387079808880569,1.0388233788105556,1.590490786299707,-3.4586128247828367,5.419874924039146,-11.329245008571124
6.397468042668674,1.0930221280509471,1.5559046580518787,-3.571905274868548,5.965497415310437,-11.752105584242113
6.408398263949183,1.1526771022040514,1.5201856053031932,-3.6894263307109694,6.547710421956723,-12.240951921258079
6.419925034971224,1.2181542064236186,1.4832913419960836,-3.81183584992355,7.170864040891312,-12.803835715457105
6.43210657703546,1.2898628468325317,1.445172983496848,-3.939874207078121,7.839749872172787,-13.449634313810106
6.445005205503786,1.3682603455542597,1.4057742414260668,-4.074370550216222,8.559463502897524,-14.187939882730044
6.458687808959328,1.4538549805832348,1.3650305359239046,-4.216249949043522,9.335115008581974,-15.028761854270291
6.47322635876516,1.5472061306690545,1.3228680364334693,-4.366537567586225,10.171280370377028,-15.981900982975777
6.4886984200718505,1.6489189343728248,1.279202660757607,-4.526356577415983,11.071017509360718,-17.055758829868036
6.505187609415579,1.759629109466432,1.2339390949834472,-4.696914165714664,12.034159917636673,-18.255193948230772
6.522783900510243,1.8799707086427988,1.1869699533263005,-4.879466105196972,13.054428858641389,-19.577797003186273
6.541583607596671,2.0105149972292127,1.138175292274331,-5.075244075228834,14.114652301449647,-21.007602213797426
6.561688757568963,2.1516615202437093,1.0874228515220425,-5.285320097366808,15.179047203294644,-22.50478038935383
6.583205372771401,2.303451992276656,1.0345696505483744,-5.510367901260347,16.18119969958316,-23.98938414608236
6.606239892694167,2.4652639892724872,0.9794659715357709,-5.750261742721171,17.006404481487994,-25.31719724096385
6.630892532586892,2.635328034087367,0.9219633541085591,-6.003433715130809,17.468341941427983,-26.247469164622256
6.657245812927766,2.8100114535016467,0.861929016957251,-6.265908406777031,17.284763250918207,-26.40867680983862
6.685345927462782,2.9828590860108286,0.7992699328894807,-6.529995174875418,16.06824413873275,-25.28408767147335
6.715174518322891,3.143541527398156,0.7339699811407265,-6.782836051590151,13.36769052194761,-22.266036116602105
6.746609933596872,3.2772184326176323,0.666141620624825,-7.005496412756172,8.812095314932707,-16.849962992008923
6.779382117923048,3.3653393857669593,0.5960866564972632,-7.1739960426762615,2.3756951481753332,-8.995077324961438
6.8130355117807175,3.389096337248713,0.5243466960705006,-7.263946815925876,-5.3530887033539525,0.5098742048753209
6.846926475153205,3.3355654502151735,0.4517072279112418,-7.258848073877123,-13.184514503274231,10.068019697263539
6.880282129655356,3.203720305182431,0.37911874717247057,-7.158167876904487,-19.800707361710398,17.924771607825555
6.91231933270718,3.005713231565327,0.3075370684034257,-6.978920160826232,-24.386672284782886,23.02541738721169
6.942376465022833,2.761846508717498,0.23774786679516338,-6.748665986954115,-26.87899227641941,25.33938741291604
6.969994930110008,2.493056585953304,0.17026120692562224,-6.495272112824955,-27.726301288879384,25.51795312416458
6.994925495969541,2.21579357306451,0.1053084857973727,-6.240092581583308,-27.510960977450893,24.373534399301388
7.017083431700186,1.9406839632900013,0.04290755998153962,-5.996357237590295,-26.71700425824922,22.568398972281
7.036490271333086,1.6735139207075092,-0.01705601239436333,-5.770673247867485,-25.668942217409548,20.539052811159404
7.053225410540161,1.4168244985334137,-0.07476274487303819,-5.565282719755891,-24.55629722848036,18.5356043122374
7.067393655525495,1.1712615262486101,-0.13041557207059712,-5.379926676633517,-23.477479630454393,16.684760507577952
7.079106270787982,0.9364867299440662,-0.1842148388369323,-5.213079071557738,-22.476266502456074,15.040783002846204
7.088471138087423,0.7117240649195055,-0.23634562955250968,-5.062671241529276,-21.566106860628363,13.61879611681054
7.095588378736617,0.4960629963132218,-0.2869723419678024,-4.92648328036117,-20.744712972126795,12.414390875929971
7.100549008699749,0.2886158665919539,-0.3362371747714141,-4.80233937160187,-20.002318801218895,11.414440753310153
7.103435167365669,0.08859267857976491,-0.38426056848743284,-4.688194964068768,-19.3261707621035,10.602762242273219
7.104321094151467,-0.1046690290412701,-0.43114251812812054,-4.582167341646036,-18.702884878908833,9.962898641403896
7.103274403861054,-0.2916978778303584,-0.4769641915445809,-4.482538355231997,-18.119633115867497,9.479352769717414
7.10035742508275,-0.47289420898903334,-0.5217895750969008,-4.3877448275348225,-17.564703462543548,9.138010336112364
7.0956284829928595,-0.6485412436144689,-0.5656670233722491,-4.296364724173699,-17.027734286385456,8.926159510942208
7.089143070556715,-0.8188185864783234,-0.608630670613986,-4.2071031290642775,-16.499785519961687,8.832324881961547
7.0809548846919315,-0.9838164416779402,-0.6507017019046288,-4.118779880244662,-15.973332595116942,8.846031415264362
7.071116720275152,-1.1435497676291098,-0.6918895007070754,-4.030319566092018,-15.44222688594907,8.957558530413948
7.059681222598861,-1.2979720364886005,-0.7321926963679957,-3.940743980787879,-14.901643485131094,9.157714598398929
7.046701502233976,-1.4469884713399115,-0.7716001361758744,-3.8491668348038894,-14.3480248688612,9.437646270928367
7.032231617520576,-1.5904687200285235,-0.8100918045239133,-3.7547903720946056,-13.779022672416279,9.788688585598774
7.016326930320291,-1.7282589467526863,-0.8476397082448593,-3.656903486238618,-13.193436782754407,10.202257253096231
6.999044340852764,-1.8601933145802305,-0.8842087431072455,-3.5548809137076556,-12.591149799722825,10.669782031962447
6.980442407706962,-1.9861048125774587,-0.9197575522443221,-3.4481830933880313,-11.973054800832228,11.18267863558769
6.960581359581187,-2.105835360585781,-0.9542393831782024,-3.3363563070321542,-11.340974791029641,11.732355683803878
6.93952300597533,-2.2192451084960774,-0.987602946248524,-3.2190327501941156,-10.697572944639196,12.310252560140233
6.917330554890369,-2.3262208379424694,-1.0197932737504651,-3.0959302245927134,-10.046253576056404,12.907903556822534
6.894068346510944,-2.4266833737030336,-1.0507525759963923,-2.966851189024488,-9.391054597629223,13.517023343300947
6.869801512773914,-2.520593919679326,-1.0804210878866372,-2.831680955591479,-8.736532967399837,14.129608571154913
6.844595573577121,-2.6079592493533243,-1.108737897442552,-2.6903848698799298,-8.08764525438701,14.738050329410395
6.818515981083587,-2.6888357018971942,-1.1356417461413513,-2.543004366585826,-7.449625933521976,15.335252191380006
6.791627624064615,-2.763331961232414,-1.1610717898072096,-2.389651844672026,-6.827866358922085,15.91474874726775
6.763994304452291,-2.831610624821635,-1.18496830825393,-2.230504357199348,-6.227797554279645,16.47081979514384
6.7356781982040745,-2.893888600364431,-1.2072733518259235,-2.0657961592479097,-5.654780008283874,16.99859576601247
6.706739312200431,-2.95043640044727,-1.2279313134184027,-1.895810201587785,-5.114003577585938,17.49415048678317
6.677234948195958,-3.001576436223129,-1.2468894154342804,-1.7208686967199531,-4.610400385548305,17.954578037356335
6.647219183833727,-3.0476804400786124,-1.26409810240148,-1.5413229163463897,-4.148573266998725,18.3780512296597
6.6167423794329405,-3.0891661727485995,-1.2795113315649438,-1.3575424040497928,-3.732741853429522,18.763860112941302
6.585850717705455,-3.1264935912828946,-1.2930867556054417,-1.1699038029203797,-3.3667078283302203,19.112429862198795
6.554585781792626,-3.160160669566197,-1.3047857936346454,-0.9787795042983917,-3.0538402214076057,19.425318388173537
6.522984175096964,-3.1906990717802732,-1.3145735886776293,-0.7845263204166563,-2.7970808694124525,19.705194950040564
6.491077184379161,-3.2186698804743976,-1.3224188518817959,-0.5874743709162507,-2.598969365857059,19.955801866653168
6.4588904855744165,-3.2446595741329682,-1.3282935955909583,-0.387916352249719,-2.461685959958688,20.181901998311734
6.426443889833087,-3.2692764337325553,-1.3321727591134556,-0.18609733226660163,-2.387109934939422,20.389214874088562
6.393751125495761,-3.2931475330819495,-1.3340337324361216,0.017794816474283992,-2.37688994897326,20.584344003328802
6.360819650164942,-3.316916432571682,-1.3338557842713787,0.22363825650757202,-2.4325215498106423,20.774696816276748
6.327650485839225,-3.3412416480697886,-1.331619401706303,0.4313852246703395,-2.5554253735770267,20.968396521115423
6.294238069358527,-3.366795901805559,-1.3273055494595996,0.6410691898814938,-2.7470170632059445,21.174181481922563
6.260570110340471,-3.394266072437618,-1.3208948575607846,0.8528110047007194,-3.0087561282848867,21.401281791619567
6.226627449616095,-3.424353633720467,-1.3123667475137775,1.066823822616915,-3.342154919323069,21.659253384055567
6.19238391327889,-3.457775182913698,-1.3016985092876083,1.2834163564574708,-3.7487192026012535,21.95773546366368
6.157806161449753,-3.4952623749397103,-1.2888643457230335,1.5029937110941076,-4.22977633064989,22.30607433740775
6.122853537700356,-3.537560138246209,-1.2738344086120925,1.726054454468185,-4.786122427853638,22.712721460800722
6.087477936317894,-3.5854213625247455,-1.2565738640674107,1.9531816690761923,-5.417381552459137,23.184259070354088
6.051623722692646,-3.639595178049337,-1.2370420473766488,2.185024259779733,-6.1209108901518965,23.72382408398966
6.015227770912153,-3.7008042869508557,-1.2151918047788515,2.4222625006196297,-6.88999892175457,24.328579208300383
5.978219728042644,-3.7697042761684014,-1.1909691797726552,2.6655482927026335,-7.710982442995101,24.98571133108043
5.9405226852809605,-3.8468141005983525,-1.164313696845629,2.915405406013438,-8.558759828069018,25.666230262559548
5.902054544274977,-3.9324016988790427,-1.1351596427854946,3.1720677086390334,-9.39004788721284,26.315659475667488
5.862730527286186,-4.026302177751171,-1.1034389656991044,3.4352243033957084,-10.133765552238492,26.84076026258155
5.8224675055086745,-4.127639833273556,-1.0690867226651473,3.703631906021524,-10.678500823004864,27.09223014570482
5.781191107175939,-4.234424841503605,-1.032050403604932,3.9745542074785725,-10.858902117975441,26.845947266106418
5.738846858760903,-4.343013862683359,-0.9923048615301463,4.2430136801396365,-10.447270062586858,25.79152622960894
5.6954167201340695,-4.447486563309228,-0.9498747247287499,4.500928942435726,-9.164552939708543,23.548021382025592
5.650941854500977,-4.539132092706313,-0.9048654353043927,4.736409156255982,-6.733838135419277,19.739003720367524
5.605550533573914,-4.606470474060506,-0.8575013437418328,4.933799193459657,-2.9968415126438983,14.155497997106007
5.559485828833309,-4.6364388891869455,-0.8081633518072363,5.075354173430717,1.924140257665488,6.981836241156486
5.51312143994144,-4.617197486610291,-0.7574098100729292,5.145172535842281,7.516192788687701,-1.052341111138723
5.466949465075337,-4.542035558723414,-0.7059580847145064,5.134649124730894,12.9619522359383,-8.795767515150803
5.421529109488103,-4.41241603636403,-0.6546115934671974,5.046691449579385,17.45059522679737,-15.113455546394668
5.377404949124462,-4.237910084096057,-0.6041446789714036,4.895556894115439,20.51208157713963,-19.354592193447647
5.335025848283501,-4.0327892683246604,-0.5551891100302492,4.702010972180962,22.125027258506144,-21.500748254369345
5.294697955600254,-3.811538995739599,-0.5081690003084396,4.487003489637268,22.576731490564192,-21.966408678244356
5.256582565642859,-3.585771680833957,-0.4632989654120669,4.267339402854825,22.250275017466397,-21.2986892051459
5.220724848834519,-3.363268930659293,-0.42062557138351864,4.054352510803366,21.482140408292974,-19.977374674054744
5.187092159527926,-3.148447526576363,-0.380082046275485,3.854578764062818,20.51314426992062,-18.346481197450885
5.155607684262162,-2.9433160838771566,-0.3415362586348568,3.671113952088309,19.49436986228216,-16.623051217474192
5.126174523423391,-2.748372385254335,-0.3048251191139737,3.5048834399135673,18.51107348906789,-14.9310500957991
5.098690799570847,-2.563261650363656,-0.269776284714838,3.3555729389555764,17.605985924457848,-13.334293670712789
5.073058183067211,-2.3872017911190775,-0.23622055532528224,3.2222300022484487,16.796498142535125,-11.860713728993328
5.04918616515602,-2.2192368096937263,-0.20399825530279775,3.1036228649585156,16.085839075650085,-10.518145307651249
5.026993797059083,-2.0583784189372256,-0.17296202665321259,2.998441411882003,15.46984862076123,-9.303905002148761
5.00641001286971,-1.9036799327296132,-0.14297761253439256,2.9054023618605154,14.940891223619484,-8.210339089011802
4.987373213542415,-1.7542710204934184,-0.11392358891578741,2.8232989709703973,14.490027924853532,-7.227915506937647
4.96983050333748,-1.609370741244883,-0.08569059920608343,2.751019815901021,14.10816778915447,-6.346874250844245
4.953736795925031,-1.4682890633533383,-0.05818040104707323,2.6875510733925783,13.786637538972773,-5.558053673280457
4.939053905291497,-1.3304226879636105,-0.03130489031314744,2.631970536659774,13.51742795324778,-4.853256608060899
4.9257496784118615,-1.1952484084311328,-0.0049851849465497,2.583437970579165,13.293266285930391,-4.225366479045053
4.91379719432755,-1.0623157455718288,0.020849194759241952,2.5411843057887147,13.107599531561005,-3.668332903884519
4.903174036871832,-0.9312397502562187,0.0462610378171291,2.5045009767498696,12.95453601120971,-3.177093707807691
4.89386163936927,-0.8016943901441216,0.0713060475846278,2.472730039671793,12.828771328842715,-2.7474700676148456
4.885844695467829,-0.6734066768556944,0.09603334798134573,2.4452553389956444,12.72551257210396,-2.376054323484954
4.879110628699272,-0.5461515511346549,0.12048590137130218,2.421494795760795,12.64040778045903,-2.060100318478341
4.873649113187925,-0.41974747333006457,0.14470084932891014,2.400893792576012,12.569483901613008,-1.7974207570091705
4.869451638454625,-0.29405263431393447,0.16870978725467026,2.3829195850059204,12.509094390580193,-1.5862931694922051
4.8665111121114855,-0.16896169040813253,0.19253898310472947,2.3670566533109985,12.455876518838265,-1.425374568678975
4.864821495207404,-0.04440292521974988,0.21620954963783945,2.3528029076242087,12.406717919531761,-1.3136241729741247
4.864377465955206,0.07966425397556774,0.23973757871408152,2.3396666658944674,12.358731650186312,-1.2502333022813632
4.865174108494962,0.20325157047743087,0.2631342453730262,2.3271643328716536,12.309238965480485,-1.2345615214006496
4.867206624199737,0.3263439601322357,0.2864058887017428,2.314818717657647,12.255758979854058,-1.2660781996504356
4.870470063801059,0.4489015499307763,0.30955407587831923,2.3021579356611426,12.196004419494997,-1.3443088078330434
4.874959079300367,0.5708615941257262,0.33257565523493066,2.288714847582812,12.12788269262446,-1.4687854480647637
4.880667695241624,0.6921404210519708,0.3554628037107588,2.2740269931021646,12.049501534947822,-1.6390012879482885
4.887589099452144,0.8126354364014491,0.3782030736417804,2.257636980222682,11.95917850931345,-1.854368737138383
4.895715453816158,0.9322272214945836,0.40077944344400723,2.239093292851298,11.855453654293152,-2.1141813561349667
4.905037726031104,1.0507817580375152,0.4231703763725202,2.2179514792899484,11.73710458662438,-2.4175796220151016
4.915545543611479,1.168152803903759,0.4453498911654197,2.193775683069797,11.603163368976753,-2.763520793683379
4.927227071650517,1.2841844375935265,0.46728764799611766,2.1661404751329636,11.45293445913499,-3.150753221192448
4.940068916026452,1.3987137821848765,0.4889490527474473,2.1346329429210393,11.286013061016403,-3.5777955315237566
4.9540560538483005,1.5115739127950405,0.5102953821766577,2.098854987605802,11.102303203297922,-4.04292119879375
4.969171792976251,1.6225969448280197,0.5312839320527157,2.0584257756178643,10.902034879062782,-4.5441490716042106
