th1 (rad),w1 (rad/s),th2 (rad),w2 (rad/s)
3.4818219784302884,1.6434385897731156,2.5017751156996653,-0.19829699511971877
3.4982563643280193,1.6938447836133763,2.499792145748468,-0.2624517008090131
3.515194812164153,1.7445662778596684,2.497167628740378,-0.3244698513607545
3.53264047494275,1.7955711678180328,2.4939229302267707,-0.38421964317062096
3.55059618662093,1.8468362805590637,2.4900807337950646,-0.4415704544320201
3.5690645494265207,1.8983480080306923,2.4856650292507445,-0.49639315926606326
3.5880480295068278,1.9501030918462434,2.4807010976580837,-0.5485602639347396
3.60754906042529,2.0021093469247164,2.475215495018736,-0.5979458383708592
3.6275701538945375,2.054386315710683,2.4692360366350274,-0.6444252221020179
3.648114017051644,2.106965849627908,2.4627917844140073,-0.6878744900078781
3.6691836755479232,2.15989261937399,2.4559130395139284,-0.7281696697761778
3.690782601741663,2.2132245603073892,2.448631342816167,-0.7651857089976253
3.712914847344737,2.267033263216989,2.4409794857261904,-0.7987951952270639
3.735585179976907,2.321404323958511,2.4329915337739196,-0.8288668368112813
3.758799223216492,2.376437667616843,2.424702865405807,-0.8552637157435041
3.7825635998926606,2.4322478638963654,2.416150228248372,-0.8778413262856459
3.8068860785316243,2.4889644502921757,2.4073718149855154,-0.8964454147665681
3.831775723034546,2.54673227822767,2.3984073608378496,-0.9109096371024255
3.8572430458168228,2.6057118947450673,2.3892982644668255,-0.9210530515843762
3.8833001647642735,2.666079968481456,2.380087733950982,-0.9266774658239644
3.909960964449088,2.728029763496864,2.3708209592927423,-0.9275646590062029
3.937241262084057,2.791771657931965,2.36154531270268,-0.9234735044242114
3.9651589786633767,2.857533696280225,2.352310577658438,-0.9141370233886218
3.993734315626179,2.9255621540001218,2.343169207424552,-0.8992594108388209
4.02298993716618,2.9961220809195788,2.3341766133161634,-0.8785130862440969
4.052951157975376,3.0694977749700536,2.3253914824537225,-0.851535841678289
4.083646135725076,3.145993119745915,2.3168761240369395,-0.8179281833712295
4.115106066922536,3.225931697712111,2.3086968422032275,-0.7772509947176446
4.147365383899657,3.309656565128283,2.300924332256051,-0.7290236887557187
4.180461949550939,3.3975295446334113,2.2936340953684935,-0.6727230674268698
4.214437244997273,3.4899298569877657,2.2869068646942248,-0.6077831639875806
4.249336543567151,3.5872518753193052,2.280829033054349,-0.5335964134697725
4.285209062320344,3.6899017448964,2.275493068919651,-0.4495165724752115
4.322108079769308,3.7982925718074836,2.270997903194899,-0.3548638902205094
4.360091005487383,3.9128378496762295,2.2674492642926936,-0.24893311108629612
4.399219383984145,4.033942771780866,2.2649599331818306,-0.13100495447981725
4.439558811701954,4.1619930766640465,2.2636498836370325,-0.00036175511709085617
4.481178742468595,4.297341111611482,2.2636462660858614,0.14369206536593276
4.524152153584709,4.440288886117298,2.265083186739521,0.301804113278613
4.568555042445882,4.591068043985804,2.268101227872307,0.4745423386920319
4.614465722885741,4.749816924092012,2.2728466512592274,0.6623575035167744
4.661963892126661,4.9165552161554285,2.279470226294395,0.8655402563996812
4.711129444288215,5.0911571467666255,2.288125628858392,1.08417394862236
4.762041015755881,5.273324629479414,2.2989673683446155,1.3180851614962483
4.814774262050675,5.462562330205067,2.3121482199595778,1.5667948452001692
4.869399885352726,5.658157052645328,2.3278161684115792,1.8294738737211242
4.925981455879179,5.859164127182194,2.3461109071487907,2.1049075283266943
4.984573097151001,6.064403467143966,2.3671599824320575,2.39147372410608
5.045217131822441,6.2724675319782675,2.391074719673118,2.6871394857135376
5.107941807142224,6.481742556456749,2.4179461145302534,2.9894791188417393
5.172759232706791,6.690443111173066,2.447840905718671,3.295715703300782
5.239663663818521,6.89665850950647,2.4807980627516786,3.6027851218412077
5.308630248913586,7.098408029569564,2.5168259139700906,3.9074191895859793
5.379614329209281,7.2937006861590525,2.5559001058659505,4.206242040439298
5.452551336070872,7.480594644562472,2.5979625262703436,4.49587224675531
5.527357282516497,7.657251474076456,2.642921248737897,4.7730225556898915
5.603929797257261,7.8219812798194415,2.690651474294796,5.034589740126329
5.682149610055456,7.97327613966897,2.740997371696059,5.277728728408863
5.761882371452145,8.109830906400283,2.7937746589801478,5.499907516051759
5.842980680516148,8.230551986657037,2.848773734140665,5.69894188911727
5.925286200382718,8.33455591620838,2.9057631530318377,5.873011248867829
6.008631759544802,8.421160273260261,2.964493265520516,6.020658502662101
6.092843362277405,8.489869696559259,3.0246998505471367,6.14077794078527
6.1777420592429975,8.540359591824696,3.0861076299549897,6.232595283953523
6.263145655161244,8.5724596605627,3.148433582794525,6.295643805512057
6.348870251766871,8.586138816737277,3.2113900208496453,6.329739797059025
6.434731639934244,8.581492488179922,3.2746874188202355,6.334959839954037
6.520546564816043,8.558732806683881,3.3380370172197757,6.311621510423856
6.606133892882882,8.51818180565042,3.401153232324014,6.260268372600142
6.691315710939386,8.460267464958106,3.4637559160500153,6.181659443465059
6.775918385588967,8.385522246234979,3.525572510484666,6.076762753040401
6.8597736080513165,8.294583616248504,3.58634013801507,5.946752159885788
6.942719444213801,8.188195931981976,3.645807659613928,5.7930061993478645
7.024601403533621,8.067212938071695,3.7037377216074066,5.617107430401036
7.105273532914338,7.932600000109699,3.759908795911417,5.420840511221286
7.184599532915435,7.7854350770396366,3.8141172010236297,5.2061870960584615
7.262453883685831,7.626907349487836,3.8661790719842144,4.9753156438461215
7.3387229571807095,7.458312406839669,3.9159322284226756,4.730564407044264
7.4133060812491065,7.28104299592718,3.963237872493118,4.474416266666183
7.486116511208379,7.0965745818212875,4.00798203515978,4.209464713478969
7.557082257026591,6.906445378629769,4.05007668229457,3.938371124577472
7.626146710812889,6.712231055155128,4.089460393540345,3.663814477649727
7.69326902136444,6.515514949031524,4.1260985383168425,3.3884356610594106
7.758424170854755,6.317855243103287,4.1599828949274364,3.11477942031471
7.821602723285788,6.120751062104041,4.191130689130584,2.845237569665527
7.882810233906828,5.925609736474545,4.21958306482724,2.5819972642515014
7.942066331271573,5.733717487448293,4.245403037469755,2.3269978156910613
7.999403506146057,5.546215500426614,4.268673015626666,2.08189877460453
8.054865661150323,5.364082817762986,4.289492003372711,1.8480609165530901
8.108506489327953,5.188126790629147,4.307972612538242,1.6265405321942161
8.160387757234243,5.018981099910923,4.324238017860184,1.4180962340057932
8.210577568233353,4.857110701031237,4.338418980200242,1.2232065192112302
8.259148675243665,4.702822551869122,4.350651045392354,1.0420956800824992
8.306176900762356,4.5562806896580454,4.361072002193179,0.8747653642752654
8.351739707658936,4.417524132823309,4.369819655835932,0.7210291289232899
8.39591494898717,4.286486165172472,4.377029947125165,0.5805476270636538
8.438779810638893,4.163013762094655,4.382835423395802,0.45286251768534846
8.48040994825984,4.046886186523139,4.387364048572655,0.33742770790636684
8.520878810125073,3.9378320678816143,4.390738325651719,0.23363704180783368
8.560257130803889,3.835544543987973,4.393074696069797,0.14084799408401388
8.598612576243768,3.73969427180715,4.394483176010637,0.05840128102590808
8.63600951896184,3.649940288320452,4.395067188820897,-0.014363440561442273
8.672508921845045,3.5659388272255677,4.394923554415282,-0.07809544740812703
8.708168310117301,3.4873502762064876,4.394142599941201,-0.13342396439500365
8.743041812879365,3.4138445015412833,4.392808360297251,-0.1809518519687161
8.777180257894779,3.345104780997103,4.390998841777564,-0.2212515042774144
8.81063130570475,3.280830580785504,4.38878632673479,-0.254862528059294
8.843439611512604,3.220739394939753,4.386237701454197,-0.28229081922912325
8.875647005462001,3.164567841357517,4.383414793261906,-0.3040087072656171
8.907292683875577,3.11207218193192,4.38037470618925,-0.32045589105804845
8.938413405694895,3.0630284073736296,4.37717014727867,-0.332040940166305
8.96904368976863,3.0172320021808066,4.3738497378770065,-0.3391431804722765
8.99921600979044,2.9744974826562163,4.370458306072284,-0.3421148220979387
9.028960984617001,2.9346577812855723,4.367037157851304,-0.34128322014492746
9.058307562429857,2.8975635342164803,4.363624325649855,-0.3369531856415277
9.087283197772022,2.863082314842941,4.36025479379344,-0.3294092856822148
9.115914020920451,2.831097845325344,4.356960700936618,-0.31891808882994604
9.144224999373705,2.801509208933991,4.353771520048318,-0.30573032514925974
9.172240091463046,2.774230079065298,4.350714216796826,-0.2900829404310612
9.199982392253698,2.7491879753340585,4.347813387392515,-0.27220103186726063
9.227474272007038,2.7263235530149594,4.345091377073842,-0.25229965816111827
9.254737507537188,2.705589929051487,4.3425683804922315,-0.23058552125907184
9.281793406827703,2.686952045666437,4.340262525279641,-0.20725851992488037
9.308662927284367,2.6703860711252734,4.338189940080392,-0.1825131775390775
9.33536678799562,2.6558788362805106,4.336364808305001,-0.15653994802586677
9.361925576358425,2.6434273050455204,4.334799408824742,-0.1295264048621418
9.38835984940888,2.633038076812688,4.333504144776121,-0.101658318840112
9.414690230177007,2.624726918961767,4.33248756158772,-0.07312063072810725
9.440937499366624,2.6185183279288724,4.331756355280439,-0.044098325262467056
9.467122682645913,2.614445117761739,4.331315372027815,-0.014777213037435368
9.49326713382353,2.6125480356141404,4.331167599897441,0.014655373154821103
9.51939261417967,2.6128754041751927,4.331314153628989,0.044009961162472966
9.545521368221422,2.615482791530334,4.331754253240614,0.07309439550299598
9.571676196136725,2.620432709349597,4.332485197195644,0.10171336124112179
9.59788052323022,2.6277943405285904,4.333502330808055,0.12966797136149963
9.624158466635507,2.637643297391793,4.33479901052167,0.15675541471470053
9.650534899609424,2.6500614112152916,4.336366564668817,0.182768663626056
9.677035513721577,2.6651365530252207,4.338194251305078,0.20749624301397188
9.70368687925183,2.682962484238311,4.340269213735217,0.23072206658232056
9.730516504094213,2.70363873355164,4.342576434401041,0.2522253506053673
9.75755289142973,2.7272704933252663,4.345098687907094,0.2717806223682286
9.784825596362984,2.7539685242265017,4.347816494130776,0.2891578489205297
9.81236528160525,2.7838490507145464,4.350708072619981,0.30412272304109567
9.840203772112394,2.8170336215107015,4.353749299850392,0.31643715796643307
9.868374108327501,2.8536488978353765,4.356913671430057,0.3258600614922245
9.896910597305855,2.89382631701612,4.360172272044979,0.33214848476536885
9.925848860476016,2.9377015589671185,4.363493756892632,0.33505927299872346
9.955225876065688,2.985413716640624,4.366844349622619,0.3343513863395997
9.985080013232094,3.037104037235643,4.370187863486016,0.32978911137580513
10.015451053604451,3.0929140569227673,4.373485754599773,0.32114644959402644
10.046380194173679,3.1529828963324564,4.376697219095714,0.3082130506600834
10.077910023137003,3.2174434157362213,4.379779349602315,0.29080215695325595
10.110084457294365,3.2864168476813993,4.382687371171848,0.26876114051089134
10.14294862577118,3.3600054335155582,4.385374982576956,0.2419853392363779
10.176548680106334,3.4382824966319765,4.38779483596932,0.2104360227271285
10.210931505072654,3.5212793062646623,4.389899196196591,0.1741634126168463
10.2461442981353,3.608968052699527,4.39164083032276,0.13333569943907597
10.282233978662296,3.7012403210610216,4.392974187317151,0.08827485719416232
10.319246381872906,3.7978806990196374,4.393856935889093,0.03949963470660165
10.357225188863103,3.898535700228082,4.394251932236159,-0.012224772214099552
10.396210545865383,4.00267917279565,4.394129684514018,-0.06583240002183796
10.43623733759334,4.109576925849813,4.3934713605138,-0.1199019712605723
10.47733310685184,4.21825549362721,4.3922723408011946,-0.17260985071235918
10.51951566178811,4.327482577643242,4.390546242294071,-0.2217021605584405
10.562790487564543,4.435769144244539,4.388329220688486,-0.26450134031481776
10.60714817900699,4.541404199218598,4.385684207285338,-0.297963978570462
10.652562220999176,4.642531205875509,4.382704567499633,-0.3188036782545425
10.698987533057931,4.737268371499766,4.379516530717088,-0.32368270014650874
10.746360216772928,4.823863393779937,4.376279703715623,-0.30945882752433795
10.794598850710727,4.900859320030548,4.373185115440379,-0.27345305343256987
10.843607443911033,4.967237578262006,4.370450584906053,-0.2136875643928169
10.893279819693653,5.022503513729922,4.368313709262125,-0.12904169983848462
10.943504854830952,5.066692027731128,4.36702329226374,-0.019290883696807037
10.994171775108263,5.100292541636045,4.366830383426772,0.11497505159523666
11.045174700524624,5.12411424163398,4.367980133942725,0.2725255340034167
11.096415842940964,5.1391250991982895,4.370705389282759,0.45170700848423956
11.147807093932947,5.14629782374713,4.375222459367602,0.6506562357669545
11.199270072170417,5.146485807734764,4.381729021725271,0.8674744742150302
11.250734930247765,5.140338797761583,4.390403766467422,1.1003470292641995
11.30213831822538,5.128257030095402,4.401407236760064,1.34760893145786
11.353420888526333,5.110376326547749,4.4148833260746425,1.607767186514411
11.40452465179181,5.086574820120894,4.430960997939787,1.879493383355847
11.45539039999302,5.056492962597804,4.449755931773345,2.1615996132737068
11.505955329618997,5.019560629531718,4.471371927906082,2.4530079283702078
11.556150935914314,4.9750273869276285,4.495902007189784,2.7527205206136665
11.60590120978359,4.921993791337628,4.5234292123959206,3.059795210207939
11.655121147696967,4.859442822942632,4.554027164498,3.3733289124000714
11.703715575926394,4.7862712596651455,4.587760453622001,3.692450434426999
11.751578288523046,4.701321120379632,4.624684957966271,4.016323064145966
11.798591499726841,4.603411375165168,4.66484818860773,4.3441567675671395
11.844625613478494,4.491370065525676,4.708289756283402,4.675229262369657
11.889539314133751,4.364066912012702,4.755042048907098,5.008914658976189
11.933179983253877,4.220446526785005,4.80513119549686,5.344717657247511
11.975384448521728,4.05956262933319,4.858578372069335,5.682310343774043
12.01598007481506,3.880614360516028,4.915401475507076,6.021567295079807
12.05478621842022,3.6829871478686065,4.975617148457873,6.362592702276211
12.091616089898906,3.4663029456582795,5.039243075480635,6.70573017229753
12.12627911935549,3.230488561608692,5.106300377203611,7.05154105329084
12.158584004971576,2.97587688186195,5.176815787736519,7.400729560997755
12.188342773790195,2.7033649455315687,5.250823083346496,7.75398131242085
12.21537642324551,2.4146656027932845,5.328362896470705,8.111664860238932
12.239523079273443,2.112705051787171,5.409479545073094,8.473323895590546
12.260650129791316,1.80223118027315,5.494212784029,8.836867520884802
12.278672441594047,1.4906890858211312,5.582581459237848,9.197370549240604
12.293579332452259,1.1893459973400042,5.674555164730254,9.545483855553046
12.30547279242566,0.9144257066418178,5.770010003285784,9.865738213371925
12.314617049492078,0.6875554636122835,5.868667385419504,10.135627091940002
12.321492604128201,0.534230098483636,5.9700236563389035,10.327161393285865
12.326834905113037,0.47892272839173755,6.073295270271762,10.412725274380792
12.331624132396954,0.5371698350799512,6.17742252301557,10.374854304517672
12.336995830747753,0.7084832842231162,6.281171066060747,10.214938221612412
12.344080663589985,0.9755871013212007,6.383320448276871,9.953774360180283
12.353836534603197,1.311198303621392,6.482858191878674,9.622644574798496
12.366948517639411,1.6872681422318947,6.579084637626659,9.251748757864373
12.38382119906173,2.0810287907238583,6.671602125205303,8.86320342442535
12.404631486968968,2.4765578903324466,6.760234159449556,8.469893601801973
12.429397065872292,2.863704737524384,6.844933095467576,8.07751876342019
12.458034113247535,3.236336717013433,6.925708283101778,7.687255308766863
12.49039748041767,3.590858737631673,7.002580836189447,7.2978801650730825
12.526306067793987,3.9252186656040484,7.075559637840177,6.907165103552243
12.565558254450028,4.238318088364012,7.1446312888757,6.512698950918717
12.607941435333668,4.52969353618902,7.209758278384887,6.112334740291783
12.653238370695558,4.799358054193181,7.270881625787805,5.704408856930905
12.701231951237489,5.047728962876823,7.3279257143571135,5.287825001323198
12.751709240866257,5.275595852393491,7.380803964370346,4.862057851276955
12.804465199390192,5.484101644245389,7.429424542883115,4.427108872748095
12.859306215832646,5.674721288347075,7.473695631610596,3.98343487642685
12.916053428716117,5.8492296859061135,7.513529980374864,3.531864443627949
12.974545725575178,6.009654259254435,7.548848624811144,3.0735155392711886
13.034642268167723,6.158209022424228,7.579583780203856,2.609728013593972
13.096224358391964,6.297206346422679,7.605681060339795,2.1420266640951016
13.15919642185619,6.428939884246479,7.627101326980746,1.6721340544249537
13.223485820698656,6.555527270765617,7.643822667524995,1.2020575835846352
13.289041093406311,6.678694473789274,7.655843243360842,0.7342822549059811
13.355828038144203,6.799476386718736,7.663186065909901,0.2721075115468499
13.42382280201139,6.917804715439621,7.66590714102537,-0.17983259940904267
13.493000849165787,7.0319652029217075,7.6641088150312795,-0.6148471047956627
13.563320501195005,7.137953918488414,7.657960343983323,-1.0233180080714048
13.634700040379888,7.228881188246227,7.6477271639026085,-1.3919112440725883
13.70698885226235,7.294786545498249,7.633808051461883,-1.7034064422138209
13.779936717717334,7.3234739033063425,7.616773987039744,-1.938029784712422
13.853171456750397,7.302964925088609,7.597393689192621,-2.077141740059856
13.926201106001283,7.225422623169502,7.576622271792022,-2.109035703992715
13.998455332232979,7.090896051864512,7.555531914752095,-2.034423716740713
14.069364292751624,6.908331215577723,7.5351876775846875,-1.8678744007083883
14.138447604907402,6.692743032019104,7.516508933577604,-1.63357151530092
14.205375035227593,6.460361975346739,7.500173218424594,-1.3580173253984533
14.269978654981061,6.224710506490081,7.4865930451706095,-1.0640185031295015
14.332225760045961,5.995028509053891,7.475952860139315,-0.7681047398876613
14.3921760451365,5.776563155354094,7.468271812740438,-0.48074496992510046
14.449941676690042,5.571632360856409,7.463464363041187,-0.2077903599012736
14.505658000298606,5.380709597083669,7.461386459442175,0.0479735240326159
14.559465096269443,5.203243679361714,7.461866194682501,0.28561485929597275
14.61149753306306,5.038192463245418,7.464722343275461,0.5052402671562729
14.661879457695514,4.884338926951947,7.469774745947023,0.7074915682664525
14.710722846965034,4.740464492852269,7.476849661629688,0.8932529101950215
14.758127491893557,4.6054360382116,7.485782190731638,1.0634887293728539
14.804181852275674,4.478243480995071,7.496417078025367,1.2191591873901255
14.848964287085625,4.35801033376751,7.508608669899268,1.3611798661594416
14.8925443904233,4.243990235488332,7.522220468560863,1.4904058929210138
14.934984292778184,4.135556787468816,7.537124527490073,1.6076289691535022
14.976339860652873,4.0321907045626855,7.553200817181608,1.7135807439378599
15.0166617676985,3.9334664053421,7.570336624620987,1.8089388825112316
15.05599643175192,3.8390391107694413,7.5884260134460995,1.8943338636739342
15.094386822859615,3.748632943097643,7.607369352082839,1.9703555022921064
15.131873152290591,3.6620302076176796,7.6270729071057595,2.037558736554072
15.168493454366768,3.5790618803007215,7.6474484944713,2.096468520302979
15.204284073169775,3.499599246794915,7.66841317967433,2.1475838213616525
15.239280065637725,3.4235466046579313,7.689889017887946,2.191380806940374
