th1 (rad),w1 (rad/s),th2 (rad),w2 (rad/s),a1 (rad/s^2),a2 (rad/s^2)
3.4843330159290264,0.0821865871071336,5.564006152498134,-0.31164676485324283,5.567902930024566,9.162684927429817
3.485154881800098,0.13786561640737927,5.5608896848496014,-0.22001991557894465,5.5326842705871515,9.13868715533924
3.4865335379641715,0.19319245911325078,5.558689485693812,-0.12863304402555226,5.510423817111269,9.110708661232831
3.488465462555304,0.24829669728436346,5.557403155253556,-0.03752595741322394,5.501081052542172,9.078685116126561
3.4909484295281477,0.30330750780978516,5.557027895679424,0.053260893748041674,5.504576360167368,9.042491580655556
3.4939815046062455,0.35835327141145884,5.557560504616904,0.14368580955459723,5.520791484492633,9.00194340445142
3.49756503732036,0.41356118625638516,5.55899736271245,0.23370524359911143,5.549569512141542,8.956796607886435
3.501700649182924,0.46905688137780055,5.561334415148441,0.3232732096779758,5.590714389986302,8.906747761921952
3.506391217996702,0.5249640252776636,5.564567147245221,0.4123406872971953,5.643990001201027,8.851433391449982
3.5116408582494785,0.5814039252896739,5.568690554118192,0.5008550212116951,5.7091188235737,8.790428937206682
3.5174548975023754,0.6384951135254109,5.573699104330309,0.588759310583762,5.785780198474454,8.723247321242445
3.5238398486376297,0.6963529155101554,5.579586697436147,0.6759917837961864,5.873608243594286,8.649337171215219
3.530803377792731,0.7550889979460983,5.586346615274109,0.7624851555083386,5.972189448156765,8.568080769566771
3.538354267772192,0.8148108924276659,5.593971466829192,0.8481659632040064,6.081059995959126,8.478791805050891
3.5465023766964685,0.8756214923872572,5.602453126461232,0.9329538812545153,6.199702869482477,8.380713016177776
3.555258591620341,0.937618521082082,5.611782665273777,1.016761011416293,6.327544797555105,8.273013828947429
3.564634776831162,1.000893969057633,5.62195027538794,1.0994911497057673,6.463953119749977,8.154788104746741
3.5746437165217384,1.0655335002551327,5.632945186884998,1.1810390307532348,6.608232652895788,8.025052128403372
3.5852990515242897,1.1316158267840906,5.64475557719253,1.2612895520372684,6.759622658777745,7.882742980986758
3.5966152097921307,1.199212053371868,5.6573684727129026,1.3401169818471361,6.917294027240613,7.726717456813756
3.6086073303258495,1.2683849936442742,5.670769642531374,1.4173841564152736,7.080346805362021,7.555751698968708
3.621291180262292,1.3391884616978944,5.684943484095527,1.4929416734049608,7.2478082209504455,7.368541742114895
3.634683064879271,1.4116665439073988,5.699872900829576,1.5666270908261097,7.418631367081698,7.163705164995822
3.6487997303183453,1.4858528575782157,5.715539171737837,1.638264142476068,7.591694733387755,6.939784067238975
3.6636582588941273,1.5617698049120934,5.7319218131625975,1.7076619831484576,7.765802788944721,6.695249595211736
3.6792759569432483,1.6394278328015406,5.748998432994082,1.774614479100575,7.939687840386797,6.42850824894601
3.6956702352712636,1.7188247112054085,5.766744577785087,1.838899561590035,8.112013406733851,6.137910205611235
3.7128584823833175,1.799944845272747,5.785133573400988,1.9002786636461473,8.281379368707155,5.8217598935734545
3.730857930836045,1.8827586389598185,5.804136360037449,1.9584962625818818,8.446329164267828,5.4783290434238205
3.749685517225643,1.9672219306024967,5.8237213226632685,2.01327955301612,8.60535931287199,5.105872426928015
3.769357736531668,2.053275523731217,5.84385411819343,2.0643382772854,8.756931557470665,4.702646469747166
3.78989049176898,2.1408448393059234,5.864497500966284,2.111364741982872,8.899487914369596,4.266930886710887
3.811298940162039,2.2298397184496195,5.885611148386112,2.154034050849981,9.031468915229045,3.7970534365827326
3.8335973373465353,2.32015440760191,5.907151488894612,2.192004585215808,9.151335310932451,3.291417823257671
3.8567988814225544,2.4116677607112345,5.92907153474677,2.2249187634483847,9.257593481610055,2.748534678126135
3.880915559029667,2.504243695527335,5.951320722381253,2.252404110229646,9.348824758173283,2.1670554392276187
3.90595799598494,2.5977319431090677,5.97384476348355,2.2740746646219225,9.423718805292275,1.5458087915350358
3.931935315416031,2.6919691311619904,5.996585510129769,2.289532752537273,9.481111140524087,0.8838391436953217
3.9588550067276507,2.7867802425672314,6.019480837655142,2.2983711439742263,9.520024765909698,0.18044638442220423
3.986722809153323,2.8819804902263284,6.042464549094885,2.3001756078184483,9.539715763841633,-0.5647741179276241
4.015542614055586,2.9773776478647447,6.06546630517307,2.294527866639172,9.53972255650751,-1.3518926386220018
4.045316390534233,3.07277487342982,6.088411583839461,2.281008940252952,9.519918348004788,-2.180609087002453
4.076044139268531,3.167974056909868,6.111221673241991,2.2592028493829273,9.480566063993432,-3.0502220291786153
4.10772387983763,3.2627797175498023,6.13381370173582,2.2287006290911413,9.422374884184654,-3.959605357852273
4.140351677013128,3.357003466391649,6.156100708026731,2.1891045755126184,9.346557243377813,-4.9071956812096165
4.173921711677044,3.4504690388254273,6.177991753781857,2.140032618700522,9.254884980644247,-5.890993935819818
4.208426402065299,3.5430178886318697,6.199392079968862,2.081122679342324,9.149743176316147,-6.908585097086183
4.2438565809516176,3.6345153203950313,6.2202033067622855,2.0120368283714622,9.034180174710793,-7.957180117926301
4.280201734155568,3.724857122142139,6.2403236750460005,1.9324650271921993,8.91195239716105,-9.033684322985598
4.3174503053769895,3.81397664611375,6.259648325317922,1.8421281839623433,8.787562860254761,-10.134796378558732
4.355590071838127,3.9018522747162976,6.278069607157546,1.740780220176756,8.66629288389558,-11.257141620502004
4.39460859458529,3.9885152035552536,6.2954774093593135,1.628208803971736,8.554227352501641,-12.397442955492878
4.434493746620842,4.07405747708027,6.311759497399031,1.5042343744168072,8.458275116550634,-13.552731798249587
4.475234321391645,4.158640228245776,6.326801841143199,1.3687070564343113,8.386187706434766,-14.720600663916972
4.516820723674103,4.242502105310124,6.340488911707542,1.2215010497951417,8.346581465934387,-15.899498252474105
4.559245744727204,4.325967919969468,6.352703922205493,1.0625060672704008,8.348970459703754,-17.08906734377796
4.602505423926899,4.409457624566506,6.363328982878198,0.8916153938326212,8.403820000596186,-18.290525802413487
4.646600000172564,4.493495824572467,6.372245136816524,0.7087101358084864,8.522633282318763,-19.507091697423412
4.691534958418289,4.578722157395655,6.379332238174609,0.5136392188342522,8.718086257380314,-20.744455122991145
4.737322179992245,4.665903019969458,6.384468630362951,0.3061946676043408,9.004228364337628,-22.01130172013973
4.783981210191939,4.755945303612834,6.387530577038994,0.08608165040294347,9.396768609448715,-23.319895712743417
4.8315406632280675,4.849912989707321,6.388391393543023,-0.14711730672449072,9.913467081485537,-24.68673228950724
4.880039793125141,4.949047660522177,6.386920220475779,-0.39398462961956315,10.574649578242871,-26.13326771380619
4.929530269730362,5.054794156304605,6.382980374179583,-0.655317306757625,11.403854090579859,-27.686725021445586
4.980078211293408,5.168832697210403,6.376427201112007,-0.9321845569720808,12.428594814375415,-29.380942051733545
5.031766538265512,5.293118645354157,6.367105355542286,-1.2259939774894162,13.681176046648854,-31.257153217560457
5.084697724719054,5.429930405820646,6.354845415767391,-1.5385655096650208,15.199370987867589,-33.36442823144531
5.13899702877726,5.581924115699322,6.339459760670741,-1.8722097919794738,17.02652860786824,-35.75912966877142
5.194816269934254,5.752189401778004,6.320737662750947,-2.229801088667188,19.210139197165958,-38.50199033156768
5.252338163952034,5.944290793749664,6.298439651864275,-2.6148209919828647,21.796777681830807,-41.64983133179176
5.311781071889531,6.162258570567972,6.272291441944446,-3.0313193053007823,24.81906560852934,-45.23571921138203
5.37340365759521,6.410449226653266,6.241978248891439,-3.483676497414603,28.26578642958391,-49.225013912142245
5.437508149861743,6.693107090949105,6.207141483917293,-3.975926636536025,32.01805325818465,-53.42321272374034
5.504439220771234,7.013287623530951,6.167382217551933,-4.510158763773428,35.72217775454783,-57.294442750173324
5.574572097006543,7.37050940107643,6.122280629914199,-5.083103191275161,38.56313930304023,-59.64052883031878
5.648277191017307,7.756140794106832,6.071449598001448,-5.679508479578349,38.94991201208477,-58.1587035958178
5.725838598958376,8.14563991422768,6.014654513205664,-6.261095515536526,34.36737947440652,-49.241901818600596
5.8072949981006525,8.489313708971745,5.952043558050299,-6.753514533722532,22.229596533834954,-29.206332967778636
5.89218813519037,8.711609674310093,5.884508412713074,-7.045577863400318,2.701338864256994,1.6859192045297147
5.979304231933471,8.738623062952664,5.81405263407907,-7.028718671355021,-18.52182388310311,35.26204668817669
6.066690462562997,8.553404824121634,5.74376544736552,-6.676098204473254,-33.36418786551695,59.89024464905547
6.1522245108042135,8.219762945466464,5.677004465320788,-6.077195757982699,-38.69113759061995,70.90030061674449
6.234422140258878,7.832851569560264,5.616232507740961,-5.368192751815254,-37.176498075118445,71.91655414325413
6.31275065595448,7.46108658880908,5.562550580222809,-4.649027210382712,-32.639114633645185,68.2973577599445
6.387361521842571,7.134695442472628,5.516060308118982,-3.966053632783267,-27.455646857061442,63.428664941482836
6.458708476267297,6.860138973902013,5.47639977179115,-3.3317669833684387,-22.645767952215383,58.79188114357712
6.527309866006317,6.633681294379859,5.443082101957465,-2.7438481719326675,-18.52173193872692,54.85739175380851
6.593646678950115,6.44846397499259,5.415643620238138,-2.1952742543945822,-15.109684774478673,51.67430200583153
6.6581313187000415,6.297367127247803,5.393690877694192,-1.6785312343362668,-12.34284429885404,49.144982743131585
6.7211049899725195,6.173938684259262,5.37690556535083,-1.187081406904951,-10.137087627781678,47.13523758293226
6.782844376815112,6.072567807981446,5.36503475128178,-0.7157290310756282,-8.41652480184903,45.51388156873921
6.8435700548949265,5.988402559962955,5.357877460971024,-0.2605902153882361,-7.119670631585991,44.164657646876904
6.903454080494556,5.917205853647095,5.355271558817142,0.1810563610805329,-6.198696269113878,42.988172486626105
6.962626139031027,5.855218890955957,5.357082122427947,0.610938085946794,-5.616588988529886,41.90075436297758
7.021178327940587,5.799053001070658,5.363191503287415,1.0299456295765699,-5.344002656511274,40.8327726859201
7.079168857951293,5.745612974505545,5.37349095958318,1.4382733564357708,-5.356411204329825,39.72723394848003
7.136624987696349,5.692048862462247,5.387873693147538,1.8355456959205712,-5.631746110887509,38.538803588079325
7.193545476320971,5.635731401353372,5.4062291501067445,2.2209337318013644,-6.148549848095933,37.23316284805754
7.249902790334505,5.574245902872413,5.428438487424758,2.59326536028194,-6.884629527687265,35.786542213711336
7.305645249363229,5.50539960759554,5.454371141027577,2.951130782419053,-7.816178594749263,34.185277923329714
7.360699245439184,5.427237821648047,5.483882448851768,3.2929835616523504,-8.917324423227072,32.425273651077404
7.414971623655664,5.338064577415777,5.516812284468291,3.6172362981631245,-10.16004968742165,30.511295974225497
7.468352269429822,5.23646408054156,5.5529846474499225,3.9223492579053794,-11.514426177264866,28.456078208050062
7.520716910235238,5.121319818768911,5.592208140028976,4.20691003998588,-12.9490938991357,26.279245131571226
7.571930108422927,4.991828879777554,5.634277240428835,4.469702491301592,-14.431917679082302,24.00609679879029
7.6218483972207025,4.847509702986731,5.678974265341851,4.709763459289495,-15.930758049068432,21.66630215813245
7.67032349425057,4.688202122496047,5.7260718999347455,4.92642648087082,-17.414301187737376,19.29255477985053
7.717205515475531,4.514059110618673,5.775336164743454,5.119352028669325,-18.852901438691813,16.919237829660933
7.762346106581718,4.325530096231755,5.826529685030147,5.288544406965934,-20.21939701099718,14.581138206074366
7.805601407544035,4.1233361261217825,5.879415129099806,5.434355789026678,-21.48986364177297,12.312244097911666
7.846834768805253,3.9084374897040526,5.933758686990073,5.5574782300057946,-22.644272647365668,10.144657693769116
7.885919143702293,3.6819947632303958,5.9893334692901306,5.658924806943486,-23.667020666772025,8.107654763485073
7.922739091334597,3.4453245565626753,6.0459227173595655,5.740001354578337,-24.547300893652228,6.226923139437079
7.957192336900223,3.199851547626153,6.103322730905349,5.802270585972708,-25.279291747778736,4.524010094209119
7.989190852376485,2.9470586301483657,6.161345436765076,5.847510686914799,-25.86214964991642,3.016002259143155
8.018661438677968,2.6884371336492014,6.219820543634224,5.87767070950623,-26.29980720576564,1.7154505297180322
8.04554581001446,2.425439061591545,6.278597250729287,5.894825214803411,-26.600594676994707,0.6305374788235691
8.069800200630375,2.159433114821598,6.337545502877321,5.901130589591646,-26.776718355699945,-0.23453147946242972
8.091394531778592,1.8916659312645985,6.396556808773237,5.898785274797022,-26.843641630244377,-0.878946713824601
8.110311191091238,1.6232295149621547,6.455544661521207,5.889995807658776,-26.819421147447677,-1.3045671336280744
8.126543486240859,1.3550353034876779,6.514444619597795,5.876950136322495,-26.724050698939323,-1.515096825482241
8.140093839275735,1.0877947964982846,6.57321412096102,5.861799168067673,-26.578859599777914,-1.5152152247614146
8.150971787240719,0.8220062005005054,6.631832112641697,5.846647015820059,-26.406001492399653,-1.309706173983616
8.159191849245724,0.5579461855765089,6.6902985827998975,5.8335499540802225,-26.228055010899638,-0.9026251171122065
8.16477131110149,0.2956656354675125,6.7486340823407,5.824523702909101,-26.0677403984032,-0.2965391726091775
8.167727967456164,0.034988231483480514,6.8068793193697905,5.821558311183009,-25.94773555840117,0.508123595210265
8.168077849770999,-0.22448912410053118,6.865094902481621,5.826639547135112,-25.890548599752282,1.5135654807089598
8.165832958529993,-0.483394610098054,6.923361297952972,5.841775201942201,-25.91836584172367,2.7248649944318273
8.160999012429013,-0.7425782685152907,6.981779049972395,5.869023851886519,-26.05273335836513,4.1498177849178655
8.15357322974386,-1.003105602098942,7.04046928849126,5.910522029735698,-26.31382689316045,5.798075132283575
8.143542173722869,-1.2662438710305466,7.099574508788617,5.968502781058533,-26.718886478905176,7.6790346293869876
8.130879735012563,-1.5334327358195985,7.159259536599202,6.045293127352403,-27.279086228948163,9.797507013311659
8.115545407654366,-1.8062235981090802,7.219712467872726,6.14326819748552,-27.993603299624738,12.14546555320454
8.097483171673275,-2.0861596311053274,7.281145149847581,6.264722853017566,-28.838870710043572,14.68707351968529
8.076621575362221,-2.3745483382057633,7.343792378377756,6.411593588214418,-29.749983442604368,17.33272063279521
8.052876091980163,-2.672048172631807,7.407908314259901,6.584920794542371,-30.5904810582676,19.89666490722782
8.026155610253845,-2.977952983214483,7.473757522205324,6.783887443614649,-31.108178201637976,22.034731463706205
7.9963760804217,-3.2890347652308627,7.541596396641471,7.0042347582517115,-30.883585646047976,23.17065163858914
7.963485732769391,-3.5978706216913423,7.611638744223988,7.235941274637603,-29.303752356705207,22.456062760242787
7.927507026552478,-3.8909081452583942,7.683998156970365,7.460501902240031,-25.64484900241674,18.879710848933914
7.888597945099894,-4.147356635282562,7.758603175992765,7.64929901072937,-19.385069477414575,11.695742658188822
7.847124378747068,-4.341207330056708,7.835096166100059,7.766256437311259,-10.752563797576208,1.1802127690535924
7.803712305446501,-4.44873296803247,7.912758730473172,7.778058565001794,-1.1119625818030074,-10.831606439186983
7.759224975766176,-4.4598525938505,7.99053931612319,7.6697425006099245,7.470063585940464,-21.53986018071972
7.714626449827671,-4.385151957991096,8.067236741129289,7.454343898802727,13.402633507910656,-28.796933662555492
7.67077493024776,-4.25112562291199,8.141780180117316,7.166374562177172,16.34806287853937,-32.165685974200414
7.6282636740186405,-4.087644994126596,8.213443925739087,6.844717702435168,16.945670013959287,-32.5288896805576
7.587387224077374,-3.9181882939870034,8.281891102763439,6.519428805629592,16.100373559001262,-31.11292451245679
7.548205341137504,-3.757184558396991,8.347085390819734,6.208299560505024,14.539360582600107,-28.889340257634053
7.5106334955535345,-3.6117909525709897,8.409168386424785,5.919406157928684,12.716958401289427,-26.454268786211625
7.474515586027825,-3.4846213685580953,8.468362448004072,5.654863470066568,10.875384414582257,-24.11714427302781
7.439669372342244,-3.3758675244122727,8.524911082704739,5.41369202733629,9.12643876405285,-22.014325447574837
7.405910697098121,-3.2846031367717443,8.579048002978102,5.193548772860542,7.511009856964843,-20.19036777783509
7.3730646657304035,-3.209493038202096,8.630983490706708,4.991645095082191,6.034601803484518,-18.645779845615085
7.3409697353483825,-3.1491470201672507,8.680899941657529,4.80518729662604,4.686604786049679,-17.36244082392942
7.30947826514671,-3.1022809723067537,8.72895181462379,4.631562888386746,3.4501551826359362,-16.31625801116313
7.278455455423643,-3.0677794204803943,8.775267443507657,4.468400308275115,2.306940694878162,-15.483054292120276
7.247777661218839,-3.0447100135316125,8.819951446590409,4.313569765353912,1.2394078663979926,-14.841012916825319
7.217330561083523,-3.0323159348676327,8.863087144243949,4.165159636185659,0.2316857794001398,-14.371424000594429
7.187007401734847,-3.029999077073631,8.904738740605804,4.021445396179715,-0.7300893633828496,-14.05861429668493
7.156707410964111,-3.0372999707074597,8.944953194567601,3.8808592532128654,-1.6576956855446876,-13.889489602756528
7.126334411257036,-3.0538769275629067,8.98376178709973,3.7419643571853003,-2.5608109400879817,-13.85288653651962
7.095795641981407,-3.0794850369637867,9.021181430671584,3.603435491820104,-3.4469664257935073,-13.938812080505123
7.065000791611769,-3.1139547012217217,9.057215785589785,3.464047371015053,-4.321418454467419,-14.137590366717683
7.033861244599552,-3.1571688857663958,9.091856259299934,3.322671467347876,-5.186909828617176,-14.438909270739018
7.002289555741888,-3.2090379840525673,9.125082973973413,3.178282374640486,-6.043308929386216,-14.830751882798616
6.970199175901363,-3.2694710733464296,9.156865797719817,3.0299748558124997,-6.887128216211221,-15.298205208175029
6.9375044651678985,-3.3383423555085416,9.187165546277942,2.8769928037307495,-7.710942285404932,-15.822160303697226
6.904121041612813,-3.415451778362591,9.21593547431525,2.7187712006937774,-8.502751792802329,-16.377956340349108
6.869966523829187,-3.500479296290614,9.243123186322189,2.5549916372902866,-9.245375603106236,-16.93407757034936
6.834961730866281,-3.5929330523216767,9.268673102695091,2.385650861586793,-9.915998864660242,-17.451085836113325
6.799032400343064,-3.6920930409682793,9.29252961131096,2.2111400032256596,-10.486054087055358,-17.881054679971903
6.762111469933381,-3.796953581838833,9.314641011343216,2.0323294564259404,-10.92165374729995,-18.16784663309366
6.724141934114993,-3.9061701193118323,9.334964305907475,1.850650990095004,-11.184806713007207,-18.248612519245253
6.685080232921875,-4.018018186441904,9.353470815808425,1.6681648649025513,-11.23561144224122,-18.056849735570463
6.644900051057456,-4.130374300864316,9.370152464457451,1.4875963675468467,-11.035502989326828,-17.527194637313762
6.603596308048813,-4.240729330757585,9.38502842813292,1.312324421173709,-10.551430197451904,-16.601822038534998
6.561189014741237,-4.3462436327321035,9.398151672344657,1.146306200788359,-9.760577054435746,-15.2379083524501
6.5177265784139164,-4.443849403276461,9.409614734352541,0.9939271172638581,-8.654980598434257,-13.415173493273537
