th1 (rad),w1 (rad/s),th2 (rad),w2 (rad/s),a1 (rad/s^2),a2 (rad/s^2)
2.962572932885232,2.001497727051995,0.23406017711425467,-3.106248319895545,-6.865843617531452,-6.95311827350424
2.9825879101557518,1.9328392908766807,0.2029976939152992,-3.1757795026305873,-6.473626623284457,-6.706761777216344
3.0019163030645184,1.8681030246438362,0.17123989888899332,-3.2428471204027507,-5.961439820070919,-6.277931173932861
3.0205973333109566,1.808488626443127,0.13881142768496582,-3.305626432142079,-5.320215509037061,-5.657449861725102
3.0386822195753878,1.7552864713527565,0.10575516336354503,-3.36220093075933,-4.547713024620592,-4.845285061485847
3.0562350842889154,1.7098093411065507,0.07213315405595172,-3.4106537813741884,-3.6503495531346934,-3.8529496922575777
3.073333177699981,1.6733058455752037,0.038026616242209835,-3.449183278296764,-2.6442882245340082,-2.704901392924682
3.090066236155733,1.6468629633298635,0.0035347834592421926,-3.476232292226011,-1.5553495221597047,-1.438374009274437
3.1065348657890315,1.6313094681082665,-0.031227539463017914,-3.4906160323187554,-0.417484185148407,-0.10130805228294795
3.1228479604701143,1.6271346262567825,-0.06613369978620547,-3.491629112841585,0.7301457108332446,1.2515453186721608
3.139119306732682,1.634436083365115,-0.10104999091462132,-3.4791136596548635,1.8470677995597986,2.563796680235036
3.155463667566333,1.6529067613607131,-0.13584112751116995,-3.453475692852513,2.895684985793096,3.782944247802872
3.17199273517994,1.681863611218644,-0.1703758844396951,-3.4156462503744844,3.844953647495325,4.865214108944247
3.188811371292126,1.7203131476935973,-0.20453234694343994,-3.366994109285042,4.672905383668828,5.7788692307487795
3.206014502769062,1.7670422015302856,-0.23820228803629037,-3.309205416977554,5.367685105955567,6.505566467322792
3.223684924784365,1.8207190525898413,-0.2712943422060659,-3.244149752304326,5.9271515739722505,7.039828589495024
3.2418921153102636,1.879990568329564,-0.30373583972910917,-3.1737514664093758,6.357381067748474,7.38708021930137
3.260692020993559,1.9435643790070487,-0.3354733543932029,-3.099880664216362,6.670556518676841,7.560877803801848
3.2801276647836297,2.010269944193817,-0.36647216103536656,-3.0242718861783437,6.882712342247645,7.579945476771608
3.300230364225568,2.0790970676162934,-0.39671487989715,-2.948472431410628,7.011690502145034,7.465478318819257
3.321021334901731,2.1492139726377437,-0.42619960421125624,-2.873817648222435,7.0755117010022515,7.238977535277023
3.342513474628108,2.2199690896477664,-0.4549377806934806,-2.801427872869665,7.091228461839392,6.9207046078287355
3.364713165524586,2.2908813742661605,-0.4829520594221773,-2.7322208267913775,7.0742302715206105,6.528716674153187
3.3876219792672475,2.3616236769813668,-0.5102742676900911,-2.6669336600498457,7.0379188271996975,6.078377935285585
3.411238216037061,2.432002865253364,-0.5369436042905895,-2.60614988069699,6.993654879101391,5.5822201605047885
3.4355582446895947,2.5019394140443776,-0.5630051030975595,-2.550327679091942,6.950884263504278,5.050032671146475
3.4605776388300384,2.5714482566794206,-0.5885083798884789,-2.4998273523804775,6.917367887705031,4.48908367750225
3.4862921213968328,2.640621935556471,-0.6135066534122837,-2.454936515605455,6.899460559459287,3.904400141685442
3.5126983407523973,2.7096165411510635,-0.6380560185683383,-2.4158925141886005,6.902402048087277,3.2990565565027135
3.539794506163908,2.7786405616319363,-0.6622149437102243,-2.3829019486235734,6.930598658273063,2.6744416373944357
3.5675809117802273,2.847946548214667,-0.68604396319646,-2.356157532249629,6.987884549288938,2.030485459869765
3.596060377262374,2.9178253937075564,-0.7096055385189562,-2.3358526776509314,7.077759517724942,1.3658386194795349
3.6252386311994496,2.988602988884806,-0.7329640652954655,-2.322194291456136,7.20360474777504,0.678000505201333
3.6551246610882977,3.060639036362556,-0.7561860082100269,-2.3154142864041227,7.368880887499278,-0.03660326078636008
3.6857310514519233,3.134327845237549,-0.7793401510740682,-2.3157803190119863,7.577314368139572,-0.782592908146068
3.7170743299042988,3.2101009889189447,-0.802497954264188,-2.323606248093447,7.833078605592313,-1.5656545864254692
3.749175339793488,3.288431774974868,-0.8257340167451225,-2.3392627939577015,8.14097688225485,-2.392607100629443
3.782059657543237,3.3698415437974165,-0.8491266446846994,-2.363188864963996,8.50663338424294,-3.271514154235161
3.815758072981211,3.454907877639846,-0.8727585333343394,-2.3959040065063477,8.936697915685293,-4.211840394397707
3.8503071517576095,3.544274856796699,-0.8967175733994028,-2.438022410450325,9.439067758782025,-5.224647374608981
3.8857499003255764,3.6386655343845193,-0.9210977975039061,-2.4902688841964147,10.023126004704867,-6.322820159313605
3.9221365556694217,3.738896794431568,-0.9460004863458702,-2.5534970857895507,10.699987545974237,-7.52130388159182
3.9595255236137374,3.8458966698913106,-0.9715354572037657,-2.628710124605469,11.482728257398131,-8.837307023903135
3.9979844903126507,3.9607239524652917,-0.9978225584498204,-2.7170831948445002,12.386543180810985,-10.290385209468312
4.037591729837303,4.084589384273402,-1.0249933903982653,-2.8199870469391835,13.428723832576358,-11.902238902881518
4.0784376236800375,4.218876622599165,-1.053193260867657,-2.9390094359679986,14.628241407452247,-13.695909941278538
4.120626389906029,4.365159036673687,-1.082583355227337,-3.0759685353807837,16.00453298969558,-15.693790660589839
4.164277980272765,4.525204366570644,-1.1133430405811449,-3.232906441986682,17.57474516746977,-17.91337162434044
4.209530023938472,4.700951818245342,-1.1456721050010117,-3.4120401582300866,19.348086269581653,-20.35879901063662
4.256539542120925,4.894432680941158,-1.1797925065833126,-3.6156281483364525,21.314928102485958,-23.004886240623392
4.305483868930336,5.107581961966018,-1.215948788066677,-3.8456770107426865,23.426770813342383,-25.76807804343845
4.356559688549996,5.341849670099442,-1.2544055581741038,-4.103357791177071,25.561410714953436,-28.456394652803628
4.409978185250991,5.597463777248976,-1.2954391360858746,-4.387921737705108,27.467387147638167,-30.69009689048054
4.465952823023481,5.872137648725357,-1.3393183534629256,-4.694822706609913,28.689020208469348,-31.79521341049185
4.524674199510734,6.159027850810051,-1.3862665805290248,-5.012774840714831,28.502492007530243,-30.713560108926355
4.586264478018835,6.444052770885353,-1.4363943289361731,-5.319910441804095,25.963477144834226,-26.072313101346055
4.650705005727689,6.703687542333695,-1.489593433354214,-5.580633572817556,20.252943472715522,-16.678264835444512
4.717741881151026,6.90621697706085,-1.5453997690823895,-5.747416221172001,11.418057278973542,-2.574858923788305
4.786804050921635,7.0203975498505855,-1.6028739312941096,-5.7731648104098845,1.0428645750174672,13.996682919420957
4.857008026420141,7.03082619560076,-1.6606055793982084,-5.633197981215675,-8.19552184621082,29.214385889605733
4.927316288376149,6.948870977138651,-1.716937559210365,-5.341054122319617,-14.187084616287367,40.02631251411422
4.996804998147535,6.807000130975777,-1.7703481004335613,-4.940790997178475,-16.549021923850503,45.81354312819938
5.0648749994572935,6.6415099117372725,-1.819756010405346,-4.482655565896481,-16.19883519836809,47.81288658350113
5.131290098574667,6.479521559753591,-1.864582566064311,-4.0045267000614695,-14.323803448785771,47.669792111170935
5.196085314172202,6.336283525265733,-1.9046278330649256,-3.52782877894976,-11.809345425597467,46.62348405852047
5.259448149424859,6.218190071009758,-1.9399061208544233,-3.0615939383645556,-9.167567860324375,45.394435237549615
5.3216300501349565,6.126514392406515,-1.9705220602380689,-2.6076495859890594,-6.649758798892366,44.33450095149494
5.382895194059022,6.060016804417591,-1.9965985560979596,-2.16430457647411,-4.36148898920327,43.58443326154031
5.443495362103198,6.0164019145255585,-2.0182416018627007,-1.7284602438587067,-2.337315761070521,43.176756896725315
5.503659381248453,5.993028756914853,-2.035526204301288,-1.2966926748914536,-0.5817164291548147,43.092196426292595
5.563589668817602,5.987211592623305,-2.0484931310502024,-0.8657707106285276,0.9103886725485238,43.2878907351415
5.623461784743835,5.996315479348791,-2.057150838156488,-0.4328918032771126,2.1440355468240866,43.71056098964084
5.683424939537323,6.017755834817032,-2.061479756189259,0.0042138066192958235,3.1201624443194587,44.30221401650807
5.743602497885494,6.048957459260226,-2.0614376181230663,0.4472359467843765,3.8343321815078344,45.00239310604932
5.804092072478096,6.087300781075304,-2.0569652586552225,0.8972598778448697,4.276876190386718,45.74903275156604
5.864965080288849,6.130069542979171,-2.047992659876774,1.35475020536053,4.433821350335894,46.478962265026226
5.926265775718641,6.1744077564825295,-2.0344451578231686,1.8195398280107922,4.288302716949019,47.12858335572611
5.988009853283467,6.21729078365202,-2.0162497595430606,2.290825661568053,3.8223142651311934,47.6349676905976
6.050182761119987,6.2555139263033315,-1.99334150292738,2.767175338474029,3.018700416821305,47.93745465439693
6.112737900383021,6.2857009304715445,-1.9656697495426396,3.2465498850179983,1.8632937746668004,47.97971741640773
6.175594909687736,6.304333868218213,-1.9332042506924596,3.7263470591820758,0.3470876544417972,47.71218347339116
6.238638248369918,6.30780474476263,-1.895940780100639,4.203468893915987,-1.531687126917818,47.094638544289566
6.3017162958175446,6.292487873493452,-1.853906091161479,4.674415279358883,-3.7657234481978255,46.098811246505356
6.364641174552479,6.254830639011474,-1.8071619383678903,5.135403391823937,-6.337180117284843,44.71073085574364
6.427189480942594,6.191458837838626,-1.7558079044496508,5.582510700381373,-9.216740025056124,42.93266721772864
6.48910406932098,6.0992914375880645,-1.699982797445837,6.01183737255866,-12.36330689409096,40.784490954745664
6.550096983696861,5.975658368647155,-1.6398644237202504,6.419682282106117,-15.72445106731325,38.30432241132186
6.6098535673833325,5.818413857974022,-1.5756676008991892,6.8027255062193355,-19.23770136849672,35.54836280542096
6.668037705963073,5.626036844289055,-1.5076403458369958,7.158209134273545,-22.83275687904172,32.589824178540766
6.724298074405963,5.397709275498637,-1.4360582544942604,7.484107376058953,-26.434645557612757,29.516910169635477
6.77827516716095,5.133362819922509,-1.3612171807336708,7.779276477755308,-29.96777363348057,26.42986677438059
6.8296087953601745,4.833685083587704,-1.2834244159561177,8.043575145499114,-33.360689616372156,23.43723463373228
6.877945646196052,4.500078187423982,-1.2029886645011265,8.277947491836436,-36.55124760321724,20.651587932260107
6.922946428070292,4.13456571139181,-1.1202091895827622,8.484463371159038,-39.49173356450189,18.185212132686253
6.964292085184209,3.739648375746791,-1.0353645558711717,8.6663154924859,-42.15346156533354,16.146307711428957
7.0016885689416775,3.3181137600934556,-0.9487014009463127,8.82777856960019,-44.53039063789516,14.636361554526971
7.0348697065426125,2.872809853714504,-0.8604236152503109,8.974142185145459,-46.64146382386821,13.749270344969974
7.063597805079757,2.406395215475822,-0.7706821933988562,9.111634888595159,-48.531593507593065,13.572627368977837
7.087661757234516,1.9210792803998913,-0.6795658445129047,9.247361162284937,-50.27143344552477,14.1913099649606
7.106872550038514,1.4183649459446435,-0.5870922328900553,9.389274261934544,-51.95616866691894,15.693122460472424
7.121056199497961,0.898803259275454,-0.49319949027070986,9.546205486539268,-53.70334029875917,18.17564964279318
7.130044232090715,0.3617698562878623,-0.3977374354053172,9.7279619829672,-55.64887848369912,21.75228713725591
7.133661930653594,-0.19471892854912898,-0.3004578155756452,9.945484854339758,-57.93833496711435,26.552661208576883
7.131714741368103,-0.7741022782202724,-0.20100296703224763,10.211011466425527,-60.705135587422504,32.705978908783024
7.1239737185859,-1.3811536340944977,-0.09889285236799236,10.538071255513357,-64.01574545708476,40.27989406738382
7.110162182244955,-2.021311088665345,0.006487860187141203,10.940870196187195,-67.7352931547027,49.11125333745048
7.089949071358301,-2.698664020212372,0.11589656214901316,11.4319827295617,-71.21599462238673,58.39310856641123
7.062962431156177,-3.4108239664362396,0.23021638944463016,12.015913815225812,-72.64911548439653,65.79202185501106
7.028854191491814,-4.137315121280205,0.3503755275968883,12.673834033775922,-68.04088068214219,66.02150136439907
6.987481040279012,-4.817723928101627,0.4771138679346475,13.334049047419912,-50.864980642739525,50.28543107477654
6.939303800997996,-5.326373734529022,0.6104543584088467,13.836903358167678,-16.344462662762382,12.004727670343447
6.886040063652706,-5.489818361156646,0.7488233919905234,13.956950634871113,27.574480933333554,-38.33647044604819
6.831141880041139,-5.21407355182331,0.8883928983392345,13.573585930410632,60.3093851668011,-73.53110369955701
6.779001144522906,-4.610979700155299,1.0241287576433409,12.838274893415061,71.9598037216197,-81.2377239996231
6.7328913475213525,-3.8913816629391014,1.1525115065774916,12.02589765341883,70.01032422235605,-72.16296630447519
6.693977530891962,-3.191278420715541,1.27277048311168,11.304267990374079,63.63731110278313,-58.52306977833906
6.662064746684806,-2.55490530968771,1.3858131630154207,10.719037292590688,57.14006210685907,-45.68864663161364
6.6365156935879295,-1.9835046886191192,1.4930035359413276,10.262150826274551,51.75394767879411,-34.97218601367225
6.616680646701738,-1.4659652118311781,1.5956250442040731,9.912428966137828,47.59354622771615,-26.302842237193794
6.602020994583426,-0.9900297495540166,1.6947493338654513,9.64940054376589,44.47083734726818,-19.298257499227862
6.592120697087886,-0.5453213760813347,1.7912433393031102,9.45641796877361,42.157603400909615,-13.584641411969853
6.586667483327072,-0.12374534207223853,1.8858075189908463,9.320571554653911,40.453847732304006,-8.8666996952518
6.58543002990635,0.2807931352508015,1.9790132345373854,9.231904557701393,39.19728960417992,-4.927085526561254
6.588237961258858,0.6727660312926007,2.071332280114399,9.18263370243578,38.25760288996367,-1.6106016408704
6.594965621571784,1.0553420601922374,2.163158617138757,9.166527686027075,37.52850161217491,1.1916926414417612
6.605519042173706,1.4306270763139866,2.2548238939990277,9.178444612441494,36.92116421549779,3.5552828802561978
6.619825312936846,1.7998387184689646,2.3466083401234425,9.213997441244056,36.35960712031817,5.531981086910611
6.637823700121536,2.1634347896721464,2.438748314535883,9.269317252113161,35.77783384602774,7.1574241639911715
6.659458048018258,2.5212131281324237,2.5314414870570148,9.340891493753073,35.118420915411086,8.456970793953987
6.684670179299582,2.8723973372865346,2.6248504019945456,9.425461201692613,34.33219043948242,9.450460608703736
6.713394152672447,3.215719241681359,2.719105014011472,9.51996580777965,33.378623712292104,10.156077158029783
6.745551345089261,3.54950547880428,2.8143046720892686,9.621526579359948,32.226661119494864,10.593372516207534
6.781046399877304,3.871772089999229,2.910519937882868,9.727460304522022,30.855520076978415,10.785382053413958
6.819764120777296,4.180327290769013,3.007794540928088,9.835314125056161,29.255166568708614,10.75969448549293
6.861567393684986,4.4728789564561,3.10614768217865,9.94291106991109,27.426119972328067,10.54835332239527
6.906296183249547,4.7471401561793805,3.205576792877761,10.048394603135044,25.378369497903133,10.186550556567651
6.953767584811341,5.0009238511584115,3.3060607389091112,10.15026010870072,23.129331956301787,9.710215663341748
7.003776823322925,5.232217170721429,3.4075633399961185,10.247362265334138,20.70096402579242,9.152769869917528
7.056098995030139,5.439226810979354,3.51003696264946,10.338889964033314,18.11632229260766,8.54146444446182
7.110491263139933,5.62039003390543,3.6134258622897932,10.424304608477932,15.396002188825873,7.893813283434405
7.166695163478987,5.774350055793689,3.7176689083745726,10.503242741312276,12.554954184078932,7.214643274663584
7.224438664036923,5.899899597634478,3.8227013357876953,10.57538917405891,9.600164673433229,6.494225973361742
7.283437660013268,5.9959012443688104,3.9284552275282842,10.640331433792529,6.529614060659561,5.70784896244786
7.343396672456956,6.061197384975406,4.0348585418662095,10.697409923417007,3.332811619850091,4.817070805843455
7.4040086463067105,6.094525501173907,4.14183264110038,10.745580631475441,-0.006922101191870321,3.772803932612373
7.46495390131845,6.094456280161988,4.249288447415134,10.783308670801565,-3.5083957008227955,2.520281459801679
7.525898464120069,6.05937232315376,4.3571215341231495,10.808511485399583,-7.186854341468665,1.005850444465049
7.586492187351607,5.9875037797390736,4.465206648977145,10.818569989844233,-11.047040584552649,-0.814663108138791
7.646367225148998,5.877033373893547,4.573392348875587,10.810423358762845,-15.075732662681311,-2.966605514244671
7.705137558887933,5.726276047266734,4.6814965824632155,10.7807573036204,-19.234898944902742,-5.447224667514342
7.762400319360601,5.533927057817706,4.789304155499419,10.726285056945256,-23.456999757062917,-8.218062917248275
7.817739589938777,5.299357060247077,4.896567006068872,10.644104427772774,-27.64414592645098,-11.200966226601437
7.870733160541248,5.022915600982567,5.003008050346599,10.53209476550676,-31.67254909278578,-14.279585922902337
7.920962316551074,4.70619011005471,5.108328998001666,10.389298906277736,-35.40280704834912,-17.307488620644698
7.968024217651621,4.352162039571218,5.212221987064444,10.216224020071289,-38.69512590795617,-20.12253341757566
8.011545838047333,3.9652107804916565,5.3143842272651565,10.014998685895533,-41.4269864479288,-22.56537830294898
8.05119794585225,3.5509409160123684,5.414534214124112,9.789344902866043,-43.50965186979055,-24.498508810997762
8.086707355012374,3.1158443973144627,5.512427663152772,9.544359814756065,-44.89986734137487,-25.821728360544746
8.117865798985518,2.666845723900714,5.607871261300333,9.286142531150618,-45.60427982855674,-26.480916920956258
8.144534256224524,2.2108029256151465,5.700732686611839,9.021333361941055,-45.67609711411735,-26.4687504274434
8.166642285480675,1.754041954473973,5.7909460202312495,8.756645857666621,-45.2055144011481,-25.818208030587886
8.184182705025416,1.3019868104624919,5.878512478807916,8.498463777360742,-44.306722869230775,-24.591265281634435
8.19720257313004,0.8589195817701841,5.963497116581523,8.252551124544398,-43.10455135876519,-22.865732984496425
8.205791768947742,0.4278740681825322,6.046022627826967,8.023893794699434,-41.72314632394916,-20.722810508343716
8.210070509629567,0.01064260494304059,6.126261565773961,7.816665689615998,-40.27802296646052,-18.236978265617505
8.210176935678998,-0.3921376247215646,6.2044282226701215,7.634295906959823,-38.87178361681985,-15.4688194382045
8.206255559431783,-0.7808554608897631,6.28077118173972,7.479607712577778,-37.593077952578575,-12.460554551429146
8.198447004822885,-1.156786240415549,6.355567258865498,7.355002167063486,-36.518039771363675,-9.233610061536165
8.18687914241873,-1.5219666381291856,6.429117280536133,7.262666066448125,-35.71339820743174,-5.787389501021639
8.171659476037439,-1.879100620203503,6.501743941200614,7.204792171437909,-35.24059306060025,-2.0984781665674856
8.152868469835404,-2.2315065508095056,6.573791862914993,7.183807389772234,-35.16039078126176,1.88028889247256
8.130553404327308,-2.583110458622123,6.645629936812715,7.20261027869696,-35.53757575178158,6.221138122218572
8.104722299741088,-2.938486216139939,6.717656039599684,7.2648216599191455,-36.44512572973978,11.022709530831554
8.07533743757969,-3.302937473437337,6.790304256198875,7.375048755227461,-37.96657825204387,16.409897790195643
8.042308062845315,-3.6826032559577757,6.86405474375115,7.539147733129417,-40.193394936334556,22.52785468319929
8.005482030285737,-4.084537205321121,6.939446221082444,7.764426279961411,-43.20950284917689,29.519323719723545
7.964636658232526,-4.51663223381289,7.0170904838820585,8.059619517158646,-47.0444517299854,37.45946987612446
