th1 (rad),w1 (rad/s),th2 (rad),w2 (rad/s)
2.114675970511168,-0.7565476332679139,6.135690423812799,0.7623171875915321
2.107110494178489,-0.8570837823520654,6.143313595688714,0.717027144395605
2.0985396563549683,-0.9567856118200223,6.15048386713267,0.6740238198601706
2.088971800236768,-1.0556559569361874,6.157224105331272,0.633566015677245
2.078415240667406,-1.1537017870617514,6.163559765488045,0.5959112833097209
2.0668782227967886,-1.2509342553438931,6.169518878321142,0.5613159956274038
2.0543688802433495,-1.3473688476553398,6.175132038277416,0.5300353963583413
2.040895191766796,-1.4430256435874413,6.180432392240999,0.5023236312533809
2.026464935330922,-1.5379297023338396,6.185455628553533,0.4784337680876617
2.0110856383075837,-1.6321115863119517,6.19023996623441,0.45861781647109473
1.9947645224444641,-1.7256080354108185,6.194826144399121,0.44312676293348036
1.977508442090356,-1.818462804898315,6.199257412028456,0.4322106419096302
1.9593238140413727,-1.9107276803612596,6.203579518447552,0.42611866909641355
1.94021653723776,-2.002463683707461,6.2078407051385165,0.4250994702104443
1.9201919004006853,-2.0937424853792357,6.212091699840621,0.42940144547278397
1.899254475546893,-2.1846480397003996,6.216385714295349,0.4392733182301577
1.877407995149889,-2.275278462933103,6.220778447477651,0.45496492505880204
1.854655210520558,-2.3657481774363,6.225328096728239,0.47672831459109577
1.830997728746195,-2.45619035062875,6.23009537987415,0.5048192333117428
1.8064358252399075,-2.546759664662143,6.235143572207268,0.5394990889135893
1.7809682285932862,-2.637635462266065,6.240538563096404,0.5810374957943399
1.7545918739706254,-2.7290253266653837,6.246348938054347,0.6297155233277224
1.7273016207039715,-2.821169169383794,6.252646093287624,0.6858297861759981
1.6990899290101336,-2.914343919768962,6.259504391149385,0.7496975377333536
1.6699464898124439,-3.008868934833395,6.267001366526718,0.8216629534326493
1.63985780046411,-3.105112278017911,6.275217996061045,0.9021048206098363
1.608806677683931,-3.203498050942033,6.284239044267143,0.9914458859437615
1.5767716971745105,-3.3045150025483023,6.294153503126581,1.090164149125986
1.5437265471490276,-3.408726683150289,6.305055144617841,1.1988064290167189
1.5096392803175247,-3.516783451514941,6.317043208908008,1.3180045581858477
1.4744714458023753,-3.6294366699621343,6.330223254489867,1.448494566679597
1.438177079102754,-3.7475554127074444,6.344708200156663,1.591139162614401
1.4007015249756796,-3.8721459215580714,6.360619591782807,1.7469536407837123
1.361980065760099,-4.004373784461424,6.378089128190644,1.9171349267062554
1.3219363279154845,-4.145588222156995,6.397260477457706,2.1030925573203283
1.2804804456939145,-4.29734663542538,6.41829140303091,2.3064785678766073
1.2375069793396607,-4.461435104633669,6.441356188709676,2.529209666800519
1.192892628293324,-4.639875750457481,6.466648285377682,2.773468189937908
1.1464938707887493,-4.834902747167596,6.494382967277061,3.041655296394475
1.0981448433170733,-5.048871739243708,6.524799520241006,3.336245657641575
1.0476561259246362,-5.284036459230535,6.558161976817422,3.6594491105896623
0.9948157613323309,-5.542072925671479,6.594756467923318,4.01250947425595
0.939395032075616,-5.8231486388634215,6.6348815626658775,4.394354313892316
0.8811635456869819,-6.1242359045113455,6.6788251058048,4.799172594141159
0.8199211866418684,-6.436354762147307,6.726816831746212,5.212482116586617
0.7555576390203953,-6.740834936275465,6.778941652912078,5.60582688924867
0.6881492896576407,-7.006203078331941,6.834999921804565,5.932398442851158
0.6180872588743213,-7.190313790330927,6.894323906233076,6.130141203912996
0.546184120971012,-7.2538607832137165,6.955625318272206,6.141046700201702
0.4736455131388748,-7.183016449857113,7.017035785274223,5.943464799819097
0.40181534864030366,-7.001828066682543,7.076470433272414,5.569997013424287
0.33179706797347824,-6.758122973629026,7.132170403406657,5.087831651603692
0.26421583823718797,-6.497473387362027,7.183048719922694,4.561891060957129
0.1992411043635677,-6.249171482144117,7.228667630532265,4.034685183455752
0.13674938954212654,-6.026893115490218,7.269014482366822,3.526903204955115
0.07648045838722436,-5.834515646236455,7.304283514416373,3.0454286366481567
0.018135301924859813,-5.671044270312237,7.334737800782855,2.5902332765420626
-0.03857514077826255,-5.533494370166107,7.360640133548276,2.1584623945037102
-0.09391008447992362,-5.418304737923222,7.382224757493312,1.7464760397439956
-0.14809313185915585,-5.321946258195986,7.399689517890752,1.3507604383079765
-0.2013125944411157,-5.241141789423851,7.413197122273832,0.9682859982576878
-0.25372401233535424,-5.172913571429537,7.422879982256409,0.5966133000618568
-0.3054531480496496,-5.1145618157338975,7.428846115257027,0.23389181043556873
-0.3565987662069886,-5.0636217635562115,7.431185033361383,-0.12118277945367806
-0.40723498384255075,-5.017819777847006,7.429973205566847,-0.4694242314160539
-0.4574131816210208,-4.97503672966905,7.425278963252686,-0.8112133700305224
-0.5071635489177113,-4.933281379281192,7.4171668295523805,-1.146554187228367
-0.5564963627105233,-4.890673977048504,7.405701287680097,-1.475128132271335
-0.6054031024810083,-4.845439214700006,7.390950006357384,-1.7963473055225423
-0.6538574946280084,-4.795907167673488,7.372986533302159,-2.1094073460949754
-0.7018165663047432,-4.740520643656914,7.351892459841209,-2.4133404705933765
-0.7492217727413123,-4.677847251742582,7.327759055135275,-2.70706865816806
-0.7960002452587381,-4.606594481466589,7.300688368553595,-2.989456529397702
-0.842066190073404,-4.525626117766092,7.270793803259618,-3.259363108304627
-0.8873224512510649,-4.433978412644702,7.238200172176572,-3.515691422675944
-0.9316622353775119,-4.330874581628078,7.203043257949812,-3.75743479470819
-0.9749709811937927,-4.215736382863964,7.16546891000273,-3.983718689260869
-1.0171283450224322,-4.088191755863585,7.125631723110121,-4.193837096417436
-1.0580102625810681,-3.948077732629014,7.083693352145947,-4.387282600460099
-1.0974910399073583,-3.7954380769528546,7.039820526141346,-4.563769503678751
-1.135445420676887,-3.6305153534831693,6.994182831104559,-4.723249613125121
-1.1717505742117187,-3.45373737593239,6.946950334973308,-4.865920552570668
-1.2062879479710427,-3.26569823354139,6.8982911294476015,-4.992226727874171
-1.2389449303064566,-3.067134343569473,6.84836886216886,-5.1028533507428016
-1.2696162737421512,-2.8588962162029192,6.797340328661432,-5.198714209257744
-1.2982052359041805,-2.641916831064924,6.745353186568854,-5.2809341526772124
-1.3246244042148296,-2.417177690616111,6.692543845042082,-5.3508275148988105
-1.3487961811209908,-2.185673713328886,6.639035569893094,-5.409873912909292
-1.3706529182542797,-1.948378141042393,6.5849368307640015,-5.4596930010785645
-1.3901366996647035,-1.7062085519487753,6.530339900753216,-5.502019822315421
-1.4071987851841914,-1.4599948971090548,6.4753197025300615,-5.538682365655227
-1.421798734155282,-1.2104502311155325,6.419932878873509,-5.571582820742714
-1.4339032364664372,-0.9581445148053278,6.364217050666082,-5.602683826052417
-1.4434846816144906,-0.7034815668400254,6.308190212405558,-5.634000756336202
-1.450519497282891,-0.44667897536113266,6.251850204842196,-5.667600797132939
-1.4549862870365022,-0.18775060265913224,6.195174196870866,-5.705609203558332
-1.4568637930630937,0.07350870797751102,6.138118104835283,-5.750222693911914
-1.4561287059833186,0.3375363831135181,6.080615877896164,-5.803729277642487
-1.4527533421521834,0.6050128336193286,6.022578585119739,-5.868532739723556
-1.44670321381599,0.8768677610603841,5.9638932577225034,-5.947178076741545
-1.4379345362053864,1.1542775367987015,5.904421476955088,-6.0423706257960985
-1.4263917608373993,1.4386442306828933,5.843997770697127,-6.156975042616805
-1.4120053185305703,1.7315379696565296,5.7824280202709595,-6.293968204262583
-1.394689938834005,2.0345685116831707,5.7194883382283335,-6.456298400282432
-1.3743442537171733,2.349124855923499,5.654925354225509,-6.646565569798286
-1.3508530051579384,2.675878430150399,5.588459698527526,-6.8663765878202545
-1.3240942208564344,3.013886028346174,5.519795932649323,-7.11514516914737
-1.2939553605729726,3.3590784987373445,5.448644480957849,-7.388031845098338
-1.2603645755855992,3.7019839240304635,5.374764162506866,-7.672798609346032
-1.2233447363452945,4.024984479530612,5.298036176413405,-7.945967559959177
-1.1830948915499884,4.300681229293773,5.218576500813814,-8.170436360680146
-1.1400880792570507,4.494932222117796,5.136872137207012,-8.299478451744877
-1.0951387570358728,4.578181822817725,5.053877352689564,-8.292166036122818
-1.0493569388076955,4.541800403239255,4.970955692328335,-8.135733139413627
-1.003938934775303,4.405695183147581,4.889598360934198,-7.8559583573964105
-0.9598819829438271,4.207728878445158,4.811038777360234,-7.50263383410603
-0.9178046941593755,3.9851905217606354,4.736012439019174,-7.124356300890866
-0.8779527889417691,3.7639727797122715,4.664768876010265,-6.75406595521008
-0.8403130611446463,3.557977669495757,4.597228216458164,-6.408542377467766
-0.8047332844496887,3.3728761743786544,4.533142792683486,-6.0936817457954575
-0.7710045227059021,3.2098069171441974,4.472205975225531,-5.809550971230432
-0.7389064535344602,3.067783675492316,4.414110465513227,-5.5536149969175135
-0.708228616779537,2.9450050986533958,4.358574315544052,-5.322452644160725
-0.678778565793003,2.839494025843235,4.305349789102445,-5.11256607922759
-0.6503836255345706,2.7493797651829737,4.254224128310169,-4.92071695340195
-0.6228898278827409,2.67300396218009,4.20501695877615,-4.74403477268064
-0.5961597882609401,2.6089442572636563,4.157576611049343,-4.580023483251746
-0.5700703456883035,2.556002342664614,4.111776376216826,-4.426527437768203
-0.5445103222616574,2.5131786138835492,4.067511101839144,-4.281685180608836
-0.5193785361228219,2.4796435128037806,4.024694250033056,-4.14388359158888
-0.4945821009947841,2.4547097923202643,3.983255414117167,-4.011717430390813
-0.47003500307158147,2.4378071450753036,3.943138239813259,-3.883955918666561
-0.4456569316208284,2.428459354390559,3.904298680626593,-3.7595165504087547
-0.4213723380769228,2.4262635668380654,3.8667035151225058,-3.6374457928374015
-0.39710970240854215,2.4308710748077416,3.830329057194132,-3.51690622367148
-0.37280099166046476,2.44196895343442,3.7951599949574173,-3.3971696987047135
-0.34838130212612056,2.459261937737876,3.7611882979703704,-3.277616231420823
-0.3237886827487418,2.4824540214168693,3.728412135656162,-3.1577383259205787
-0.2989641425345731,2.5112294030060114,3.6968347523969562,-3.0371504922435566
-0.273851848504513,2.545232605749343,3.6664632474745207,-2.91560355597972
-0.24839952244701957,2.5840478672037612,3.6373072119147234,-2.7930031243925044
-0.22255904377498195,2.627178243747394,3.609377180670798,-2.669431169886506
-0.196287261337508,2.6740253043085493,3.582682868971933,-2.545169135597735
-0.1695470082944225,2.723870778071188,3.557231177615956,-2.4207202829059824
-0.14230830051371063,2.7758620254348227,3.533023974786896,-2.2968282556474535
-0.11454968025936241,2.8290036376234595,3.510055692230422,-2.174488154508787
-0.08625964388312782,2.8821577209506626,3.4883108106853338,-2.0549459777704535
-0.057438066673621196,2.934055348715059,3.467761350907629,-1.9396823104659604
-0.028097513186470607,2.9833211381189875,3.4483645278029695,-1.830376847743545
0.0017356981947192693,3.028511857089497,3.430060759325534,-1.7288518609653356
0.032020816765614246,3.068168416281709,3.412772240715881,-1.6369950449749333
0.06270250092843134,3.1008787235767947,3.3964022902661317,-1.556665095353851
0.09371128816419928,3.125346976821177,3.3808356393125933,-1.4895864058701132
0.12496475793241105,3.140463432343023,3.365939775253892,-1.437241847032253
0.1563693922558413,3.1453678832054415,3.3515673567835695,-1.4007740777613926
0.1878230710878957,3.139500256857052,3.3375596160059557,-1.38090581450385
0.21921807365646623,3.1226329340877315,3.3237505578609174,-1.3778878093764753
0.25044440299734355,3.0948814132611564,3.309971679767153,-1.3914802088350446
0.28139321712995513,3.0566924381109226,3.296056877678802,-1.4209690175324778
0.3119601415110644,3.0088112435429166,3.2818471875034776,-1.4652152773255804
0.3420482539464936,2.9522317516938785,3.267195034730222,-1.5227309746666562
0.37157057146343236,2.8881350756349056,3.2519677249835555,-1.591773141582328
0.40045192221978143,2.8178224080551653,3.236049993567732,-1.6704464087749817
0.4286301463003331,2.7426482779921373,3.219345529479982,-1.7568044382717658
0.45605662908025446,2.663959364076473,3.2017774850972645,-1.8489420127969214
0.4826962227210192,2.5830427607779143,3.1832880649692954,-1.9450717303684706
0.5085266503287983,2.5010860544259286,3.1638373476656105,-2.043581806247172
0.5335375108730576,2.4191500283450105,3.143401529603139,-2.1430739905062364
0.5577290111565076,2.3381534888028326,3.121970789698077,-2.2423827245617205
0.5811105460445359,2.2588687205094407,3.0995469624524596,-2.340578174589189
0.6036992332496304,2.1819254936185537,3.0761411807065677,-2.4369566296552856
0.6255184881858159,2.1078213306677895,3.051771614410015,-2.5310219960597737
0.6465967014924938,2.036935827306923,3.026461394449417,-2.6224618944367304
0.666966059765563,1.96954710706046,3.0002367755050496,-2.711121341177355
0.6866615308361677,1.9058488807232798,2.973125562093276,-2.7969763304552844
0.7057200196434005,1.8459669954980158,2.945155798788723,-2.880108953865181
0.7241796895983806,1.7899747422578391,2.9163547092500712,-2.9606850851552697
0.742079437020959,1.7379065102119382,2.8867478583985187,-3.03893516136054
0.7594585021230784,1.6897696253172876,2.8563585067849133,-3.1151382211894862
0.7763561983762512,1.6455543841115792,2.8252071245730184,-3.1896091086167826
0.792811742217367,1.6052424080133647,2.7933110334868507,-3.2626885952240556
0.8088641662975007,1.5688135074308143,2.7606841475346102,-3.33473609614563
0.8245523013718088,1.5362512731863578,2.727336786573154,-3.406124629603936
0.8399148141036724,1.5075476161016463,2.6932755402771145,-3.4772376802483076
0.8549902902646889,1.4827064630244484,2.6585031634746312,-3.5484676571082696
0.8698173548949334,1.4617467955578785,2.6230184869035487,-3.620215677001742
0.8844348228505122,1.4447051904219887,2.5868163301335314,-3.6928924458759416
0.8988818747547321,1.4316379898835014,2.549887405674772,-3.7669200482007508
0.9131982546535672,1.4226231974115604,2.5122182051927644,-3.8427344838488624
0.9274244866276828,1.417762156366608,2.473790860354276,-3.920788808854719
0.9416021081913489,1.4171810250257937,2.4345829722657286,-4.001556736286987
0.9557739184416069,1.4210320043064413,2.3945674049028587,-4.0855365295017405
0.9699842384846713,1.4294941968672807,2.3537120396078413,-4.173254962068161
0.9842791804533441,1.4427738651683455,2.3119794899871597,-4.265271010793985
0.9987069191050275,1.4611036923816925,2.26932677987922,-4.362178765809104
1.0133179560288443,1.4847404049399633,2.2257049922211287,-4.464608746479905
1.0281653600782439,1.5139597460344367,2.1810589047563296,-4.573226346066541
1.0433049575385882,1.5490472325797626,2.135326641295664,-4.688725405136674
1.0587954298643858,1.5902822945449953,2.0884393872442972,-4.811813809140524
1.0746982528098357,1.6379121647230623,2.040321249152892,-4.943186348741399
1.0910773744570663,1.6921101141080106,1.9908893856654781,-5.083477662309855
1.1079984755981465,1.7529101821669264,1.9400546090423796,-5.233184697139101
1.1255275774198157,1.820107434258947,1.8877227620709887,-5.392543744039901
1.1437286517624052,1.8931094228184087,1.8337973246305896,-5.5613422515286866
1.1626597459905894,1.970722449875215,1.7781839021153028,-5.73864230169163
1.1823669704893416,2.050859255113796,1.7207974790983864,-5.922395977630699
1.2028755630404795,2.130170855600238,1.6615735193220795,-6.108953724811844
1.2241772715964818,2.2036478290953094,1.6004839820739611,-6.292523615494487
1.2462137498874348,2.264320367701416,1.5375587459190163,-6.464753062390527
1.268856953564449,2.3033093843739083,1.472911215295111,-6.6147721498577985
1.291890047408188,2.310578631194671,1.406763493796533,-6.7301720501609354
1.3149958337201348,2.276642627742983,1.3394617732949237,-6.799263584716684
1.3377622599975647,2.19500703297423,1.271469137447757,-6.814309794972123
1.359712330327307,2.0643696608131443,1.2033260394980356,-6.7744101181413745
1.3803560269354385,1.889274726833138,1.135581938316622,-6.686271919547493
1.3992487742037698,1.6786701395314418,1.068719219121147,-6.562159538727466
1.4160354755990843,1.4431989627895772,1.0030976237338722,-6.416194155121628
1.43046746522698,1.1927027408270447,0.938935682182656,-6.261022557748319
1.4423944926352503,0.9348502014697913,0.8763254566051728,-6.106062014707679
1.4517429946499483,0.6748803153338467,0.815264836458096,-5.957258671008851
1.4584917978032867,0.41598408432849016,0.7556922497480075,-5.817683656872689
1.4626516386465716,0.15987951990218985,0.6975154131792807,-5.688355944751765
1.4642504338455935,-0.09266324974429296,0.640631853731763,-5.568969733037445
1.4633238013481507,-0.34142627376831275,0.5849421564013886,-5.458429404330802
1.4599095386104675,-0.5864751155620147,0.5303578623580806,-5.355204353997307
1.4540447874548472,-0.8279883127563928,0.4768058188181075,-5.257549024949952
1.4457649043272833,-1.0661547751971339,0.424230328568608,-5.163632761204025
1.435103356575312,-1.301115620476739,0.37259400095656775,-5.071613436640037
1.4220922003705445,-1.5329342769830783,0.32187786659016737,-4.979677944693119
1.4067628576007136,-1.7615844454011818,0.2720810871432362,-4.886064296043881
1.3891470131467019,-1.986949485555844,0.22322044418279738,-4.789074360460388
1.3692775182911434,-2.2088293548781497,0.1753297005781935,-4.68708258216937
1.347189224742362,-2.426952795079414,0.1284588747564998,-4.5785436468932765
1.322919696791568,-2.6409933836778903,0.08267343828756704,-4.462000590738311
1.296509762954789,-2.850588573360877,0.038053432380183924,-4.336093886235014
1.2680038772211804,-3.055361091552401,-0.00530750648216622,-4.199571412209019
1.2374502663056564,-3.254942167589378,-0.04730322060425641,-4.0512987888921845
1.2049008446297627,-3.4489960636721353,-0.08781620849317825,-3.890269268764243
1.1704108839930414,-3.637245354916985,-0.1267189011808207,-3.7156121813435607
1.1340384304438715,-3.8194963665832313,-0.1638750229942563,-3.5265988205409733
1.0958434667780392,-3.9956641569000646,-0.19914101119966604,-3.32264463109406
1.0558868252090385,-4.165796448660382,-0.23236745751060664,-3.1033065959035326
1.0142288607224348,-4.330095971702126,-0.263400523469642,-2.8682748502246436
0.9709279010054135,-4.488940783524179,-0.29208327197188844,-2.6173577530546996
0.9260384931701717,-4.642902278673356,-0.31825684950243543,-2.3504599328926052
0.8796094703834382,-4.792760757983697,-0.3417614488313615,-2.067553201248052
0.8316818628036012,-4.939518565955099,-0.362436980843842,-1.7686407134829376
0.7822866771440502,-5.084410848969579,-0.3801233879786714,-1.453715404322087
0.7314425686543544,-5.228913821320624,-0.39466054202189227,-1.1227146481353556
0.6791534304411482,-5.374749850816541,-0.4058876885032458,-0.7754745219526892
0.6254059319329828,-5.523887346559272,-0.4136424337227727,-0.4116894245848906
0.57016705846739,-5.6785307447759,-0.4177593279686216,-0.03088694903197675
0.513381751019631,-5.841090782775625,-0.41806819745894136,0.36756470252151163
0.45497084319187475,-6.014115884751032,-0.41439255043372625,0.7843862473436232
0.39482968434436444,-6.200148792032228,-0.40654868796029003,1.2201999379366284
0.33282819642404216,-6.401443934207537,-0.39434668858092375,1.6751315491396086
0.26881375708196675,-6.619435128172833,-0.3775953730895277,2.148044449678296
0.2026194058002384,-6.853779652098362,-0.35611492859274474,2.63516142725886
0.13408160927925478,-7.100748755882341,-0.32976331432015615,3.1277564677853373
0.06307412172043136,-7.3507927536540905,-0.2984857496423028,3.608691726883966
-0.010433805816109545,-7.585570611003088,-0.2623988323734631,4.048246481312373
-0.08628951192614043,-7.776084033408907,-0.2219163675603394,4.401619019595081
