th1 (rad),w1 (rad/s),th2 (rad),w2 (rad/s)
3.6966833057222033,3.05979201465239,3.0469760643719046,-1.0725765926127653
3.7272812258687273,3.1026995509909505,3.036250298445777,-1.0593630757534163
3.7583082213786367,3.146685464916675,3.0256566676882426,-1.04220830418983
3.7897750760278033,3.1917940083873493,3.015234584646344,-1.0208520756414325
3.8216930161116767,3.238092846400124,3.0050260638899298,-0.9950435205365394
3.8540739445756778,3.285670374060873,2.9950756286845643,-0.9645360585358602
3.8869306483162864,3.3346329968984527,2.9854302680992055,-0.9290823274701746
3.920276978285271,3.3851024752578267,2.9761394448245038,-0.8884292764983593
3.954128003037849,3.4372133906630817,2.9672551520595203,-0.8423135655465832
3.98850013694448,3.4911107529455196,2.9588320164040542,-0.7904573710538431
4.023411244473935,3.5469477332963892,2.9509274426935157,-0.7325646664413331
4.058880721806899,3.6048834806144447,2.9436017960291023,-0.6683180254895785
4.094929556613043,3.665080956125006,2.9369186157742067,-0.5973759876441241
4.131580366174293,3.7277047033407094,2.9309448558977653,-0.5193710251156238
4.1688574132077,3.792918455961185,2.925751145646609,-0.4339081610556285
4.206786597767312,3.860882474306218,2.9214120640360526,-0.3405643045092551
4.2453954225103745,3.9317504906338194,2.91800642099096,-0.23888838969272613
4.284712927416713,4.005666134860539,2.915617537094033,-0.12840243283605918
4.324769588765318,4.082758704857438,2.914333512765672,-0.008603647708831708
4.3655971758138925,4.163138140205046,2.9142474762885837,0.12103221085904897
4.407228557215943,4.2468890561380315,2.915457798397174,0.2610460798777705
4.449697447777323,4.334063697023245,2.9180682591959517,0.4119891803591016
4.493038084747556,4.424673678266565,2.922188150999543,0.5744147381475538
4.537284821530221,4.518680404713159,2.9279322983810183,0.7488676017501136
4.5824716255773525,4.615984085467787,2.9354209743985193,0.9358715417034915
4.62863146643203,4.716411312882677,2.944779689815554,1.1359140550022597
4.675795579560857,4.819701240361016,2.9561388303655765,1.349428565497958
4.723992591964467,4.92549048209575,2.9696331160205562,1.5767740120707887
4.773247496785424,5.033296969140519,2.985400856141264,1.8182119543978867
4.823580466476829,5.14250312954424,3.003582975685243,2.0738815022545634
4.875005497772272,5.252338912225913,3.0243217907077886,2.343772585487579
4.927528886894531,5.361865338136142,3.0477595165626643,2.6276983199955746
4.9811475402758925,5.469959427986581,3.07403649976262,2.9252674764388633
5.035847134555758,5.575301510491153,3.1032891745270086,3.235858303837687
5.091600149660669,5.676366044122269,3.1356477575653856,3.5585951769646913
5.148363810101892,5.771417174733293,3.1712337093350325,3.8923297014271045
5.206077981849225,5.858510289720763,3.2101570063493035,4.235628004667541
5.264663084746433,5.93550081012378,3.252513286395979,4.586765954801994
5.324018092847671,6.000061383779492,3.298380945943999,4.943733984525821
5.384018706685466,6.049708506916015,3.3478182857892573,5.304253068662645
5.444515791754626,6.08183940736779,3.4008608164758836,5.665803232514644
5.505334185828304,6.093779758203099,3.45751884880103,6.025665770906171
5.566271983410335,6.082842424912491,3.517775506510092,6.380980132249941
5.6271004076594595,6.046396927408122,3.5815853078325914,6.72881613201908
5.6875643769335404,5.981948545749125,3.6488734691527824,7.066261729818044
5.747383862391032,5.887224941734508,3.719536086450963,7.390525928504894
5.806256111808377,5.760266769160249,3.793441345736012,7.699055330566626
5.86385877949998,5.599517048645695,3.870431899041678,7.989661472232051
5.919853949986437,5.403902261754166,3.9503285137639983,8.260654329002067
5.973892972603979,5.172896495649051,4.032935057054019,8.510975602956032
6.025621937560469,4.906558985127351,4.1180448130835785,8.740324003535788
6.074687527411743,4.605535518912875,4.205448053118936,8.949264284989003
6.120742882600871,4.271015737007058,4.294940695968826,9.139312856310214
6.163453039970942,3.9046413807557743,4.3863338245319285,9.31299568256173
6.2024994537785,3.508364686102768,4.479463781357546,9.473878925910599
6.237583100639528,3.0842605508398977,4.574202570616651,9.626578855466772
6.2684257061479265,2.6342998628942653,4.670468359171319,9.77676412122723
6.294768704776869,2.1600935901331386,4.768236000383591,9.93116944372311
6.3163696406782,1.6626176503283498,4.867547694820822,10.097643896034782
6.332995817181484,1.14192816595234,4.9685241337811705,10.285257632023557
6.344415098841007,0.5968786677902208,5.071376710101406,10.504484899111485
6.35038388551891,0.024862934730244368,5.176421559092521,10.767460130449528
6.350632514866212,-0.5783522061804263,5.2840961603970165,11.088245660927909
6.344848992804407,-1.218526649298843,5.394978617006296,11.48289659573866
6.332663726311419,-1.902110750230464,5.509807582963682,11.968716805646373
6.313642618809115,-2.6334960915754215,5.629494751020146,12.561135977876583
6.28730765789336,-3.407608662755907,5.755106110798912,13.264468406101702
6.253231571265801,-4.192457383565892,5.887750794859929,14.04906798127316
6.2113069974301425,-4.896060243542331,6.02824147467266,14.806768643444574
6.162346394994719,-5.333804077900842,6.176309161107105,15.305551291481917
6.10900835421571,-5.283959965888907,6.3293646740219245,15.262193768914935
6.056168754556821,-4.70456639218298,6.481986611711074,14.631258875148808
6.009123090634991,-3.825321105856336,6.628299200462562,13.719751066611408
5.970869879576427,-2.8965265770634634,6.765496711128677,12.845301866620574
5.941904613805793,-2.027562027454473,6.893949729794882,12.131222357460022
5.9216289935312485,-1.2362281717575447,7.015261953369483,11.58254339710706
5.9092667118136735,-0.5110769123325478,7.131087387340553,11.17042924094505
5.904155942690348,0.163420595136342,7.242791679750004,10.86385049592487
5.905790148641712,0.8000811544382604,7.351430184709253,10.636848657658016
5.913790960186095,1.4079750440378231,7.457798671285833,10.468731219687495
5.927870710626473,1.9928190931014327,7.562485983482707,10.3428401173907
5.947798901557487,2.557586283009686,7.665914384656614,10.245360187726611
5.973374764387584,3.1030553559274954,7.76836798653388,10.164451934617546
6.004405317946859,3.6282758088374054,7.870012505880055,10.089699997665335
6.0406880760352335,4.130978409321581,7.970909505856708,10.011812934764137
6.08199786012845,4.607961261940089,8.07102763520435,9.92250904498569
6.128077472747851,5.055467372536906,8.170252725654207,9.81452988581167
6.17863214647322,5.469553886005999,8.268398024512324,9.681728540632632
6.23332768533328,5.846440320254084,8.36521530991865,9.519184360608122
6.2917920885358205,6.182815645789046,8.46040715352473,9.323302515720513
6.353620244993711,6.47608317577713,8.553640178681936,9.091866955930648
6.418381076751483,6.724527623962319,8.644558848241243,8.824029039354421
6.485626352991106,6.927398415938834,8.732799138634787,8.520228970815962
6.554900337150494,7.084914348774488,8.818001428342948,8.182060194689578
6.625749480638239,7.1982038459254385,8.899822030289844,7.812095263961759
6.697731519097494,7.269200183305427,8.977942982929461,7.4136942027922395
6.7704235209305486,7.300511566634763,9.052079924957383,6.9908135765115285
6.843428636596896,7.295282694887761,9.121988060722497,6.547828377534697
6.916381463545774,7.257059195714102,9.187466344497844,6.089371938238034
6.9889520555029145,7.189660921770962,9.248360063880224,5.620193522813705
7.060848664720624,7.0970659297170196,9.30456199910836,5.145030231143829
7.131819324017795,6.983304662518069,9.3560123014198,4.668489527540279
7.201652370642976,6.852363351574546,9.402697196695202,4.194940421564962
7.270176004158722,6.708096394792397,9.444646600910852,3.728413975266611
7.3372569681066455,6.554148698168185,9.481930740663518,3.2725162539863986
7.402798455088328,6.393890000500057,9.514655903203382,2.830358223822717
7.466737355093328,6.230363581495994,9.542959485441608,2.404507040539773
7.529040990908288,6.066251342875129,9.567004555847006,1.9969617721079929
7.58970350433704,5.903856191499071,9.586974173568086,1.6091543196927005
7.648742066252031,5.7451012608313725,9.603065716765013,1.2419737866137506
7.706193078860345,5.5915441429076145,9.61548545463115,0.8958103846817069
7.762108520289421,5.444403257702387,9.624443558477967,0.570613559384733
7.816552552866445,5.304592916604042,9.630149694071815,0.26595850177936337
7.869598482032485,5.172763557288747,9.632809279089608,-0.018884487946326134
7.921326117605372,5.049343948429185,9.632620434210144,-0.28488243875699165
7.971819557089664,4.9345827406517015,9.629771609822575,-0.533177410746921
8.02116538449618,4.828587425974921,9.624439835715105,-0.7650316676436939
8.06945125875593,4.731359439459208,9.616789519038669,-0.9817813857126477
8.11676485315052,4.642824712179616,9.606971705181543,-1.1847990353664968
8.163193100272316,4.5628594214989935,9.595123714827878,-1.3754638814442262
8.208821694487307,4.491310970697365,9.581369076013436,-1.555139575324673
8.25373480419428,4.428014371264765,9.565817680260189,-1.725157505987815
8.298014947906928,4.372804210785166,9.54856610520031,-1.8868043738569793
8.34174299001478,4.325522279416679,9.52969806146174,-2.0413122835849866
8.384998212808947,4.286020704214812,9.50928493862589,-2.1898494544700933
8.427858419851095,4.254160100200576,9.48738644408119,-2.333509358441257
8.4704000208531,4.2298017807726636,9.464051350496778,-2.4732956610903036
8.512698038660828,4.21279246997329,9.439318393885875,-2.610099723111008
8.55482596336056,4.202939238999388,9.413217396654765,-2.744666621560075
8.596855355750554,4.199971627032595,9.385770730439164,-2.8775447749458127
8.63885507202088,4.203487325649909,9.356995282689706,-3.0090136165989274
8.680889945277379,4.2128779177297515,9.326905146523716,-3.1389840779073386
8.723018724454676,4.227232970152624,9.295515305744642,-3.266869332645964
8.765291054156203,4.245225984848831,9.262846612418182,-3.391430708497561
8.807743314004691,4.264996635657969,9.228932305333206,-3.5106191505144557
8.85039328036127,4.284062268201473,9.193826113828061,-3.621458787281105
8.893233903043285,4.299316224552881,9.15761152595525,-3.720053714169892
8.936227065288813,4.30719042834931,9.120410988813552,-3.8018268674483
8.979298969572307,4.304050108441465,9.082392720139069,-3.8620859463960073
9.022339470656721,4.286818319828683,9.04377186067511,-3.896911811334676
9.065207653855008,4.253692773419187,9.004802742561763,-3.904173912936995
9.1077445815892,4.204685176608717,8.965761003432393,-3.8842910438851797
9.149791433355288,4.141711000291848,8.92691809299354,-3.8403535718033375
9.191208543358206,4.068149932471995,8.888514557275506,-3.7774960144621335
9.231890042682926,3.988068627328942,8.850739597130886,-3.7017924568179335
9.271770728956215,3.9054361420861876,8.813721672562707,-3.619142962041517
9.310825090377076,3.823585004658905,8.777530242942293,-3.5345090024869656
9.349060940423666,3.744986886015708,8.742185152917424,-3.451595408614571
9.386510809283823,3.6712712201501794,8.707669198831278,-3.372877251113705
9.423223521485324,3.603371946897439,8.67394042632014,-3.299808892191787
9.4592572409543,3.541710140840812,8.640942337398222,-3.233084328075286
9.494674342362707,3.4863608684234064,8.608611494117469,-3.1728753585110767
9.52953795104694,3.4371847792074677,8.576882740532358,-3.119019691664542
9.563909798839015,3.393923034425338,8.545692543615713,-3.071156789824719
9.59784902918327,3.356261672561401,8.514980975717465,-3.028819953340927
9.631411645908884,3.3238731628632987,8.484692776184056,-2.9914955393798133
9.664650377537516,3.296442045440741,8.454777820790259,-2.9586590451095947
9.697614797991923,3.2736799884806573,8.425191230339163,-2.9297955857076325
9.73035159787673,3.2553340821454366,8.395893274482086,-2.9044101663402833
9.762904938698185,3.241190982997312,8.366849172818684,-2.8820314406987
9.795316848528158,3.23107864328131,8.338028858411697,-2.862211401003232
9.82762763496097,3.2248667492986187,8.309406744401665,-2.8445225788791766
9.859876302453957,3.222466582071815,8.280961518612873,-2.828553756938259
9.892100968274676,3.223830740423005,8.25267598104349,-2.813904814392497
9.924339275678905,3.228952984525689,8.224536932899564,-2.800181094721241
9.956628805524161,3.2378683326627042,8.196535121952351,-2.7869875469836285
9.989007488850788,3.2506534504041147,8.168665246482515,-2.7739228281970645
10.021514023354829,3.2674272909350335,8.140926018200544,-2.760573547745876
10.05418829626418,3.288351862540658,8.113320282723086,-2.746508880869043
10.087071814889585,3.313632900530181,8.085855193914396,-2.7312758792668914
10.120208143894887,3.3435200925643778,8.058542435121728,-2.7143959713706702
10.15364334482053,3.378306334481995,8.031398475408022,-2.695363386341373
10.18742640816535,3.4183252645794586,8.004444841544608,-2.67364657053173
10.221609660811145,3.463946026967114,7.97770837583929,-2.6486941071098538
10.256249121080817,3.515563846774115,7.9512214347681915,-2.6199472019636127
10.291404759548557,3.573584578769901,7.925021962748556,-2.5868614376745427
10.327140605336256,3.6384009712682395,7.899153348371811,-2.5489411435573834
10.363524615048938,3.7103580883987677,7.873663936936237,-2.505790210028959
10.400628195932926,3.789705373416052,7.848606034835947,-2.457183170897446
10.438525249667087,3.8765335583845557,7.824034203126972,-2.403159377103402
10.477290585250932,3.9706965010536286,7.800002609355938,-2.3441403867604773
10.516997550261468,4.07172156839674,7.776561205488333,-2.2810655211915623
10.557714765945436,4.1787177042451775,7.7537505502764175,-2.215532374027004
10.599501942987887,4.290297504636009,7.731595226536148,-2.14991830795061
10.642404918034247,4.40453697679224,7.710096043456642,-2.087447792854023
10.686450287802169,4.519001097501412,7.6892215655281015,-2.0321633782531983
10.731640298777183,4.630860542320936,7.668899931745569,-1.9887615986094347
10.777948904200393,4.737111301643,7.6490123157594745,-1.96227501233767
10.825320017216823,4.834884101830489,7.629389565636098,-1.9576186575131118
10.873668858235128,4.921800451774528,7.6098133790609666,-1.9790651347487949
10.922886862752874,4.996308238402033,7.590022727713478,-2.0297500906380805
10.972849945136893,5.05792436946231,7.569725226807098,-2.1113200478483622
11.023429188831516,5.107330753400761,7.548612026328614,-2.2238076114469276
11.074502496365524,5.1463075470109585,7.526373950214145,-2.3657622971659027
11.125965571835634,5.177529701708832,7.502716327242486,-2.5346002918589905
11.177740868852721,5.204283653960227,7.477370324323896,-2.7270881134755567
11.229783705392324,5.2301713356406685,7.45009944318914,-2.9398585824318286
11.28208541874873,5.25885908748243,7.420700857364822,-3.1698727027756832
11.334674009623555,5.293907483716965,7.389002130337065,-3.414775953179557
11.387613084460725,5.338694582042297,7.35485437080527,-3.6731363473504453
11.441000030281147,5.396427299701362,7.318123007331765,-3.944582458707474
11.494964303278161,5.470226694409126,7.2786771827446906,-4.229877511113318
11.549666570222252,5.563272346937992,7.236378407633557,-4.53097190402027
11.605299293691631,5.678996332806723,7.191068688593354,-4.851075686554127
11.662089257019698,5.821325752322474,7.142557931727813,-5.194789397670713
11.720302514542922,5.994982379120677,7.090610037751106,-5.568329767460204
11.78025233833413,6.205856880149244,7.034926740076504,-5.979886875071986
11.842310907135621,6.4614798402060085,6.975127871325784,-6.440147794505557
11.906925705537681,6.771602178555643,6.910726393380728,-6.963003967905097
11.974641727323238,7.148841344834177,6.841096353701677,-7.566380147416826
12.046130140771579,7.609149701975015,6.765432552227509,-8.272845612728672
12.122221637791329,8.171231202694383,6.682704096100222,-9.108792914253701
12.203933949818273,8.85217041154528,6.591616166957685,-10.098373393490895
12.292455653933725,9.651555609664415,6.4906324330227765,-11.241410211629791
12.38897121003037,10.506541168729646,6.378218330906479,-12.450707905918028
12.494036621717667,11.20286177592724,6.253711251847299,-13.427671764330796
12.606065239476939,11.34485976236558,6.11943453420399,-13.620425824630525
12.719513837100594,10.717537778607268,5.983230275957685,-12.73002206137288
12.826689214886667,9.69589481667625,5.855930055343956,-11.279683086141757
12.923648163053429,8.733243926175657,5.743133224482539,-9.89849910985036
13.010980602315184,7.964973403470856,5.644148233384035,-8.772767690999991
13.090630336349893,7.373032219482948,5.556420556474035,-7.876617547747957
13.164360658544723,6.91554614957783,5.477654380996555,-7.151631584920761
13.233516120040502,6.558118702610089,5.406138065147347,-6.549871324699833
13.299097307066603,6.276233294428679,5.340639351900349,-6.03708831974729
13.36185964001089,6.05278970733735,5.280268468702876,-5.5893396771180415
13.422387537084264,5.875704301370434,5.2243750719316955,-5.189767013383124
13.481144580097968,5.7361964965261905,5.172477401797864,-4.826378087665221
13.53850654506323,5.62762702545263,5.1242136209212115,-4.490641494293795
13.594782815317757,5.544698647446835,5.079307205978274,-4.176632471451313
13.650229801792225,5.48288459769452,5.0375408812637605,-3.880536930029563
13.705058647769171,5.438004642895145,4.998735511963465,-3.600380682374968
13.759438694198122,5.4059103442106045,4.962731705139715,-3.3358835971600027
13.813497797640228,5.382272669130025,4.929372869168115,-3.0883501711324213
13.867320524331527,5.362487910880542,4.898489367456791,-2.860509507679559
13.920945403440331,5.341729088354067,4.869884272379995,-2.6562223379933396
13.974362694323872,5.315163450956265,4.8433220490000615,-2.4799955786775083
14.027514328833435,5.278327472131685,4.818522093213287,-2.3362972178452694
14.080297603554753,5.227602260884226,4.795159121034834,-2.228743438441568
14.132573626163595,5.160681917926242,4.772871686650418,-2.159311359719755
14.184180445342857,5.076902490718491,4.75127857305322,-2.1277734154862076
14.234949470250042,4.977322257895684,4.730000838898358,-2.1315183707611554
14.284722692828998,4.864514385851279,4.708685655190747,-2.1658191101322393
14.333367836687511,4.742122047016106,4.687027464089424,-2.2244715231902443
14.380789057157672,4.6142935445933935,4.6647827488575215,-2.30062450307357
14.426931992603606,4.48513366429088,4.641776503826786,-2.387591410442812
14.471783329246515,4.358277565439,4.617900589722358,-2.4794790195289695
14.515366104900904,4.236637380172451,4.593105799527068,-2.571556558369579
14.55773247870263,4.122316899481284,4.567390233943373,-2.6603719606147456
14.598955647697442,4.016654412794892,4.540786514337225,-2.743676601226519
14.639122191825392,3.920341932596449,4.51334974832496,-2.8202375321104447
14.678325611151356,3.8335746068373613,4.485147373003856,-2.889607224820533
14.71666135721973,3.756197854668868,4.456251300755651,-2.9518995187150345
14.754223335766419,3.6878342201405947,4.426732305568501,-3.0075983308081713
14.791101677967825,3.6279831997058904,4.3966563222604185,-3.0574086394241586
14.827381509964884,3.57609437853491,4.366082235866177,-3.1021486909157825
14.863142453750232,3.531617745719362,4.335060748957019,-3.1426772254261386
14.898458631207426,3.4940362031589443,4.303633976702758,-3.1798479613086514
14.933398993239015,3.46288509364592,4.271835497089672,-3.2144839924827164
14.968027844175474,3.437762796845991,4.239690657164845,-3.2473660065638716
15.002405472143934,3.4183355186126265,4.207216997099206,-3.2792296642209218
15.03658882733006,3.4043385471017364,4.1744247004569965,-3.3107687708609563
15.070632212801078,3.395575548906014,4.141317012748387,-3.3426419031420553
15.104587968290138,3.3919169371875815,4.1078905937169665,-3.375480912033972
15.138507137662014,3.39329793548248,4.074135784596627,-3.409900240851598
15.172440117016839,3.3997166471928337,4.0400367821881105,-3.4465063090520087
15.206437283488768,3.411232180296175,4.00557171909759,-3.485906350106514
15.24054960529173,3.4279626266560177,3.970712655596525,-3.5287160667255817
15.27482923155829,3.450082409004625,3.935425494929269,-3.575565269087456
15.309330055648335,3.4778181312213947,3.8996698422383944,-3.6271002544060873
