th1 (rad),w1 (rad/s),th2 (rad),w2 (rad/s)
0.7384982702019158,2.724259928227227,1.4649501793487525,-0.9675023660779083
0.7657408694841881,2.7131396061086557,1.4552751556879735,-1.1059368828327085
0.7928722655452747,2.7011639435053265,1.4442157868596464,-1.2408738292171644
0.8198839049803279,2.688148668999272,1.4318070485674748,-1.371973243470169
0.8467653916703206,2.673821727659046,1.4180873161327732,-1.4988109926246311
0.873503608946911,2.657814816517838,1.4030992062065268,-1.6208652950815687
0.9000817571120894,2.6396569800088567,1.3868905532557112,-1.7375062283403933
0.9264783269121779,2.6187722042386286,1.3695154909723073,-1.8479909122697542
0.9526660489545642,2.594483524630726,1.3510355818496098,-1.9514678250693107
0.9786108842008715,2.5660265598009473,1.3315209035989166,-2.046994223201824
1.004271149798881,2.5325753289633735,1.3110509613668984,-2.133570514259316
1.0295969030885148,2.4932823536372077,1.2897152562243053,-2.210194193854008
1.054529726624887,2.4473330806893343,1.2676133142857653,-2.275933186470977
1.0790030574317804,2.394011535222316,1.2448539824210556,-2.330014059915501
1.1029431727840036,2.3327702617302286,1.2215538418219005,-2.371915249507473
1.1262708754013058,2.2632941236546147,1.1978346893268257,-2.4014506578682107
1.148903816637852,2.1855459341123895,1.1738201827481436,-2.4188269245815537
1.170759275978976,2.0997835189835135,1.149631913502328,-2.4246601285335125
1.1917571111688112,2.0065429427295776,1.125385312216993,-2.4199450308212493
1.211822540596107,1.9065899539880855,1.1011858619087804,-2.4059803081585445
1.2308884401359879,1.800848721431059,1.077126058827195,-2.3842630135264367
1.2488969273502986,1.690321124954824,1.0532834286919306,-2.356371226082484
1.2658001385998467,1.5760100327530513,1.0297197164311058,-2.3238538644951743
1.2815602389273772,1.4588566979494044,1.006481177786154,-2.2881417951176632
1.2961488059068713,1.339697425359813,0.9835997598349774,-2.2504872132790377
1.3095457801604695,1.2192399010748995,0.961094887702187,-2.2119315186794486
1.3217381791712186,1.0980562656118764,0.9389755725153925,-2.1732972523195104
1.3327187418273374,0.9765884591869302,0.9172425999921975,-2.1351975299973813
1.3424846264192067,0.8551612422449245,0.8958906246922237,-2.0980563019450473
1.351036238841656,0.7339990170785602,0.8749100616727732,-2.0621338559810853
1.3583762290124415,0.6132436203021446,0.8542887231129623,-2.027553510374617
1.364508665215463,0.49297127268536683,0.8340131880092162,-1.9943269183698789
1.3694383779423167,0.37320769365021783,0.8140699188255174,-1.962376592196594
1.3731704548788188,0.2539409701363552,0.7944461529035515,-1.931555093315882
1.3757098645801824,0.1351321388339753,0.7751306019703926,-1.9016608663182828
1.3770611859685222,0.016723647339735748,0.7561139933072099,-1.8724509899269945
1.3772284224419196,-0.10135404501934105,0.7373894834079399,-1.8436512543533672
1.3762148819917261,-0.2191774400716741,0.7189529708644062,-1.8149640104379334
1.3740231075910094,-0.3368262738005391,0.7008033307600269,-1.786074216306587
1.370654844853004,-0.4543808476841401,0.682942588596961,-1.7566540605119938
1.3661110363761626,-0.5719202149218139,0.665376047991841,-1.7263664844031557
1.3603918342269445,-0.6895210559701723,0.6481123831478095,-1.6948678706413196
1.3534966236672428,-0.8072571117390881,0.6311637044413964,-1.6618101143131654
1.345424052549852,-0.9251990712939182,0.6145456032982647,-1.6268422500237152
1.3361720618369128,-1.0434148336109703,0.5982771807980275,-1.5896117731411015
1.3257379135008032,-1.1619700799995136,0.5823810630666165,-1.5497657657335826
1.314118212700808,-1.2809291055702887,0.5668834054092807,-1.5069519171819348
1.301308921645105,-1.4003558648926773,0.5518138862374614,-1.4608195155495844
1.2873053629961784,-1.520315188864229,0.5372056910819656,-1.4110204784106481
1.2721022111075362,-1.6408741266758018,0.5230954862978591,-1.3572104912522642
1.2556934698407782,-1.7621033581021321,0.5095233813853364,-1.2990503286020334
1.2380724362597568,-1.8840786062442583,0.496532878099316,-1.2362074491786446
1.2192316501973142,-2.0068819577906645,0.48417080360752957,-1.1683579839610236
1.1991628306194075,-2.1306029646117395,0.47248722376791935,-1.095189278512053
1.1778568009732902,-2.255339353886252,0.4615353309827988,-1.016403212889843
1.1553034074344277,-2.381197109634991,0.45137129885390037,-0.9317206103618744
1.131491436338078,-2.508289600748211,0.4420540927502816,-0.8408871681266925
1.1064085403305959,-2.63673531201732,0.4336452210690147,-0.7436815095788202
1.0800411872104227,-2.766653576559491,0.4262084059732265,-0.6399261802477354
1.0523746514448278,-2.8981575009738774,0.41980914417074916,-0.5295027006623516
1.023393076435089,-3.031343010828434,0.4145141171641256,-0.4123721581706944
0.9930796463268046,-3.1662726225562423,0.4103903955824187,-0.28860326463968605
0.9614169201012421,-3.302952184288084,0.4075043629360218,-0.1584103008419586
0.9283873982583613,-3.4412984740399906,0.4059202599276022,-0.022203831117231898
0.8939744135179614,-3.5810953186428973,0.4056982216164299,0.1193426760128583
0.8581634603315323,-3.721936039102655,0.40689164837655845,0.26520749507321756
0.8209440999405058,-3.8631509617967854,0.4095437233272906,0.41391522023669686
0.7823125903225379,-4.003721132850631,0.4136828755296576,0.5634135674641505
0.7422753789940315,-4.142184146585173,0.4193170112042991,0.710941778771972
0.7008535375281798,-4.276546058372794,0.4264264289920188,0.8529118062409684
0.6580880769444518,-4.404224874774492,0.4349555470544285,0.9848401643402662
0.6140458281967069,-4.5220640694987155,0.4448039486978312,1.1013869434585613
0.5688251875017198,-4.626462743376885,0.4558178181324168,1.1965699194178192
0.522560560067951,-4.713661166568139,0.46778351732659496,1.264209684239888
0.47542394840226965,-4.780184060985317,0.4804256141689938,1.2986083243903312
0.4276221077924165,-4.823377201042828,0.49341169741289714,1.2953666884983377
0.3793883357819882,-4.8418993611098236,0.5063653642978805,1.2521378179979072
0.33096934217088997,-4.836000490207011,0.5188867424778596,1.169067697311857
0.28260933726881987,-4.8074704117515275,0.5305774194509781,1.048750477598954
0.2345346331513046,-4.759268053304563,0.5410649242269677,0.8957070881379581
0.18694195261825897,-4.694965801095109,0.5500219951083473,0.715578544059936
0.1399922946073079,-4.618190982124736,0.5571777805489466,0.5142978915113385
0.09381038478606052,-4.5322027970717915,0.56232075946406,0.2974455163624611
0.0484883568153426,-4.439656349657592,0.5652952146276846,0.06986905260394213
0.004091793318766683,-4.342532755150658,0.565993905153724,-0.16445662432013974
-0.03933353423273989,-4.2421808766875575,0.5643493389105226,-0.40240435051842083
-0.08175534299961547,-4.139415751652439,0.5603252954053384,-0.6415826129596804
-0.12314950051613985,-4.034633804106438,0.5539094692757416,-0.8801944019848321
-0.16349583855720423,-3.927921918498759,0.5451075252558932,-1.1169011398314315
-0.20277505774219182,-3.8191502783046287,0.533938513857579,-1.350707453797107
-0.2409665605252381,-3.7080466022042615,0.5204314393196079,-1.5808711919497616
-0.2780470265472807,-3.594253221360928,0.5046227274001103,-1.8068372413118463
-0.31398955876088996,-3.4773698425423603,0.4865543549869918,-2.0281913495938593
-0.34876325718631357,-3.3569849918270163,0.4662724414910532,-2.2446296555012126
-0.38233310710458374,-3.232698750617657,0.44382614493604106,-2.455939980156023
-0.4146600946107603,-3.104138864688429,0.4192667451344808,-2.6619915667976635
-0.4457014832576446,-2.970971807607706,0.3926468294665042,-2.862730610971423
-0.47541120133372167,-2.8329099805836604,0.36401952335679,-3.058179490889307
-0.5037403011395583,-2.6897159467156935,0.33343772844789693,-3.2484380565524975
-0.5306374606067152,-2.541204422275641,0.30095334788237194,-3.4336856670907245
-0.5560495048294717,-2.387242668818175,0.2666164912114647,-3.614182887315098
-0.5799219315176535,-2.227749937483719,0.2304746623383137,-3.7902718723456155
-0.6021994308924906,-2.0626967063007795,0.19257194361485755,-3.962374480713547
-0.6228263979554984,-1.8921046255555805,0.1529481988077221,-4.130987048136945
-0.6417474442110542,-1.716048356653257,0.11163832832635263,-4.296670500927476
-0.6589079277775868,-1.5346608757732592,0.06867162331707788,-4.460034052815321
-0.6742545365353194,-1.3481443399202648,0.024071282788924668,-4.621710066813291
-0.6877359799345221,-1.1567893015379227,-0.022145817879208246,-4.782316732374576
-0.6993038729499013,-0.9610059063168778,-0.069968985202954,-4.942403996071698
-0.7089139320130701,-0.761371644261819,-0.11939302516367098,-5.102376772770856
-0.7165276484556883,-0.5587010107315891,-0.17041679289137954,-5.262388153726518
-0.7221146585630042,-0.3541425070641876,-0.22304067442864473,-5.422194866225648
-0.7256560836336461,-0.14930661385061497,-0.2772626230909012,-5.580969188766942
-0.7271491497721523,0.05357735807265876,-0.33307231497857065,-5.7370687158044955
-0.7266133761914257,0.2514903860969018,-0.3904430021366156,-5.88778210398843
-0.7240984723304568,0.44047679237950743,-0.4493208231764999,-6.029099995218966
-0.7196937044066617,0.6155932080781226,-0.5096118231286896,-6.155606775606718
-0.7135377723258804,0.7710610981165166,-0.5711678908847567,-6.26063863058227
-0.7058271613447152,0.9007400065079053,-0.6337742771905794,-6.3368688340915655
-0.6968197612796362,0.99897590975846,-0.6971429655314951,-6.377399281933633
-0.6868300021820516,1.0617115840177092,-0.7609169583508315,-6.377212799205061
-0.6762128863418745,1.0875227834705934,-0.8246890863428822,-6.334539417701466
-0.6653376585071685,1.078130656450357,-0.8880344805198969,-6.251536030625859
-0.6545563519426649,1.0381047708346158,-0.9505498408261555,-6.133899714488783
-0.6441753042343188,0.9738642767208948,-1.0118888379710433,-5.989563373148743
-0.6344366614671099,0.8924163274758494,-1.0717844717025309,-5.827062878874021
-0.6255124981923513,0.8002978793863081,-1.1300551004912711,-5.654192224543442
-0.6175095193984882,0.7029592509917125,-1.1865970227367055,-5.477251602148882
-0.6104799268885711,0.6045732905987674,-1.2413695387581944,-5.300853463789582
-0.6044341939825835,0.5081238908398015,-1.2943780733960903,-5.128083936242238
-0.5993529550741854,0.41562103146598856,-1.3456589127585128,-4.960814974804479
-0.5951967447595256,0.3283388876266219,-1.3952670625065575,-4.800032652666855
-0.5919133558832593,0.24702560795851727,-1.4432673890332262,-4.646117681534115
-0.5894430998036742,0.17206819983287625,-1.4897285658485673,-4.499060201693889
-0.5877224178053454,0.10361366912693391,-1.534719167865506,-4.35861336712115
-0.5866862811140761,0.04165422374761184,-1.5783053015367177,-4.2243980390927325
-0.5862697388765999,-0.013914585264548335,-1.620549281927645,-4.095971493501512
-0.5864088847292455,-0.06325508960972595,-1.6615089968626602,-3.9728709302424927
-0.5870414356253427,-0.10656214794524044,-1.7012377061650852,-3.8546399179489623
-0.5881070571047952,-0.14404688407200708,-1.7397841053445748,-3.7408435638238853
-0.5895475259455152,-0.17592648753827128,-1.7771925409828138,-3.631076388103921
-0.5913067908208979,-0.20241799930474444,-1.813503304863853,-3.5249655765356094
-0.5933309708139454,-0.2237346803929763,-1.848752960629209,-3.4221713781276857
-0.5955683176178751,-0.2400840275649742,-1.8829746744104858,-3.3223858018996246
-0.5979691578935249,-0.25166681696821425,-1.9161985324294821,-3.225330357360562
-0.600485826063207,-0.2586767700589101,-1.9484518360030878,-3.1307533137140204
-0.6030725937637961,-0.2613005788955782,-1.979759369140228,-3.038426776275339
-0.6056855995527518,-0.2597181229872799,-2.0101436369029813,-2.9481437638426438
-0.6082827807826247,-0.2541027729387334,-2.0396250745414077,-2.8597153966454143
-0.610823808512012,-0.2446217177341973,-2.068222228507862,-2.7729682569722076
-0.613270025689354,-0.23143627974873335,-2.095951911077584,-2.6877419543956225
-0.6155843884868413,-0.2147021992301926,-2.1228293306215402,-2.6038869085929557
-0.6177314104791432,-0.1945698812472272,-2.14886819970747,-2.521262351130783
-0.6196771092916155,-0.17118460508627756,-2.1740808232187776,-2.439734540648074
-0.6213889553424783,-0.1446867002403845,-2.1984781686252584,-2.3591751819488667
-0.6228358223448821,-0.11521169543187923,-2.222069920444747,-2.279460037508605
-0.6239879392992009,-0.08289044820165792,-2.244864520819833,-2.2004677191021917
-0.6248168437812175,-0.04784926291998246,-2.2668691980108546,-2.122078647223343
-0.6252953364104173,-0.010210004924248166,-2.288089984483088,-2.0441741663946473
-0.6253974364596598,0.0299097819330022,-2.308531726147035,-1.9666358051823365
-0.6250983386403298,0.07239674760512443,-2.328198084198858,-1.8893446706134305
-0.6243743711642786,0.11714159193767582,-2.3470915309049922,-1.8121809676726381
-0.6232029552449019,0.16403889903329427,-2.3652133405817186,-1.7350236355857198
-0.621562566254569,0.2129869449942228,-2.3825635769375757,-1.6577500936443434
-0.6194326968046268,0.26388747468020035,-2.399141077874019,-1.580236090373177
-0.6167938220578247,0.31664544360658764,-2.4149434387777506,-1.5023556508660008
-0.6136273676217588,0.3711687215469755,-2.4299669952864105,-1.42398111810864
-0.6099156804062891,0.4273677548057484,-2.4442068064674967,-1.3449832850470587
-0.6056420028582316,0.48515518450302686,-2.457656639317967,-1.2652316150323986
-0.6007904510132013,0.5444454185840274,-2.470308955468291,-1.1845945490626049
-0.595345996827361,0.605154155646207,-2.4821549009589168,-1.1029398989219925
-0.589294455270899,0.6671978590909822,-2.493184299948137,-1.0201353258729162
-0.5826224766799891,0.7304931805733046,-2.503385653206866,-0.9360489049529985
-0.5753175448742561,0.7949563322627797,-2.512746142256396,-0.8505497751510346
-0.5673679815516284,0.860502408064224,-2.521251640007906,-0.7635088757479891
-0.5587629574709861,0.9270446546916253,-2.5288867287653862,-0.6747997688900258
-0.5494925109240699,0.9944936943625715,-2.5356347264542864,-0.5842995479836324
-0.5395475739804442,1.0627567018914237,-2.5414777219341227,-0.49188983074746806
-0.52892000696153,1.1317365401145847,-2.5463966202415973,-0.3974578347059601
-0.5176026415603842,1.2013308588790867,-2.550371198588657,-0.3008975315581681
-0.5055893329715933,1.2714311642572316,-2.5533801739042383,-0.2021108752047095
-0.49287502132902095,1.3419218661965464,-2.5554012826562853,-0.10100909628124997
-0.47945580266705545,1.412679314446841,-2.5564113736190976,0.0024859461397571114
-0.46532900952258704,1.4835708342846696,-2.5563865141577002,0.10844036740846975
-0.45049330117974035,1.5544537752291911,-2.5553021104836153,0.21690682897623498
-0.4349487634274484,1.6251745875516839,-2.553133042193853,0.327923095732777
-0.41869701755193156,1.6955679428556107,-2.549853811236525,0.4415105983742404
-0.4017413381233754,1.765455916272774,-2.5454387052527827,0.5576730225445887
-0.3840867789606477,1.8346472488119978,-2.539861975027337,0.6763949485799355
-0.3657403064725277,1.9029367090448108,-2.5330980255415376,0.797640567370376
-0.3467109393820796,1.9701045735662355,-2.525121619867834,0.9213524990301516
-0.32700989364641725,2.0359162454974653,-2.5159080948775325,1.0474507416522887
-0.3066507311914426,2.100122029698415,-2.5054335874610096,1.1758317773732336
-0.28564951089445845,2.1624570823629927,-2.4936752696872775,1.30636786229096
-0.2640249400708285,2.222641551346441,-2.480611591064368,1.43890652553033
-0.2417985245573641,2.2803809220262004,-2.4662225258090644,1.573270301060627
-0.21899471533710207,2.3353665818596703,-2.450489822798458,1.7092567139343313
-0.19564104951850536,2.387276615226506,-2.4333972556591146,1.8466385406798127
-0.1717682833662403,2.435776838782348,-2.4149308702523165,1.9851643619252877
-0.14741051497841684,2.4805220865330764,-2.3950792266330634,2.124559424244348
-0.12260529411308607,2.5211577532377607,-2.3738336323906197,2.2645268279483983
-0.09739371658070847,2.5573216045516123,-2.351188364111136,2.4047490582820057
-0.07182050053519234,2.588645862396176,-2.327140873528316,2.544889879246323
-0.045934041911230586,2.6147595741161194,-2.301691974735853,2.684596611946639
-0.019786446170069392,2.6352912736119607,-2.2748460086163864,2.8235028225761116
0.006566466566050217,2.6498719412258445,-2.246610980390625,2.9612314483086695
0.03306518597830867,2.658138265963535,-2.2169986659075382,3.097398391638122
0.059646568637944014,2.6597362078307842,-2.186024681991157,3.2316166140195373
0.08624393071625186,2.6543248488072497,-2.153708515850962,3.3635007568642474
0.11278717920432435,2.641580507538636,-2.1200735082823194,3.4926723108215776
0.1392029842797107,2.621201074698547,-2.0851467851741035,3.6187653418091936
0.16541499502669618,2.5929105030474577,-2.0489591317560114,3.741432763736211
0.19134410005717076,2.556463358930626,-2.011544804118649,3.860353123162933
0.216908733646477,2.511649311408776,-1.97294127288702,3.975237830882398
0.24202522676056476,2.4582974032374754,-1.9331888945781959,4.085838741134133
0.2666082007929395,2.39627991704874,-1.8923305071668546,4.1919559434047065
0.2905709999634269,2.3255156234633634,-1.8504109477328075,4.29344559801258
0.31382615619806054,2.2459721789049447,-1.8074764917526815,4.390227619141383
0.33628587798710996,2.157667432939074,-1.7635742155612677,4.482292992286013
0.3578625523165007,2.0606694107862187,-1.7187512856384075,4.56971051170319
0.3784692464243629,1.9550947579078826,-1.6730541805213757,4.652632741200269
0.39802019400344174,1.841105470305349,-1.626527853109373,4.731301040946371
0.4164312487064952,1.7189037845335213,-1.5792148426999093,4.80604956466459
0.43362028655183044,1.5887251615211917,-1.5311543470532634,4.877308214237858
0.44950753816704236,1.4508293623609765,-1.4823812649108847,4.945604639105019
0.46401583179065214,1.3054896751906464,-1.4329252185198345,5.011565480880236
0.4770707285425586,1.1529804024305963,-1.382809563711032,5.0759171834902235
0.4886005325668646,0.9935627495732067,-1.3320503918761297,5.139486809801707
0.49853616006259666,0.8274692643060673,-1.2806555237781128,5.203203422016036
0.5068108527056573,0.6548869540350996,-1.2286234895579524,5.268100691295033
0.5133597222460082,0.47593915992925406,-1.175942482645002,5.335321499971607
0.5181191138453007,0.29066618949025314,-1.122589267645286,5.406125385874769
0.5210257757402033,0.09900461585745526,-1.0685280137865383,5.481899749811929
0.5220158218987778,-0.09923494262467425,-1.013709016288419,5.564175794786097
0.5210234724725311,-0.3043918136706716,-0.9580672583405581,5.654650164048203
0.5179795543358244,-0.5169812616647287,-0.901520756700076,5.755213136010809
0.5128097417191771,-0.7377224889131303,-0.843968625339968,5.867983891037478
0.5054325168300459,-0.9675680415959488,-0.7852887864295932,5.995352527811506
0.49575683641408635,-1.2077326005870264,-0.7253352611514782,6.140026651827004
0.4836795104082161,-1.4597161574623139,-0.6639349946332082,6.3050764469989105
0.46908234883359295,-1.7253105401610163,-0.600884230163219,6.493964134034293
0.4518292434319828,-2.006566301744914,-0.5359445888228761,6.710527663740073
0.43176358041453367,-2.3056737621304566,-0.46883931218547537,6.958856920626012
0.4087068427932291,-2.6246679851108436,-0.39925074297921526,7.242940241038807
0.38246016294212065,-2.9647878332828768,-0.32682134056882717,7.5658485201354875
0.35281228460929187,-3.3251885861862918,-0.2511628553674723,7.92804085044674
0.319560398747429,-3.700541474788235,-0.1718824468630049,8.324138107359452
0.28255498399954665,-4.077014974237535,-0.08864106578941039,8.737440531301475
0.2417848342571713,-4.426826174466205,-0.001266660476395634,9.132396215135175
0.19751657251250923,-4.704298127411507,0.09005730167495613,9.448999596314499
0.15047359123839416,-4.851659668800016,0.18454729763810113,9.610432883627
0.101956994550394,-4.8236223514034355,0.28065162647437114,9.556409767839451
0.053720771036359645,-4.6202604974838675,0.37621572415276566,9.287785361590947
0.007518166061520969,-4.292040105418594,0.4690935777686751,8.872824700640287
-0.03540223499266497,-3.906284201005347,0.557821824775078,8.401091417183293
-0.07446507700271844,-3.513729028072687,0.641832738946911,7.938428133642599
-0.1096023672834453,-3.1407666822887936,0.721217020283337,7.517389888319222
