th1 (rad),w1 (rad/s),th2 (rad),w2 (rad/s)
2.2565951381739664,-2.260450604768386,1.3865771847190307,2.1016715823504546
2.2339906321262823,-2.354193404044272,1.4075939005425353,2.1048313672366024
2.2104486980858398,-2.450978281532543,1.4286422142149013,2.114471070154788
2.185938915270514,-2.5511813018063862,1.4497869249164492,2.1308929949568025
2.1604271022524504,-2.655157379593134,1.4710958548660173,2.1543628500302496
2.133875528456519,-2.7632200884768285,1.49263948336632,2.1850770448715386
2.1062433275717507,-2.875612325228998,1.5144902538150353,2.2231163496899327
2.0774872043194605,-2.9924650421415646,1.5367214173119346,2.268381904975736
2.047562553898045,-3.1137412138921134,1.559405236361692,2.3205095349951717
2.016425141759124,-3.2391630082019014,1.5826103317116436,2.378759520938532
1.9840335116771048,-3.368122595161157,1.606397926921029,2.4418825956380967
1.9503522857254934,-3.499582284541545,1.6308167528774098,2.50797054599352
1.9153564628800779,-3.6319788412415615,1.655896458337345,2.574313050485499
1.8790366744676623,-3.7631600154665628,1.6816395888422,2.6373014078623815
1.8414050743129966,-3.8903957105724105,1.7080126029208238,2.6924405926214274
1.8025011172072725,-4.010513649938217,1.7349370088470382,2.7345419630314374
1.7623959807078904,-4.120196205070209,1.7622824284773526,2.758150366223505
1.7211940186571884,-4.216428686213593,1.7898639321395877,2.758193319634582
1.6790297317950524,-4.297014318484488,1.8174458653359336,2.730732443721689
1.6360595886102076,-4.36100302957131,1.8447531897731504,2.673598951217864
1.5924495583144944,-4.408875270737779,1.871489179285329,2.5866845055180736
1.5483608056071165,-4.442405990456703,1.8973560243405097,2.4717763058624675
1.5039367457025494,-4.4642665723577775,1.9220737873991343,2.332013732249286
1.4592940799789718,-4.477518696200495,1.9453939247216272,2.171182439462608
1.4145188930169668,-4.4851597948834945,1.9671057491162534,1.9930729475000821
1.369667295068132,-4.489813836151472,1.9870364785912542,1.8010396234977817
1.324769156706617,-4.49358173662936,2.005046874826232,1.597784130563713
1.2798333393403234,-4.498015288858767,2.021024716131869,1.385315347675212
1.2348531864517358,-4.504164181123016,2.0348778696086214,1.1650163011751007
1.1898115446405055,-4.512653821942483,2.0465280326203725,0.9377590324491613
1.1446850064210807,-4.52376684758431,2.0559056229448642,0.7040290225765059
1.0994473379452376,-4.537514570282906,2.0629459131706294,0.4640393062745396
1.0540721922424086,-4.55369352108216,2.0675863062333746,0.21782679988683748
1.0085352570315869,-4.571927100551959,2.069764574232243,-0.034669846433054735
0.9628159860260672,-4.591694506356977,2.0694178757679125,-0.29354857883132834
0.9168990409624974,-4.61234975310554,2.066482389979599,-0.5588953305682791
0.870775543431442,-4.633133533186293,2.0608934366739162,-0.8307455683386946
0.8244442080995791,-4.653180335365409,2.0525859809905294,-1.1090537142476506
0.7779124047459249,-4.671522858546638,2.041495443848053,-1.3936688773294037
0.7311971761604585,-4.6870954178845246,2.0275587550747587,-1.6843159884501695
0.6843262219816133,-4.698737758993205,2.010715595190257,-1.9805819858269431
0.6373388443916812,-4.705200462412738,1.9909097753319875,-2.2819071315716197
0.5902868397675538,-4.705152912447792,1.9680907040162714,-2.587581852764513
0.5432353106430758,-4.697194597665677,1.9422148854886263,-2.89674969644562
0.49626336466641907,-4.679870283102536,1.91324738852417,-3.2084170687566997
0.4494646618353937,-4.651689330125191,1.8811632178366031,-3.5214703960865044
0.40294776853414177,-4.611149129251276,1.845948513875738,-3.8347012039567936
0.35683627724162903,-4.55676225235385,1.8076015018361702,-4.1468393652853734
0.3112686547180905,-4.487086530841865,1.7661331081833165,-4.456594438048639
0.26639778940967185,-4.400756842483804,1.72156716380283,-4.762704616403215
0.2223902209848338,-4.296516968084476,1.6739401176387978,-5.063992392018274
0.17942505130398903,-4.1732494957256465,1.6233001937186151,-5.359425606583848
0.13769255634673255,-4.030001447235245,1.5697059376527767,-5.6481822233773
0.0973925418743801,-3.8660031251042977,1.5132241154190036,-5.9297169111442365
0.05873251062333712,-3.68067767338682,1.4539269463075613,-6.203827470972407
0.021925733889468918,-3.473639052411545,1.3918886715978371,-6.4707192870760295
-0.012810656634646533,-3.2446765747680395,1.3271814787270768,-6.731066357675503
-0.045257422382326926,-2.9937248641567384,1.2598708151503217,-6.9860680233179515
-0.07519467102389431,-2.7208191170455196,1.1900101349171421,-7.237501132083494
-0.1024028621943495,-2.426036964390834,1.1176351235963071,-7.48776779592743
-0.12666323183825784,-2.109430291183483,1.0427574456370328,-7.739938581927832
-0.14775753475009268,-1.7709536488137188,0.9653580598177545,-7.997788967443611
-0.16546707123822987,-1.410401634222473,0.8853801701433184,-8.265821300735748
-0.1795710875804546,-1.0273783719016598,0.802721957135961,-8.549251732363189
-0.1898448712994712,-0.6213430824905661,0.7172294398123291,-8.853914603892921
-0.19605830212437686,-0.19181622415086413,0.6286902937733999,-9.185982290605946
-0.1979764643658855,0.26109244752988003,0.5368304708673405,-9.551292881018083
-0.19536553989058672,0.7355354219166705,0.4413175420571597,-9.953886383231769
-0.18801018567142003,1.225649347346195,0.341778678224842,-10.393048702623991
-0.17575369219795808,1.7174405456415518,0.23784819119860207,-10.857859591130694
-0.15857928674154256,2.1824240869783442,0.12926959528729512,-11.31858003577027
-0.13675504587175913,2.5708426775661923,0.01608379492959243,-11.717172622072614
-0.1110466190960972,2.8124847009308787,-0.1010879312911337,-11.967636126932046
-0.08292177208678841,2.8393639183692563,-0.22076429256045416,-11.985411984032227
-0.054528132903095855,2.6299389027083144,-0.34061841240077645,-11.745436135816439
-0.02822874387601271,2.2328004053839474,-0.45807277375894084,-11.312181817931426
-0.005900739822173238,1.733493591526189,-0.5711945919382551,-10.794183369395215
0.011434196093088652,1.2040952666106886,-0.6791364256322072,-10.278063723200805
0.023475148759195538,0.6850046575255763,-0.7819170628642153,-9.807114698364774
0.0303251953344513,0.19267150599388333,-0.879988209847863,-9.39357382130627
0.03225191039439013,-0.26881763850411466,-0.9739239480609256,-9.034626195358193
0.029563734009348988,-0.7003913003400231,-1.0642702100145076,-8.722027155406394
0.022559821005948756,-1.1044557964851385,-1.1514904815685716,-8.446475499111704
0.011515263041097372,-1.4834353715506707,-1.2359552365596886,-8.199269382905317
-0.003319090674409336,-1.8392649429058836,-1.3179479303887418,-7.972791687293921
-0.021711740103468172,-2.173283703619777,-1.397675847261681,-7.760550668678781
-0.043444577139665944,-2.4862856893239056,-1.4752813539484688,-7.55707977363678
-0.068307434032905,-2.7786247056585744,-1.5508521516848366,-7.357813482113228
-0.09609368108949075,-3.050331832586143,-1.6244302865059688,-7.158978406465083
-0.12659699941535218,-3.301228941306796,-1.6960200705706197,-6.957508122260474
-0.15960928882842015,-3.531031725063015,-1.7655951517932245,-6.7509788866961635
-0.1949196060790503,-3.7394395644920513,-1.833104940660186,-6.537559997197048
-0.23231400172397082,-3.926210941407022,-1.8984805406321565,-6.315972318272294
-0.27157611113804103,-4.09122369378615,-1.9616402638148795,-6.085449517506765
-0.31248834807590253,-4.234519814428574,-2.0224947589899473,-5.845697991781795
-0.35483354622018826,-4.356334951044735,-2.0809517389077654,-5.596852972401783
-0.39839689573063564,-4.457113290642658,-2.1369202686317834,-5.339429692146522
-0.4429680286370622,-4.537509053299614,-2.1903145655532485,-5.074269676900569
-0.48834311917005835,-4.598376308343848,-2.241057262322254,-4.802483133926655
-0.5343268822534968,-4.640749199287902,-2.289082093661521,-4.525389028149366
-0.5807343742463758,-4.665814886436518,-2.3343359839430144,-4.244454776887077
-0.6273925231107409,-4.67488157817906,-2.3767805317118853,-3.9612375848126176
-0.6741413388925315,-4.669343935650354,-2.4163929075600117,-3.6773293308941266
-0.720834778249035,-4.650647927151689,-2.453166200868953,-3.3943066593924307
-0.7673412575205518,-4.6202569117345735,-2.4871092674628774,-3.1136875682564695
-0.8135438266378976,-4.579620379876707,-2.518246143145442,-2.836895376081147
-0.8593400304366646,-4.530146404701118,-2.5466150969062538,-2.565230522283583
-0.9046414944836758,-4.473178486644224,-2.5722674021290897,-2.2998502467015642
-0.9493732793501181,-4.409977129626779,-2.5952659045961055,-2.041755830228677
-0.9934730506463858,-4.341706184081675,-2.6156834628983923,-1.7917867765528999
-1.0368901124872025,-4.269423742821,-2.633601330663921,-1.5506210888262806
-1.0795843499154125,-4.194077185664837,-2.649107541552184,-1.3187806492917191
-1.121525121772061,-4.116501839053098,-2.662295348045101,-1.0966406427203363
-1.162690140162592,-4.037422644180057,-2.6732617544723043,-0.8844419680776182
-1.2030643666043925,-3.9574582046866356,-2.6821061741530805,-0.6823056446538526
-1.2426389486512588,-3.8771266034130507,-2.688929230599619,-0.4902483237852967
-1.2814102146853894,-3.7968524268281576,-2.6938317138374717,-0.3081981493544814
-1.319378738953671,-3.716974505223776,-2.6969136953310167,-0.1360103545870796
-1.3565484840059088,-3.637753957273129,-2.6982737988768877,0.026517873393808622
-1.39292602357864,-3.559382211368889,-2.6980086201429496,0.17963359594129066
-1.428519845692329,-3.481988757425083,-2.6962122841835368,0.32361560968560477
-1.4633397332665798,-3.4056484575882733,-2.6929761280866806,0.4587633384226514
-1.4973962178424627,-3.3303883102974283,-2.6883884947024543,0.5853871755181153
-1.530700100945437,-3.2561936184817117,-2.6825346229472733,0.703800268057371
-1.5632620371302541,-3.1830135595257816,-2.6754966202666997,0.8143116989816741
-1.5950921727255118,-3.110766192737838,-2.6673535032768827,0.9172210050776758
-1.6261998346528903,-3.039342970500177,-2.658181293226106,1.0128139639305709
-1.656593264357892,-2.968612843141204,-2.6480531535868,1.10135958861851
-1.686279392789304,-2.898426065670057,-2.637039557700615,1.1831082817122627
-1.7152636534460046,-2.8286178272363505,-2.6252084748834927,1.2582911166058808
-1.7435498317183682,-2.75901183128442,-2.612625563717434,1.3271202306656127
-1.7711399500312124,-2.6894239549213985,-2.5993543614107777,1.3897903271325232
-1.7980341895804264,-2.6196661083486465,-2.5854564581394524,1.446481286753978
-1.8242308506639129,-2.549550397054973,-2.5709916452719126,1.4973618810798313
-1.8497263546344627,-2.4788936582939822,-2.556018026461114,1.5425945526569262
-1.8745152912174026,-2.4075223969124653,-2.540592080934545,1.5823411792063335
-1.8985905151865272,-2.335278082755119,-2.5247686691424818,1.6167696674009036
-1.9219432960140783,-2.2620226937846315,-2.508600972468473,1.646061128573122
-1.9445635229519247,-2.1876443002890658,-2.4921403611827415,1.670417279995135
-1.9664399659548153,-2.1120623949979453,-2.47543618838279,1.6900676038147404
-1.9875605899047948,-2.0352325949889374,-2.4585355123446426,1.7052757000834184
-2.0079129158546842,-1.957150290715878,-2.4414827553438085,1.7163442139621954
-2.027484418761843,-1.8778528127443452,-2.4243193132041867,1.7236177242283042
-2.046262946889286,-1.7974197416528863,-2.4070831359619036,1.7274830694464338
-2.064237144305815,-1.7159711063235308,-2.3898083052674393,1.7283667662900546
-2.0813968553690505,-1.6336633931815445,-2.372524637604539,1.726729430443379
-2.097733489300866,-1.5506835025421564,-2.355257343300105,1.7230574137135786
-2.1132403243262874,-1.4672410054204816,-2.3380267691629695,1.7178521752430258
-2.127912734380492,-1.3835592376365886,-2.3208482474105394,1.7116181577620215
-2.1417483267568582,-1.2998658848947007,-2.3037320658329192,1.704850096128968
-2.1547469856058052,-1.2163837427920785,-2.2866835648716295,1.6980207181062814
-2.166910823033726,-1.133322277446847,-2.2697033576905667,1.6915697050719243
-2.178244045808195,-1.0508704813560372,-2.2527876606398474,1.6858945867040476
-2.1887527506217554,-0.9691913434292758,-2.235928714772807,1.6813439894335476
-2.198444664056048,-0.8884180645938171,-2.2191152748784715,1.678213390321792
-2.2073288447019865,-0.808651980183349,-2.2023331409752536,1.6767432873064294
-2.21541536450382,-0.7299620178002313,-2.1855657081021893,1.677119511733153
-2.2227149846818226,-0.6523854337721251,-2.168794512984858,1.679475292230748
-2.2292388390195437,-0.5759295320713365,-2.1519997600625502,1.6838946286459988
-2.234998134340257,-0.5005740690399083,-2.13516081377609,1.6904165395156883
-2.240003875030656,-0.42627407444683496,-2.118256648380933,1.6990397902851637
-2.2442666157751243,-0.35296286286848455,-2.1012662504780812,1.7097277756531268
-2.2477962444038093,-0.28055505930451013,-2.08416897272155,1.7224133039325427
-2.250601794996854,-0.20894951204869766,-2.0669448396822245,1.7370031038238642
-2.2526912901173413,-0.1380320095354315,-2.049574808643986,1.7533819380461868
-2.2540716102126956,-0.06767775388408535,-2.032040989263524,1.7714162607262696
-2.2547483877515364,0.0022464284239829407,-2.0143268266562613,1.7909573956084193
-2.2547259234672965,0.07188013836937715,-1.9964172527001771,1.8118442408854094
-2.254007122083603,0.1413677051021207,-1.978298810291323,1.833905525456049
-2.2525934450325815,0.21085671402408912,-1.9599597550367625,1.8569616526798243
-2.2504848778923408,0.28049673690231247,-1.9413901385099641,1.880826173171555
-2.247679910523318,0.3504382377326813,-1.9225818767782485,1.905306929578973
-2.244175528145991,0.4208316290837957,-1.9035288074824588,1.9302069150276537
-2.239967211855153,0.4918264558664403,-1.8842267383321822,1.9553248841008548
-2.2350489472964887,0.5635706863473207,-1.8646734894911736,1.980455751661757
-2.2294132404330154,0.6362100933704791,-1.8448689319745561,2.0053908110985783
-2.2230511394993107,0.709887711909271,-1.8248150238635703,2.0299178000658076
-2.215952262380218,0.7847433620863392,-1.8045158458629122,2.0538208387506014
-2.2081048287593545,0.8609132295791583,-1.7839776374754062,2.076880263251545
-2.199495696463563,0.9385294978323896,-1.7632088348428907,2.0988723748851257
-2.190110401485239,1.0177200287126165,-1.7422201110940394,2.1195691251550124
-2.179933201198113,1.0986080901675934,-1.7210244198424893,2.1387377557263627
-2.168947120296437,1.1813121310947823,-1.6996370422852256,2.156140413027823
-2.157133998985489,1.2659456049782971,-1.6780756381549473,2.171533758047197
-2.144474542935706,1.3526168448972284,-1.6563603005744754,2.1846685934979497
-2.1309483744867337,1.4414289931918927,-1.6345136146394958,2.195289532845215
-2.116534084554815,1.5324799893100711,-1.6125607193110436,2.2031347387645495
-2.101209284661714,1.6258626190047203,-1.5905293719233982,2.2079357625931317
-2.084950658471667,1.7216646269148028,-1.5684500142974669,2.2094175214259204
-2.067734012202519,1.8199688923448396,-1.5463558390832077,2.2072984560142968
-2.0495343232790706,1.9208536643718095,-1.5242828545230647,2.201290920982721
-2.0303257866353523,2.024392846716919,-1.5022699453132375,2.191101869709691
-2.010081858168183,2.13065631441337,-1.4803589266161405,2.176433910378255
-1.9887752950240496,2.239710232240519,-1.458594587512358,2.156986828351313
-1.9663781927016444,2.351617327951058,-1.437024719228845,2.1324596947257564
-1.9428620194221338,2.466437049899474,-1.4157001222815875,2.10255371372101
-1.918197648923139,2.584225506751944,-1.3946745851443774,2.0669760051185855
-1.8923553938556195,2.705035043965353,-1.3740048250931916,2.025444575639702
-1.865305043415966,2.8289132545478406,-1.3537503793367944,1.977694809000966
-1.8370159108704875,2.9559011466159726,-1.3339734312467848,1.923487903100514
-1.8074568994043279,3.0860300935199088,-1.3147385522157797,1.862621809211137
-1.7765965984691288,3.219317070225841,-1.2961123341236684,1.7949453861953322
-1.7444034277668703,3.3557575302920006,-1.278162880261715,1.720376673660346
-1.7108458524639503,3.4953151034467522,-1.2609591135251117,1.638926405779793
-1.6758927014294827,3.6379071056278334,-1.2445698494673139,1.5507281124718129
-1.6395136303732043,3.7833846791962134,-1.2290625683425958,1.456076341507157
-1.6016797835812422,3.9315062776863567,-1.2145018049275242,1.35547459524542
-1.5623647208043787,4.081903280230175,-1.2009470589750701,1.2496943516639503
-1.521545688002077,4.234036937054255,-1.1884501154584306,1.1398457748230553
-1.4792053186315344,4.387146866703992,-1.1770516577102001,1.0274590356206377
-1.4353338499644945,4.540193286637406,-1.1667770673539937,0.9145720687682664
-1.3899319170981206,4.691798413113468,-1.157631346666311,0.803815589996362
-1.343013932966986,4.840197181486836,-1.1495931907663475,0.6984790812730034
-1.2946119611521176,4.983213205008342,-1.1426083999536174,0.6025328824492338
-1.2447798291020342,5.1182811468527145,-1.1365830711291252,0.5205738763810475
-1.1935970176335071,5.242538215984097,-1.1313773323653147,0.4576603150147115
-1.141171635473666,5.353000741228327,-1.1268007292151676,0.419011881753058
-1.0876416280613828,5.446822864343876,-1.122610610397637,0.40957983145384697
-1.033173399417944,5.521604306397578,-1.1185148120830986,0.43353755598445093
-0.9779573563539682,5.575682782739245,-1.114179436523254,0.49378963972605877
-0.9222005285265757,5.608331621507867,-1.1092415401259934,0.5916212787231327
-0.8661172123114971,5.6197998407491525,-1.103325327338762,0.7265867747061533
-0.8099192139040056,5.611179365233562,-1.0960594595917004,0.8966663593814127
-0.7538074202516699,5.584140483634617,-1.0870927959978862,1.0986361619550942
-0.6979660154153238,5.540613133385697,-1.0761064343783353,1.3285393863647805
-0.6425598840814668,5.4824929434285545,-1.0628210405146874,1.5821412039848286
-0.5877349546471813,5.411424219683618,-1.046999628474839,1.8552865534533376
-0.5336207124503451,5.3286768234389,-1.0284467629403058,2.144130962824768
-0.48033394421595615,5.2351068133605665,-1.007005453312058,2.44525501538023
-0.42798287608235047,5.13117784048143,-0.9825529031582557,2.75569348388084
-0.37667109767753615,5.017019078655732,-0.9549959683194473,3.0729133572688365
-0.3265009068909788,4.892500423911838,-0.924266834746759,3.3947686227283977
-0.27757590265186044,4.757312228305441,-0.890319148519475,3.719450375207385
-0.23000278036880603,4.611042498469519,-0.8531246447674011,4.0454423341278805
-0.18389235538411083,4.453248548712991,-0.8126702214261223,4.371485443800317
-0.13935986989698093,4.28352273237822,-0.7689553669881192,4.696550854545466
-0.09652464257319873,4.101553582758572,-0.7219898584426645,5.019817646636443
-0.05550910674561301,3.9071849892043344,-0.6717916819763001,5.340649521088619
-0.016437256853569664,3.700477330145216,-0.618385186765414,5.658562787992614
0.020567516447882496,3.481776073753369,-0.5617995588854878,5.973175913488082
0.055385277185416186,3.251795383492387,-0.502067799750607,6.284128373217177
0.08790323102034006,3.0117266420653985,-0.4392265160184352,6.590953594730427
0.11802049744099405,2.763383985812815,-0.3733169800711309,6.892887903555553
0.1456543372991222,2.5093994399471486,-0.30438810103557534,7.188596371839724
0.17074833169859369,2.253475819835507,-0.23250213731717811,7.475801414924271
0.19328308989694876,2.0006901297406166,-0.1577441231679354,7.750818919019229
0.21328999119435493,1.7578043680998645,-0.0802359339777431,8.00805239308756
0.23086803487535357,1.5334748167870584,-0.0001554100468675046,8.239581896070106
0.24620278304322415,1.3381576719440662,0.08224040891383357,8.435109619372913
0.2595843597626648,1.1834303038329388,0.1665915051075627,8.582634226654916
0.2714186628009942,1.080492970128721,0.2524178473741119,8.670176735155446
0.2822235925022814,1.037927523187175,0.3391196147256663,8.688481213354539
0.29260286773415317,1.0593605094070249,0.4260044268592117,8.633869918603011
0.30319647282822343,1.1421255022549113,0.5123431260452418,8.509850527433645
0.3146177278507725,1.2777595710132017,0.5974416313195783,8.326422123211758
0.32739532356090456,1.4541581750638612,0.6807058525516959,8.097347503867054
0.3419369053115432,1.6582869204624464,0.7616793275903665,7.836835259477976
0.3585197745161677,1.8783073307348293,0.8400476801851462,7.557073858523824
