th1 (rad),w1 (rad/s),th2 (rad),w2 (rad/s),a1 (rad/s^2),a2 (rad/s^2)
2.0186001557557534,3.015620774228601,1.6914532477229876,-1.9351515194998794,-11.262369160870147,3.858574461227889
2.0487563634980392,2.9029970826198994,1.6721017325279888,-1.8965657748876006,-11.048003560873672,3.6234796878313125
2.077786334324238,2.7925170470111627,1.6531360747791128,-1.8603309780092874,-10.761778617219935,3.252005889238652
2.1057115047943498,2.6848992608389635,1.63453276499902,-1.8278109191169007,-10.430657294873741,2.7862549245696826
2.1325604974027392,2.580592687890226,1.616254655807851,-1.799948369871204,-10.076694892967634,2.2608904963783103
2.1583664242816414,2.4798257389605496,1.598255172109139,-1.7773394649074208,-9.71697200716597,1.7030023390334441
2.1831646816712467,2.38265601888889,1.5804817774600648,-1.7603094415170863,-9.364114621412131,1.1328461367789209
2.2069912418601354,2.2890148726747688,1.562878683044894,-1.748980980149297,-9.027057951234514,0.5649562912885222
2.229881390586883,2.1987442931624237,1.545388873243401,-1.7433314172364118,-8.711841371111007,0.009317531371609906
2.251868833518507,2.1116258794513136,1.5279555590710368,-1.7432382419226957,-8.42232455611356,-0.5275691537859808
2.27298509231302,2.027402633890178,1.5105231766518097,-1.7485139334605555,-8.160782169674318,-1.0417923265118259
2.293259118651922,1.945794812193435,1.493038037317204,-1.7589318567256738,-7.928372330912751,-1.5313176133004758
2.3127170667738564,1.8665110888843075,1.4754487187499474,-1.7742450328586785,-7.725492188721649,-1.9954395875327255
2.3313821776626993,1.789256166997091,1.4577062684213606,-1.7941994287340057,-7.552040321665138,-2.4343705837681355
2.34927473933267,1.7137357637804396,1.4397642741340206,-1.8185431345716871,-7.407605974091395,-2.848937967300704
2.3664120969704743,1.6396597040395255,1.4215788427883038,-1.8470325142446942,-7.291602730498683,-3.2403644529700175
2.3828086940108695,1.5667436767345386,1.4031085176458569,-1.8794361587743944,-7.203360980434582,-3.610110506483063
2.398476130778215,1.4947100669301927,1.384314156058113,-1.915537263839225,-7.1421903409317435,-3.9597623132423356
2.413423231447517,1.4232881635208752,1.3651587834197207,-1.9551348869716483,-7.1074204532308904,-4.290952691395077
2.4276561130827257,1.3522139589885662,1.3456074345500042,-1.998044413885599,-7.0984263507752825,-4.605305492774341
2.441178252672611,1.2812296954808133,1.3256269904111482,-2.0440974688133426,-7.114642875471133,-4.904396503668189
2.4539905496274192,1.2100832667261021,1.3051860157230148,-2.0931414338500245,-7.155571321143713,-5.189725727558274
2.4660913822946804,1.138527553514665,1.2842546013845146,-2.1450386911256074,-7.220780520563367,-5.462697321746014
2.477476657829827,1.0663197483090314,1.2628042144732585,-2.1996656643430677,-7.309903887059887,-5.724604478294776
2.4881398553129173,0.9932207094384325,1.2408075578298279,-2.2569117091260154,-7.422633408948138,-5.976617278630924
2.4980720624073016,0.9189943753489511,1.2182384407385678,-2.3166778819123244,-7.55871122418286,-6.219772083428811
2.5072620061607913,0.8434072631071226,1.1950716619194446,-2.3788756027466125,-7.717919135665278,-6.454961401355236
2.5156960787918625,0.7662280717504698,1.1712829058919785,-2.443425216760165,-7.900066236395247,-6.682923454561983
2.523358359509367,0.6872274093865174,1.1468486537243767,-2.5102544513057845,-8.104974678132564,-6.9042308576345555
2.5302306336032325,0.6061776626051918,1.1217461092113188,-2.57929675988213,-8.332463523489107,-7.119277974270771
2.5362924102292843,0.5228530273703007,1.0959531416124975,-2.6504895396248376,-8.582330560230345,-7.3282666307529345
2.5415209405029873,0.43702972176799726,1.0694482462162491,-2.723772205932367,-8.8543319224663,-7.53118996165971
2.5458912377206673,0.34848640254333424,1.0422105241569255,-2.799084105548964,-9.148159353630106,-7.727814252730914
2.5493761017461005,0.25700480900703315,1.0142196831014358,-2.876362248076273,-9.463414960168222,-7.9176587378436825
2.551946149836171,0.16237065940535092,0.9854560606206731,-2.95553883545471,-9.799583343937147,-8.099973409755297
2.5535698564302245,0.06437482596597945,0.9559006722661261,-3.036538569552263,-10.15600106798377,-8.273715024586174
2.5542136046898842,-0.037185184713858246,0.9255352865706035,-3.1192757197981247,-10.53182350816294,-8.437521623892838
2.5538417528427457,-0.14250341979548764,0.8943425293726223,-3.203650936037053,-10.925989275833231,-8.589686070345373
2.552416718644791,-0.25176331255381995,0.8623060200122518,-3.2895477967405067,-11.337182568419356,-8.728129296586578
2.5498990855192525,-0.3651351382380135,0.8294105420448467,-3.3768290897063724,-11.763794017739992,-8.850374202623815
2.5462477341368723,-0.48277307841541345,0.795642251147783,-3.4653328317326104,-12.203880861535266,-8.953521402693355
2.541420003352718,-0.6048118870307662,0.7609889228304568,-3.554868045759544,-12.655127559287303,-9.0342283112021
2.5353718844824105,-0.7313631626236392,0.7254402423728614,-3.645210328871565,-13.114808302313786,-9.088693356748365
2.528058252856174,-0.8625112456467771,0.6889881390841458,-3.7360972624390487,-13.57975321719057,-9.112647404154599
2.5194331403997063,-0.9983087778186828,0.6516271664597553,-3.8272237364805948,-14.046320410153754,-9.101354719866867
2.5094500526215193,-1.1387719819202202,0.6133549290949494,-3.9182372836792636,-14.510376318791081,-9.049626000713884
2.4980623328023173,-1.283875745108131,0.5741725562581568,-4.008733543686402,-14.96728708741436,-8.951846057032032
2.485223575351236,-1.4335486159822746,0.5340852208212927,-4.0982520042567225,-15.411923817035115,-8.802018650402003
2.4708880891914133,-1.5876678541526257,0.4931027007787255,-4.186272190760743,-15.83868450722978,-8.593830684607342
2.4550114106498873,-1.7460546992249235,0.45123997887111805,-4.2722104976068165,-16.24153525219214,-8.320737392723366
2.437550863657638,-1.908470051746845,0.4085178738950499,-4.35541787153405,-16.614072730934677,-7.976069325600981
2.41846616314017,-2.074610779056192,0.3649636951797094,-4.435178564790061,-16.949609213479384,-7.553160826292935
2.397720055349608,-2.2441068711909855,0.3206119095318088,-4.51071017305299,-17.241280192247142,-7.045498308894
2.3752789866376984,-2.416519673113457,0.2755048078012789,-4.58116515614193,-17.482173383948577,-6.4468851358262835
2.351113789906564,-2.591341406952943,0.22969315623985959,-4.645634007500193,-17.66547632694223,-5.751618346561535
2.3252003758370345,-2.767996170222365,0.18323681616485765,-4.703150190965808,-17.784638272238322,-4.954671126354099
2.297520414134811,-2.9458425529447485,0.13620531425519955,-4.752696902229349,-17.833540731878134,-4.051873944654916
2.2680619886053632,-3.12417796026353,0.08867834523290605,-4.793215641675898,-17.806670134622692,-3.0400869735247427
2.236820209002728,-3.302244661609757,0.04074618881614706,-4.823616511411146,-17.6992857702136,-1.9173569109193938
2.20379776238663,-3.479237519311893,-0.0074899762979643986,-4.84279008052034,-17.50757675511667,-0.6830527821559838
2.1690053871935113,-3.6543132868630597,-0.0559178771031678,-4.849620608341899,-17.228803199010336,0.6620223749114961
2.1324622543248806,-3.826601318853163,-0.10441408318658679,-4.843000384592784,-16.861419018105416,2.115544063659019
2.094196241136349,-3.9952155090342174,-0.15284408703251462,-4.821844943956194,-16.405176674072138,3.6736000887268463
2.0542440860460065,-4.159267275774939,-0.20106253647207656,-4.785108943068925,-15.861217077514882,5.330639797360003
2.012651413288257,-4.317879446550087,-0.2489136259027658,-4.731802545095325,-15.232150394634624,7.079431615815437
1.969472618822756,-4.470200950496434,-0.29623165135371904,-4.661008228937171,-14.52213487277168,8.911022236502863
1.9247706093177916,-4.615422299224151,-0.34284173364309073,-4.571898006572143,-13.736960430970816,10.814693975956141
1.87861638632555,-4.7527919035338595,-0.3885607137088122,-4.4637510668125815,-12.884141198172433,12.777922897437769
1.8310884672902115,-4.881633315515584,-0.433198224376938,-4.335971837838204,-11.97301629994514,14.786349051584239
1.7822721341350556,-5.001363478515036,-0.47655794275532004,-4.188108347322362,-11.014851326062235,16.82378075765024
1.7322584993499053,-5.111511991775658,-0.5184390262285437,-4.01987053974586,-10.022924931976908,18.872265629864525
1.6811433794321486,-5.211741241095427,-0.5586377316260023,-3.8311478834472146,-9.012577372067929,20.912269788589136
1.6290259670211944,-5.301867014816106,-0.5969492104604744,-3.622025185561323,-8.001192323070358,22.923010697887705
1.5760072968730334,-5.3818789380468095,-0.6331694623160877,-3.392795078582446,-7.0080822292590295,24.88298568236893
1.5221885074925654,-5.4519597603394,-0.6670974131019122,-3.143965221758757,-6.054252472046028,26.770725443820666
1.4676689098891713,-5.51250228505986,-0.6985370653194998,-2.87625796732055,-5.162032060983795,28.56577938487641
1.4125438870385727,-5.564122605669698,-0.7272996449927053,-2.590600173471786,-4.35457805373024,30.24990908100283
1.3569026609818757,-5.607668386207,-0.7532056467274232,-2.2881010826617576,-3.655285592105015,31.808432304879442
1.3008259771198056,-5.64422124212805,-0.7760866575540407,-1.9700167596129632,-3.0871615886676236,33.23162943421764
1.2443837646985252,-5.675092858014726,-0.7957868251501703,-1.6377004652707867,-2.6722428179363917,34.51610487334297
1.1876328361183779,-5.7018152861940905,-0.8121638298028782,-1.2925394165373572,-2.431153511615347,35.665995513047996
1.130614683256437,-5.726126821310244,-0.8250892239682517,-0.9358794614068772,-2.3829000044797577,36.69394043909222
1.0733534150433346,-5.749955821355041,-0.8344480185823204,-0.5689400570159548,-2.5449897424994314,37.6217705066609
1.0158538568297841,-5.775405718780035,-0.84013741915248,-0.19272235194934584,-2.933941583874474,38.48093719144316
0.9580997996419838,-5.80474513461878,-0.8420646426719735,0.19208701996508576,-3.5662290786305517,39.312767237934175
0.900052348295796,-5.840407425405085,-0.8401437724723226,0.5852146923444275,-4.459674488571441,40.168690779226736
0.8416482740417451,-5.8850041702908,-0.8342916255488784,0.9869016001366948,-5.635292808898039,41.11063293565496
0.7827982323388372,-5.94135709837978,-0.8244226095475115,1.3980079294932444,-7.11956974776192,42.21176785336726
0.7233846613550393,-6.012552795857399,-0.8104425302525791,1.820125608026917,-8.947130142443092,43.557786139561756
0.6632591333964654,-6.10202409728183,-0.7922412741723099,2.2557034694225346,-11.163671513212364,45.248669098225115
0.602238892423647,-6.213660812413954,-0.7696842394780846,2.7081901604047856,-13.82880125707168,47.40056745330705
0.5401022842995075,-6.351948824984671,-0.7426023378740367,3.182195834937856,-17.01779284635904,50.14643543048327
0.47658279604966075,-6.522126753448261,-0.7107803795246582,3.683660189242689,-20.819725223331783,53.631825753354114
0.41136152851517815,-6.730324005681579,-0.6739437776322313,4.21997844677623,-25.325736103918313,57.996957084538884
0.3440582884583624,-6.983581366720762,-0.631743993164469,4.7999480176216185,-30.59237877821618,63.32386874549952
0.2742224747911548,-7.289505154502924,-0.5837445129882529,5.433186705076614,-36.545504031760224,69.5000332342326
0.20132742324612557,-7.654960194820527,-0.5294126459374868,6.12818703741894,-42.750768416398756,75.89473951988671
0.1247778212979203,-8.082467878984515,-0.4681307755632974,6.887134432617808,-47.92078886886696,80.6662945586348
0.04395314250807515,-8.561675767673185,-0.3992594312371193,7.693797378204156,-49.062850294478515,79.5671813798921
-0.0416636151686567,-9.05230427061797,-0.3223214574550778,8.489469192003076,-40.80791526433265,65.01312905858529
-0.1321866578748364,-9.460383423261296,-0.23742676553504702,9.139600482588929,-17.638482959622692,29.24737118334893
-0.2267904921074494,-9.636768252857523,-0.14603076070915771,9.432074194422418,17.51599430719871,-23.524672458505545
-0.32315817463602464,-9.461608309785536,-0.05171001876493353,9.196827469837363,48.082457141188584,-69.81857923537991
-0.41777425773388,-8.98078373837365,0.040258255933440096,8.498641677483564,60.4182601418886,-90.24916693501254
-0.5075820951176165,-8.376601136954765,0.12524467270827572,7.5961500081334385,57.86343523814583,-89.38177568494802
-0.5913481064871642,-7.7979667845733065,0.20120617278961012,6.702332251283958,49.55905617428334,-80.05496287357896
-0.6693277743328973,-7.302376222830473,0.2682294953024497,5.901782622548168,40.739568632075645,-69.69108368734118
-0.742351536561202,-6.894980536509716,0.3272473215279314,5.204871785674756,33.09801752565851,-60.74651052105058
-0.8113013419262992,-6.564000361253131,0.379296039384679,4.597406680464251,26.867436850440154,-53.60861676542768
-0.8769413455388305,-6.2953259927487295,0.4252701061893215,4.061320512809973,21.861670740265676,-48.05477782254408
-0.9398946054663178,-6.076709285346073,0.4658833113174212,3.5807727345845324,17.831261571479573,-43.75619203953692
-1.0006616983197785,-5.8983966696312775,0.5016910386632666,3.143210814189163,14.560346297340608,-40.418316720021465
-1.0596456650160913,-5.752793206657872,0.5331231468051583,2.7390276469889483,11.882301808520205,-37.806188765097644
-1.11717359708267,-5.63397018857267,0.5605134232750477,2.360965759337972,9.67364380485627,-35.73829131986311
-1.1735132989683967,-5.537233750524107,0.5841230808684275,2.0035828461393406,7.844208850515436,-34.074624904993925
-1.2288856364736378,-5.458791662018953,0.6041589093298209,1.6628365970894012,6.328419623368901,-32.706013651218235
-1.2834735530938273,-5.395507465785264,0.6207872753007149,1.3357764605772189,5.078464449906812,-31.54601131379363
-1.3374286277516798,-5.3447228212861955,0.6341450399064871,1.0203163474392825,4.0591650672350985,-30.525203298245714
-1.3908758559645418,-5.304131170613845,0.64434820338088,0.7150643144568254,3.244127100775757,-29.587377534495307
-1.4439171676706801,-5.271689899606087,0.6514988465254482,0.4191905391118723,2.612826216638769,-28.687057206767058
-1.496634066666741,-5.245561637439699,0.6556907519165669,0.13231996704420174,2.1483841133088126,-27.78797745643739
-1.549089683041138,-5.22407779630661,0.6570139515870089,-0.14555980752017217,1.835877398951863,-26.862172100452437
-1.601330461004204,-5.2057190223170915,0.6555583535118072,-0.41418152852469653,1.6610866618208637,-25.889403445511537
-1.653387651227375,-5.189108155698883,0.6514165382265603,-0.673075562979812,1.609632626439808,-24.85672392097781
-1.705278732784364,-5.173011829434485,0.6446857825967622,-0.92164280218959,1.6664645381022474,-23.758010109221942
-1.7570088510787087,-5.1563471840534625,0.6354693545748663,-1.1592229032818095,1.815667511508273,-22.59336247600976
-1.8085723229192434,-5.13819050893838,0.6238771255420482,-1.3851565280419071,2.040546183794218,-21.368318058613045
-1.8599542280086272,-5.117785047100438,0.6100255602616291,-1.5988397086280375,2.3239279129847903,-20.09287513515006
-1.9111320784796315,-5.09454576797059,0.5940371631753487,-1.799768459979538,2.6486160436988917,-18.78037292492312
-1.9620775361593374,-5.068059607533601,0.5760394785755534,-1.9875721892287692,2.9979172193317676,-17.446300164298965
-2.0127581322346733,-5.038080435340284,0.5561637566832657,-2.1620351908717588,3.3561689413702407,-16.107120535242196
-2.063138936588076,-5.004518745926581,0.5345434047745481,-2.3231063962241807,3.7092045771827102,-14.779200191628915
-2.1131841240473417,-4.967426700154754,0.5113123408123063,-2.47089839814047,4.044710590261421,-13.477906070895155
-2.162858391048889,-4.92697959425214,0.48660335683090156,-2.6056774588494216,4.352451395411303,-12.216918569145857
-2.2121281869914107,-4.883455080298027,0.46054658224240735,-2.72784664454088,4.624357222034656,-11.0077744697362
-2.260962737794391,-4.837211508077681,0.43326811579699853,-2.837924389238242,4.854486756006672,-9.859630951708654
-2.309334852875168,-4.788666640517614,0.4048888719046161,-2.936520698755329,5.038887461291257,-8.779222539246748
-2.357221519280344,-4.7382777659047015,0.3755236649170628,-3.0243129241477966,5.175382030824541,-7.770971442140317
-2.4046042969393913,-4.6865239455964565,0.3452805356755848,-3.1020226385691996,5.263310100804462,-6.83720759448373
-2.451469536395356,-4.633890844588412,0.3142603092898928,-3.1703947145140368,5.3032514934612704,-5.978456391072103
-2.4978084448412403,-4.580858329653799,0.28255636214475244,-3.2301792784247576,5.296752294162572,-5.193757717573362
-2.543617028137778,-4.527890806712173,0.25025456936050483,-3.282116855600491,5.2460693179131,-4.4809874694202145
-2.5888959362048998,-4.475430113533042,0.2174334008044999,-3.3269267302946934,5.153942944330502,-3.837160805848027
-2.6336502373402304,-4.423890684089737,0.18416413350155297,-3.3652983383531736,5.023403495560483,-3.258703821469111
-2.677889144181128,-4.373656649134132,0.15051115011802124,-3.3978853765678645,4.857612571883333,-2.741686538403888
-2.7216257106724693,-4.3250805234152985,0.1165322963523426,-3.4253022419519032,4.659738081114746,-2.282014903843802
-2.7648765159066224,-4.278483142604151,0.08227927393282355,-3.448122390990341,4.432859989431349,-1.8755828560402643
-2.807661347332664,-4.234154542709837,0.04779805002292014,-3.4668782195507437,4.17990290077018,-1.5183876797886344
-2.8500028927597625,-4.192355513702135,0.013129267827412701,-3.48206209634863,3.903591239934766,-1.206613057382115
-2.891926447896784,-4.153319601302788,-0.0216913531360736,-3.494128226922451,3.606422886906303,-0.936684685379153
-2.9334596439098117,-4.117255372433725,-0.05663263540529811,-3.5034950737762425,3.29065743397577,-0.705303296856043
-2.9746321976341488,-4.084348798093967,-0.09166758614306053,-3.5105481067448028,2.9583156965285733,-0.5094595869001443
-3.0154756856150886,-4.054765641128681,-0.12677306721050857,-3.515642702613804,2.611187619719611,-0.3464350253794646
-3.0560233420263754,-4.0286537649314855,-0.1619294942366466,-3.5191070528675987,2.2508462322393235,-0.2137919546440251
-3.0963098796756903,-4.0061453026090925,-0.19712056476532258,-3.521244972414039,1.8786657721069597,-0.10935577666115956
-3.1363713327017813,-3.987358644888023,-0.23233301448946297,-3.5223385301806505,1.4958425309492338,-0.031191474477906555
-3.1762449191506614,-3.9724002195785304,-0.2675563997912695,-3.5226504449254294,1.1034173262424614,0.02242379134637624
-3.215968921346447,-3.961366046316106,-0.3027829042405238,-3.5224262070119656,0.7022988159717891,0.053030710411008444
-3.255582581809608,-3.9543430581563883,-0.3380071663106434,-3.5218958999078556,0.29328712140456537,0.06201954741622315
-3.295126012391172,-3.9514101869423426,-0.373226125309722,-3.5212757044336933,-0.12290257263790931,0.050662949669478756
-3.3346401142605955,-3.9526392126687218,-0.4084388823540589,-3.5207690749369984,-0.5456166077523992,0.02014947867318626
-3.3741665063872825,-3.9580953787462456,-0.44364657310342887,-3.5205675801502667,-0.9742396713334404,-0.02838228544310957
-3.413747460174745,-3.96783777545958,-0.47885224890493155,-3.520851403004698,-1.4081717843842343,-0.09380905281822452
-3.4534258379293408,-3.981919493303422,-0.5140607629349785,-3.5217894935328804,-1.8468053200905594,-0.17498740328398632
-3.493245032862375,-4.000387546504328,-0.5492786578703073,-3.52353936756572,-2.289501858193769,-0.27071739559213176
-3.533248908327418,-4.023282565086266,-0.5845140515459645,-3.5262465415216413,-2.7355686391692053,-0.3797048949728034
-3.573481733978281,-4.050638251477958,-0.6197765169611809,-3.530043590471369,-3.184234355201057,-0.5005222614064383
-3.6139881164930605,-4.082480595029969,-0.6550769528658945,-3.5350488130854334,-3.6346240005178627,-0.6315670181552643
-3.65481292244336,-4.118826835035147,-0.6904274409967488,-3.541364483266986,-4.085732501173968,-0.7710181206294817
-3.6960011907937114,-4.159684160046887,-0.7258410858294186,-3.549074664473281,-4.536396853963171,-0.9167894710011631
-3.7375980323941804,-4.205048128586519,-0.7613318324741515,-3.5582425591832925,-4.985266526759523,-1.0664803770564182
-3.7796485136800455,-4.254900793854114,-0.7969142580659844,-3.5689073629538566,-5.4307719099916545,-1.2173227391615626
-3.8221975216185866,-4.30920851295403,-0.8326033316955229,-3.581080590345472,-5.871090663965725,-1.3661248733327023
