th1 (rad),w1 (rad/s),th2 (rad),w2 (rad/s),a1 (rad/s^2),a2 (rad/s^2)
0.4325168779205234,-2.772211550969319,4.255388428530014,1.704476998364947,0.39061819996293856,13.937755790627019
0.40479476241083023,-2.7683053689696897,4.272433198513664,1.8438545562712172,0.3186730467798363,14.193000457195259
0.3771117087211333,-2.7651186385018915,4.290871744076376,1.98578456084317,0.1742895191745221,14.401511037874384
0.3494605223361144,-2.7633757433101462,4.310729589684807,2.129799671221914,-0.040029175294844954,14.57425736426562
0.32182676490301293,-2.7637760350630947,4.332027586397026,2.27554224486457,-0.3214473567362534,14.723412977827598
0.294189004552382,-2.766990508630457,4.354783008845672,2.4227763746428463,-0.667143878628939,14.862007452638542
0.26651909946607744,-2.7736619474167465,4.379010772592101,2.5713964491692316,-1.0746453575275334,15.003653348312524
0.23878247999190996,-2.784408400992022,4.404724737083793,2.721432982652357,-1.5421365823212887,15.162368403450927
0.21093839598198974,-2.7998297668152348,4.431939066910316,2.873056666686866,-2.068745703787878,15.352505398630976
0.1829400983138374,-2.8205172238531135,4.460669633577185,3.026581720673176,-2.654807876506954,15.588795675045334
0.15473492607530626,-2.847065302618183,4.490935450783916,3.1824696774236294,-3.3021160322686924,15.886508162593813
0.1262642730491244,-2.88008646294087,4.522760147558152,3.3413347590495674,-4.014171143015488,16.261723960767828
0.09746340841971571,-2.920228174371025,4.556173495148648,3.5039519986572456,-4.796446500048849,16.731726497281734
0.06826112667600545,-2.9681926393715137,4.59121301513522,3.671269263630063,-5.656680849166036,17.315507930415343
0.03857920028229031,-3.024759447863174,4.627925707771521,3.844424342934216,-6.60521277308446,18.034391736993655
0.008331605803658569,-3.0908115755940186,4.666369951200863,4.024768260304152,-7.655361351644348,18.912765673407726
-0.02257650995228162,-3.167365189110462,4.706617633803905,4.213895917038229,-8.823841178780068,19.97890156187026
-0.05425016184338624,-3.255603600898263,4.748756592974288,4.413684932656932,-10.131163562343636,21.265794998292442
-0.08680619785236887,-3.3569152365216994,4.792893442300857,4.6263428826398565,-11.601900431811636,22.811861848546513
-0.12037535021758586,-3.4729342408398156,4.839156871127256,4.854461501125321,-13.264533319694431,24.66112446354702
-0.15510469262598403,-3.60557957403676,4.887701486138509,5.101072745760791,-15.150296997092127,26.8620986658984
-0.19116048836635163,-3.757082544007681,4.938712213596117,5.369693732419775,-17.289797941226553,29.463733356293478
-0.22873131380642844,-3.9299805234199465,4.992409150920314,5.66433106598271,-19.704937382067033,32.505033121605905
-0.26803111904062793,-4.127029897240617,5.049052461580141,5.989381397198769,-22.39124770448595,35.99163870565731
-0.3093014180130341,-4.350942374285477,5.108946275552128,6.3492977842553415,-25.281321222157256,39.8464617919126
-0.3528108417558889,-4.60375558650705,5.172439253394682,6.747762402174468,-28.172931709116348,43.811522064440126
-0.39884839762095936,-4.885484903598213,5.239916877416427,7.185877622818869,-30.598163084246508,47.26769837470047
-0.4477032466569415,-5.1914665344406785,5.311775653644616,7.658554606565874,-31.61869117115338,48.950743878130325
-0.4996179120013483,-5.507653446152212,5.388361199710275,8.148062045347176,-29.614719361825554,46.65554382889176
-0.5546944464628705,-5.803800639770468,5.469841820163746,8.614617483636094,-22.40536034812476,37.396187462085614
-0.6127324528605751,-6.027854243251715,5.555987995000107,8.988579358256949,-8.440833998553865,19.05043463415575
-0.6730109952930923,-6.1122625832372535,5.645873788582676,9.179083704598506,10.716062581946401,-6.211313848073189
-0.7341336211254648,-6.005101957417789,5.737664625628661,9.116970566117773,29.331101446645754,-30.487423830197745
-0.7941846406996427,-5.711790942951332,5.828834331289839,8.812096327815796,41.456258557010614,-45.659115921992225
-0.851302550129156,-5.2972283573812255,5.916955294567996,8.355505168595874,45.805874001381426,-50.0962997664215
-0.9042748337029682,-4.8391696173674115,6.0005103462539555,7.854542170931659,44.951782607320624,-47.446886793627904
-0.9526665298766424,-4.389651791294205,6.079055767963272,7.38007330299538,41.82250255800295,-41.770014081334615
-0.9965630477895844,-3.9714267657141753,6.1528565009932255,6.962373162182034,38.18278430703334,-35.4741769023724
-1.0362773154467262,-3.589598922643842,6.2224802326150455,6.607631393158311,34.80438855118707,-29.589335721515276
-1.0721733046731645,-3.2415550371319712,6.288556546546628,6.311738035943158,31.93479430845061,-24.428665915140247
-1.1045888550444842,-2.922207094047465,6.351673926906059,6.067451376791755,29.599040020101388,-20.007629250559532
-1.133810925984959,-2.6262166938464513,6.412348440673977,5.86737508428616,27.743436573620393,-16.240923523680063
-1.1600730929234235,-2.3487823281102473,6.471022191516838,5.704965849049359,26.295034572460263,-13.02270726764227
-1.183560916204526,-2.0858319823856446,6.528071850007332,5.574738776372937,25.183523713445812,-10.25541483454343
-1.2044192360283825,-1.8339967452511865,6.583819237771062,5.472184628027502,24.347758461823688,-7.85785602966726
-1.2227592034808943,-1.5905191606329496,6.638541084051337,5.39360606773083,23.73643645350596,-5.765620820623313
-1.2386643950872238,-1.35315479609789,6.692477144728645,5.335949859524597,23.306815584769474,-3.9290178120411032
-1.2521959430482028,-1.1200866402501952,6.745836643323892,5.2966596814041855,23.02298573947718,-2.3105330432152384
-1.2633968094507049,-0.8898567828554235,6.798803240137934,5.2735543509720335,22.85424511474771,-0.8824888508533776
-1.2722953772792591,-0.6613143317079464,6.851538783647654,5.2647294624634995,22.77374945912548,0.3749264191781249
-1.2789085205963386,-0.4335768371166916,6.904186078272289,5.268478726655281,22.757460090490344,1.4752726674805348
-1.2832442889675055,-0.20600223621178815,6.956870865538842,5.283231453330086,22.7833699207739,2.427188094803904
-1.2853043113296234,0.021831462995950845,7.009703180072143,5.307503334278125,22.830976518188095,3.2355143891284617
-1.285085996699664,0.2501412281778318,7.062778213414925,5.339858478169409,22.880972971978693,3.9022858636202873
-1.2825845844178856,0.47895095789761877,7.116176798196618,5.3788813368056125,22.915130960316876,4.427634850037497
-1.2777950748389093,0.7081022675007875,7.169965611564675,5.423157685305988,22.916352016281376,4.810647408095426
-1.2707140521639015,0.9372657876636012,7.224197188417735,5.471264159386942,22.868861274274416,5.0501848730198615
-1.2613413942872655,1.1659544004063453,7.278909830011604,5.521766008117141,22.758513045366772,5.145668666054472
-1.2496818502832021,1.3935395308600131,7.334127490092776,5.5732226947776855,22.573170372775273,5.097809075576398
-1.235746454974602,1.6192712345877658,7.389859717040553,5.62420078553345,22.30311289416038,4.909244830857527
-1.2195537426287244,1.8423023635293696,7.446101724895887,5.673293233842025,21.941421016378946,4.585051130201626
-1.2011307189934306,2.0617165736931593,7.502834657234307,5.7191437451440414,21.4842819064356,4.133071328883044
-1.180513553256499,2.276559392757515,7.560026094685748,5.7604744584328715,20.931166151875605,3.5640332383095683
-1.157747959328924,2.4858710542762714,7.617630839270077,5.796114790815968,20.284834330025785,2.8914253196799393
-1.1328892487861613,2.6887193975765293,7.675591987178237,5.8250290440127666,19.55114997882958,2.1311297426229783
-1.106002054810396,2.884230897364825,7.733842277618365,5.846340341438997,18.73869780159023,1.300835336137377
-1.0771597458367477,3.0716178753807277,7.7923056810327544,5.859348694800371,17.858230129549206,0.41927951546501907
-1.0464435670829404,3.25020017667622,7.850899167980758,5.863541489955021,16.921986641517904,-0.4946105539029658
-1.0139415653161783,3.419420043091399,7.909534582880308,5.858595384415992,15.94294815014243,-1.422595208747548
-0.9797473648852643,3.5788495245928234,7.968120536724468,5.8443694323285165,14.934092091063345,-2.347935061285818
-0.9439588696393361,3.728190445503457,8.026564231047754,5.820890081715659,13.90771423772165,-3.256067398582953
-0.9066769651843015,3.8672675878806735,8.08477313186491,5.788329407729829,12.87486922068175,-4.13509448335042
-0.8680042893054948,3.996016280087491,8.142656425942208,5.746978462896324,11.844964449893318,-4.976057288833539
-0.8280441265046199,4.114465924586424,8.200126210571172,5.697217890007989,10.82552168656968,-5.772993883243867
-0.7868994672587557,4.222721141452121,8.257098389471253,5.639487951175551,9.822101377460529,-6.52280368279683
-0.7446722558442345,4.320942155226726,8.313493268983008,5.574259914347582,8.838369682020334,-7.2249543922408845
-0.7014628342919672,4.40932585204693,8.369235868126484,5.5020103704251735,7.876278355637858,-7.8810766214331
-0.6573695757714979,4.488088635603308,8.424255971830735,5.423199604210843,6.936323479068782,-8.494492411527828
-0.6124886894154649,4.5574518703939955,8.478487967872844,5.338254680095564,6.017849632188756,-9.06971977602905
-0.566914170711525,4.617630366715883,8.5318705146738,5.2475574823352735,5.119370127470129,-9.611987868189207
-0.5207378670443661,4.668824067990584,8.584346089497153,5.151437603653381,4.238879838889801,-10.126788479647635
-0.47404962636446024,4.711212866379482,8.635860465533687,5.050169718856905,3.3741436581816124,-10.61948081814825
-0.4269374977006654,4.744954302961298,8.686362162722256,4.943974910675423,2.522949703869631,-11.094958934915837
-0.37948795467105245,4.770183799999994,8.735801911829011,4.833025321326264,1.6833215101006482,-11.557385284728221
-0.3317861166710525,4.787017015101,8.784132165042273,4.717451468478982,0.8536872856152473,-12.009989796821559
-0.2839159465200425,4.795553887957152,8.831306679727062,4.597351570510766,0.033006966231405664,-12.454931325128722
-0.23596040764047096,4.795883957619466,8.877280195432169,4.472802257259479,-0.7791406464001277,-12.89321709362109
-0.18800156806427631,4.788092551155465,8.922008218004764,4.343870086323268,-1.5825076175127468,-13.324675368221383
-0.14012064255272166,4.772267474980338,8.965446918867997,4.210623332641054,-2.3761602497230863,-13.747976699526191
-0.09239796780291828,4.748505872483107,9.007553152194408,4.073143565645792,-3.158492981250433,-14.16069937407328
-0.04491290907808722,4.716920942670603,9.048284587850866,3.9315365719050597,-3.9272699358313696,-14.559434941754821
0.00225630034861881,4.677648243312289,9.087599953569915,3.7859422224875114,-4.679691434627575,-14.939929685327819
0.0490327827817417,4.630851328966013,9.12545937579479,3.636542925634233,-5.412482809608183,-15.297257572070455
0.09534129607140183,4.576726500869931,9.161824805051133,3.4835703499135287,-6.1220026689634475,-15.626019556479145
0.14110856108010114,4.515506474180297,9.196660508550268,3.327310154348737,-6.80436734466126,-15.920563133119586
0.18626362582190412,4.4474628007336845,9.229933610093756,3.1681045230175413,-7.455587632899514,-16.17521487877295
0.23073825382924096,4.372906924404689,9.261614655323932,3.0063523742298117,-8.071713195230076,-16.384517533681557
0.27446732307328786,4.292189792452389,9.29167817906623,2.842507198892996,-8.648979232677744,-16.54346215081703
0.31738922099781175,4.205700000125611,9.32010325105516,2.677072577384826,-9.18394941242136,-16.647705201880463
0.35944622099906787,4.113860506001397,9.34687397682901,2.5105955253660213,-9.673648658453917,-16.693760466448524
0.40058482605908186,4.017124019416858,9.37197993208267,2.3436579207015362,-10.11567944109178,-16.679156195471943
0.4407560662532504,3.9159672250059403,9.395416511289685,2.1768663587468167,-10.508315704214269,-16.602549501776554
0.4799157385033098,3.8108840679637974,9.417185174877153,2.010840863729051,-10.850569584296021,-16.463792155010808
0.5180245791829478,3.702378372120837,9.437293583514442,1.8462029421789428,-11.142227561262592,-16.263944802147698
0.5550483629041562,3.5909560965082115,9.455755612936231,1.6835634941574658,-11.383854525524052,-16.005239852372085
0.5909579238692383,3.477117551252971,9.472591247877807,1.523511095633745,-11.576766276073917,-15.690996542302816
0.625729099381768,3.361349888492232,9.487826358834145,1.3666011302107168,-11.722972973817331,-15.325494695126812
0.6593425982666903,3.2441201587540585,9.501492370136251,1.2133461832594488,-11.825097851622617,-14.91381609456946
0.6917837998542309,3.1258691802378324,9.513625831968845,1.0642080223137542,-11.886276847304512,-14.461663977271604
0.7230424916566092,3.0070064117647872,9.524267912191982,0.9195913825410382,-11.910045654647481,-13.975171781252834
0.7531125557742571,2.8879059552183124,9.533463826017393,0.7798396647285099,-11.900220931069908,-13.460711973952998
0.7819916153264402,2.7689037459076133,9.541262222664677,0.6452325449889799,-11.860782084785525,-12.924714636293933
0.8096806527855164,2.650295925059758,9.547714548114568,0.5159853986260405,-11.795759280199867,-12.373503702259436
0.8361836120361139,2.5323383322577593,9.552874402100828,0.3922503616034462,-11.709132182677523,-11.813156598093508
0.8615069953586915,2.415247010430984,9.556796905716864,0.27411879562251107,-11.604742666636366,-11.24939074976227
0.8856594654630013,2.2991995837646204,9.559538093673089,0.16162488812488837,-11.48622338312541,-10.687478261276357
0.9086514613006476,2.1843373499333665,9.561154342554337,0.054750105512124794,-11.35694284985492,-10.132188185538038
0.9304948347999812,2.0707679214348174,9.561701843609459,-0.046571776343255586,-11.219966678264383,-9.587754323885578
0.9512025140143293,1.9585682546521734,9.561236125846026,-0.14244931958211138,-11.078033740184978,-9.05786544595954
0.970788196560851,1.8477879172503235,9.559811632650206,-0.23302797404170678,-10.933545516700807,-8.545674208292665
0.9892660757333542,1.7384524620833155,9.55748135290979,-0.3184847161246334,-10.78856655092591,-8.053820818259814
1.0066506003541873,1.6305667965740565,9.554296505748543,-0.3990229243072316,-10.644833811902235,-7.5844675658713925
1.0229562683199278,1.524118458455034,9.55030627650547,-0.4748675999659455,-10.503772825374424,-7.139340646320855
1.0381974529044782,1.4190807302012898,9.545557600505811,-0.5462610064291541,-10.366518592595552,-6.7197761405547265
1.0523882602064911,1.3154155442753344,9.540094990441519,-0.6134587678347013,-10.233939557144328,-6.326767538883349
1.0655424156492446,1.213076148703891,9.533960402763173,-0.6767264432235348,-10.106663154916053,-5.961012727429086
1.0776731771362835,1.1120095171547304,9.527193138330937,-0.7363365704978256,-9.985101764930883,-5.622958867948891
1.0887932723078309,1.0121584995054216,9.519829772625958,-0.7925661591773145,-9.869478147544573,-5.3128440615138235
1.098914857302885,0.9134637180299758,9.511904111034184,-0.8456945997924528,-9.759849698689543,-5.030735081064637
1.108049494483185,0.8158652210430803,9.50344716503626,-0.8960019506030992,-9.65613105676026,-4.776560781800977
1.1162081466936158,0.7193039104754777,9.494487145530229,-0.9437675584211089,-9.55811477028586,-4.550141053245043
1.1234011857983706,0.6237227627726191,9.485049469946018,-0.9892689689535593,-9.465489870562223,-4.3512113685143365
1.1296384134260968,0.5290678640669968,9.475156780256482,-1.0327810826387027,-9.377858297047537,-4.179443123085088
1.1349290920667667,0.43528928109652143,9.464828969430094,-1.0745755138695536,-9.294749198843023,-4.034460046293772
1.139281984877732,0.3423417891080912,9.4540832142914,-1.1149201143324914,-9.215631187722645,-3.9158510230823778
1.1427054027688128,0.25018547723086476,9.442934013148074,-1.1540786245633152,-9.139922651649217,-3.823179689411575
1.1452072575411214,0.15878625071437258,9.43139322690244,-1.192310421457431,-9.067000256876801,-3.7559911696592665
1.1467951200482651,0.06811624814560457,9.419470122687866,-1.2298703331540235,-8.996205775435884,-3.7138163143419307
1.1474762825297211,-0.021845809608754263,9.407171419356326,-1.2670084962974428,-8.926851376289028,-3.6961737766390352
1.1472578244336336,-0.11111432337164454,9.39450133439335,-1.3039702340638333,-8.85822351540805,-3.7025702404153225
1.146146681199917,-0.19969655852572504,9.381461632052712,-1.3409959364679864,-8.789585554593883,-3.732499083765285
1.1441497156146598,-0.28759241407166386,9.368051672688033,-1.3783209273056394,-8.720179232689636,-3.7854377328440703
1.1412737914739433,-0.3747942063985602,9.354268463414977,-1.4161753046340801,-8.649225107167645,-3.8608439326015365
1.1375258494099576,-0.46128645747023667,9.340106710368635,-1.4547837439600955,-8.575922079801268,-3.958151135247742
1.1329129848352553,-0.5470456782682493,9.325558872929035,-1.4943652553125728,-8.499446117880684,-4.0767631847539
1.1274425280525728,-0.6320401394470562,9.31061522037591,-1.5351328871601118,-8.418948282593819,-4.216048457096375
1.1211221266581022,-0.7162296222729944,9.295263891504309,-1.5772933717310755,-8.333552178980392,-4.375333601765519
1.1139598304353722,-0.7995651440627983,9.279490957786997,-1.6210467077487307,-8.242350947344889,-4.553897020653102
1.105964178994744,-0.8819886535362472,9.26328049070951,-1.6665856779552617,-8.144403924123273,-4.750962216068083
1.0971442924593817,-0.9634326927774799,9.246614633929958,-1.7140953001159425,-8.038733110770783,-4.965691140508922
1.087509965531607,-1.0438200238851878,9.229473680928798,-1.7637522115210318,-7.92431960199987,-5.197177687057129
1.077071765292755,-1.1230632199051864,9.211836158813588,-1.815723988391603,-7.800100139269296,-5.444441470889501
1.0658411330937032,-1.2010642212978795,9.193678918929672,-1.870168403100498,-7.664963971308416,-5.706422069360915
1.0538304908807243,-1.2777138610109637,9.174977234898668,-1.927232623794107,-7.517750220025143,-5.981973910184109
1.0410533522706147,-1.3528913632112152,9.155704908660727,-1.9870523628959482,-7.3572459666034975,-6.269862024050906
1.0275244386385025,-1.4264638228772502,9.135834385031767,-2.049750983136457,-7.182185287980522,-6.568758909019913
1.01325980040973,-1.4982856757570553,9.115336875200402,-2.1154385722266564,-6.991249487025175,-6.877242788302586
0.9982769436521594,-1.5681981706273072,9.094182489478136,-2.1842110001096824,-6.783068769212568,-7.193797579584874
0.9825949619458862,-1.636028858319433,9.072340379477039,-2.256148975905531,-6.556225622725462,-7.516814931262995
0.9662346733626919,-1.7015911145466875,9.049778889717983,-2.331317125218161,-6.309260155778354,-7.844598717120346
0.949218762217225,-1.764683716104471,9.0264657184658,-2.4097631123893644,-6.040677632332252,-8.175372413819398
0.9315719250561803,-1.8250904924277935,9.002368087341907,-2.491516836527558,-5.748958422779931,-8.507289812532035
0.9133210201319023,-1.882580076655593,8.977452918976631,-2.5765897346528783,-5.432570546954893,-8.838449534140727
0.8944952193653464,-1.9369057821251419,8.951687021630102,-2.664974229994286,-5.089984930152068,-9.166913823482222
0.875126161544095,-1.9878056314266626,8.925037279330159,-2.756643368229108,-4.719693415950065,-9.490732088682938
0.8552481052298283,-2.035002565586163,8.897470845647868,-2.8515506891159372,-4.320229479886922,-9.807969623374172
0.8348980795739667,-2.0782048603850325,8.86895533875671,-2.949630385349679,-3.890191463292099,-10.11674189937146
0.8141160309701163,-2.1171067750179535,8.839459034903212,-3.0507978043433934,-3.428267995388101,-10.415254742763945
0.7929449632199368,-2.1513894549718344,8.808951056859778,-3.154950351771033,-2.933265093832707,-10.70185060583381
0.7714310686702185,-2.1807221059101614,8.777401553342067,-3.261968857829371,-2.4041342304094564,-10.975061020921471
0.7496238476111169,-2.2047634482142557,8.744781864763773,-3.371719468038586,-1.8400004228205842,-11.233665172522237
0.7275762131289744,-2.2231634524424617,8.711064670083386,-3.484056119763808,-1.2401891711773616,-11.476754355569744
0.7053445786045497,-2.235565344154235,8.676224108885748,-3.5988236633195054,-0.6042508073506232,-11.703801909425984
0.6829889251630074,-2.2416078522277414,8.640235872252553,-3.7158616824137654,0.06801942150224642,-11.914738040805208
0.6605728466407299,-2.240927658012719,8.603077255428415,-3.8350090628218174,0.7765674423049906,-12.110028791040843
