th1 (rad),w1 (rad/s),th2 (rad),w2 (rad/s)
4.685430490848909,0.40162270887448515,2.54589295643194,-0.6002286351933803
4.689446717937654,0.4975388596299536,2.5398906700800064,-0.602198440385748
4.694422106533954,0.5937893274914526,2.5338686856761488,-0.6029510171537451
4.700359999808869,0.6904690215077623,2.5278391755046115,-0.6022095065944092
4.707264690023947,0.7876790074201153,2.5218170804386673,-0.5996943398003352
4.715141480098148,0.8855268036912322,2.515820137040664,-0.5951228139691269
4.72399674813506,0.9841265640661196,2.5098689089009727,-0.5882087526093787
4.733838013775721,1.0835991193155716,2.503986821374879,-0.5786622883746333
4.744674004968878,1.1840718463295106,2.4982001984911326,-0.566189816346814
4.756514723432173,1.285678327518626,2.4925383003276647,-0.5504941762215486
4.769371506707359,1.3885577575949537,2.487033358565449,-0.5312751337865348
4.783257084283309,1.4928540483567934,2.481720607227584,-0.5082302451933025
4.798185624766877,1.5987145753287781,2.476638304775651,-0.4810562015110028
4.814172770520164,1.7062885033751582,2.471827742760541,-0.44945076541010626
4.8312356555539155,1.8157246222697063,2.4673332351064396,-0.4131154257546723
4.849392901776612,1.9271686184547687,2.463202080848893,-0.371758908209313
4.8686645879611605,2.040759706911569,2.4594844917667995,-0.3251016890548697
4.889072185030276,2.1566265485512264,2.456233474876251,-0.27288166308203465
4.910638450515789,2.2748823854833082,2.4535046582454307,-0.2148611119404412
4.933387274370622,2.395619340853429,2.4513560471260263,-0.15083510334316255
4.957343467779157,2.518901853749078,2.449847696092595,-0.08064142029545268
4.982532486316647,2.6447592549975973,2.4490412818896403,-0.0041720690769586205
5.008980078866624,2.773177538209626,2.4489995611988706,0.07861365863095189
5.03671185424872,2.90409044304452,2.44978569778518,0.1676746930628423
5.0657527586791655,3.0373700439263778,2.4514624447158084,0.26287251224618846
5.096126459118429,3.1728171248851598,2.45409116983827,0.3639546855943857
5.127854630367281,3.3101517148602753,2.457730716694214,0.47053820288081916
5.160956147515884,3.449004249807746,2.462436098723022,0.5820933322624694
5.1954461900139615,3.5889079075912105,2.468257032045647,0.6979289182939089
5.231335269089874,3.7292927161026617,2.475236321228586,0.8171801685425336
5.2686281962509005,3.869482050982769,2.4834081229140117,0.9388000618645549
5.307323016760728,4.008692105131705,2.4927961235326572,1.0615555195862707
5.347409937812045,4.146034821095343,2.50341167872852,1.1840293948070406
5.388870286022998,4.280524630212951,2.5152519726765905,1.30462914692049
5.431675532325127,4.411089149685368,2.5282982641457954,1.4216027846522508
5.475786423821981,4.5365837710529595,2.542514291992318,1.533062304119481
5.521152261532511,4.655809859366272,2.5578449150335127,1.6370144559919346
5.567710360126174,4.76753610296968,2.574215059593432,1.7313982940418697
5.615385721155871,4.8705224368123545,2.5915290425338506,1.814128631972455
5.664090945523994,4.963545923799937,2.609670328853575,1.8831443004947186
5.713726404761993,5.045428017854645,2.628501771858522,1.9364599644828084
5.7641806849405395,5.115062727895023,2.64786637150335,1.9722202152325672
5.81533131221949,5.171445314218232,2.6675885736556757,1.9887546527538993
5.867045765361672,5.213701225927922,2.6874761201832147,1.9846326559137097
5.919182777620951,5.241114976370771,2.707322446742352,1.958716438181788
5.971593927384658,5.253158510248432,2.72690961112417,1.9102107531076329
6.024125512487142,5.249518322887526,2.746011718655246,1.8387072319730358
6.076620695716017,5.230120167400756,2.7643987909749765,1.7442208457207022
6.128921897390025,5.195149691975146,2.7818409994321835,1.6272154872264775
6.180873394309776,5.145066894838683,2.798113154304448,1.4886153306708234
6.2323240632581625,5.080612009598249,2.8129993076111566,1.3297986408056333
6.283130183354145,5.002800487419362,2.826297294019213,1.1525712665697516
6.333158188228339,4.9129052422851025,2.83782300668491,0.9591182810259812
6.3822872406511895,4.812425311515621,2.84741418949517,0.7519341085708571
6.4304114937663455,4.7030414810627,2.8549335305808783,0.5337338176328918
6.4774419085769726,4.586561032466744,2.8602708687572074,0.30735068329937576
6.52330751890164,4.464855286896117,2.8633443755902013,0.07562715964136543
6.567956071770601,4.339794725335816,2.864100647186615,-0.1586924229478551
6.611354019023959,4.213186892735027,2.8625137229571367,-0.3930591204581184
6.653485887951309,4.086721936310008,2.8585831317525554,-0.6251995141231412
6.6943531073144085,3.9619295592732344,2.852331136611324,-0.8531738683352884
6.733972402907141,3.8401496289174535,2.843799397927971,-1.0754102157936498
6.772373899196316,3.722516987463739,2.8330452957700345,-1.2907150393797286
6.809599069070953,3.609959492047904,2.8201381453762373,-1.4982635017181885
6.845698663991432,3.503207185164506,2.8051555103590555,-1.69757367640606
6.880730735843077,3.4028098704071765,2.788179773594995,-1.8884698768144643
6.914758834547149,3.309160221058898,2.7692950748268506,-2.071040061764967
6.947850436757737,3.222519777631507,2.748584674209201,-2.245591637715597
6.980075634534052,3.1430456549834926,2.7261287578320452,-2.412609022841565
7.011506091083887,3.070816344550603,2.7020026676036295,-2.572715309274938
7.042214254529393,3.005855556234383,2.67627551451088,-2.726639413501114
7.072272810091737,2.948153529555388,2.6490091203758688,-2.875189330268152
7.101754345387291,2.897685621964919,2.6202572270731874,-3.0192315324076002
7.13073120160694,2.8544282469697317,2.5900649117491112,-3.1596761765793224
7.1592754840766375,2.8183723946115964,2.558468149983318,-3.297467548258511
7.187459208022753,2.789535036463153,2.525493474500733,-3.4335790628548244
7.215354558387385,2.767968709907793,2.4911576838721845,-3.5690120854079894
7.243034245486463,2.7537694985158097,2.4554675630181046,-3.704797790031366
7.270571940471621,2.747083471854301,2.418419585117791,-3.842001200423333
7.298042775190164,2.7481113975772344,2.3799995731135577,-3.981726372763778
7.325523889165937,2.7571111458136572,2.34018230938592,-4.125121318930441
7.353095000624074,2.7743965902389705,2.2989310961966156,-4.273380598067378
7.380838966526464,2.8003308387836445,2.2561972902159417,-4.427742338155424
7.4088422749143,2.8353100894207057,2.2119198668343873,-4.589474492227826
7.437195375808507,2.8797319854746557,2.166025121912109,-4.759841942874683
7.465992695663253,2.933938595711077,2.1184267024833625,-4.940041017784284
7.495332081620364,2.998118534493001,2.06902629230552,-5.1310803058746774
7.525313266965294,3.0721448842299335,2.0177154892467732,-5.33357578561301
7.556034715807593,3.1553160320914464,1.964379731390643,-5.547414850180768
7.587587876128508,3.2459587969252053,1.9089055828888353,-5.771232534457669
7.62004746409776,3.3408582394115003,1.8511932575442587,-6.001649034235423
7.653456046491875,3.4345222113417138,1.7911767672019043,-6.232276094584483
7.687801268605292,3.5184176649442622,1.7288540062560596,-6.452675642348701
7.722985445254735,3.5805780043885034,1.6643272498325725,-6.647814132555296
7.75879122529862,3.606325980877999,1.5978491085070194,-6.799031816738106
7.7948544851074,3.5809330283387766,1.5298587903396383,-6.887651375954395
7.830663815390788,3.4941665217097526,1.4609822765800944,-6.901149456233316
7.8656054806078854,3.3447294467848767,1.3919707820177611,-6.839133409021331
7.8990527750757344,3.141385686760321,1.3235794479275478,-6.71472605656193
7.930466631943338,2.899511300216032,1.2564321873619284,-6.549695869640931
7.959461744945498,2.6355230664107054,1.190935228665519,-6.366784318147513
7.985816975609605,2.362720496526609,1.1272673854840438,-6.184096597879031
8.00944418057487,2.089888311834228,1.0654264195052534,-6.013333441531348
8.030343063693213,1.8218274946586113,1.00529308508994,-5.860646513294285
8.048561338639798,1.5605443989542531,0.9466866199569971,-5.728343628227205
8.064166782629341,1.3063519917184248,0.889403183674725,-5.616426358154537
8.077230302546525,1.0586560810548358,0.8332389200931797,-5.523665660215635
8.087816863357073,0.816447656386553,0.7780022634910233,-5.448259090425322
8.095981339920938,0.5785873485859658,0.7235196725867701,-5.388196494913453
8.101767213406797,0.3439602180233351,0.6696377076376355,-5.341446007637705
8.10520681558703,0.11155527158548162,0.6162232475612585,-5.306037016456162
8.106322368302884,-0.1194965632751056,0.5631628773966968,-5.280087202828887
8.105127402670133,-0.34990637154817483,0.5103620053684079,-5.2618009758068505
8.10162833895465,-0.5802221459227296,0.4577439956103394,-5.24945462183445
8.095826117495424,-0.8108288032826417,0.4052494493919949,-5.2413765870218905
8.087717829462598,-1.0419504046087393,0.352835683521776,-5.235927463103009
8.07729832541651,-1.2736533134139605,0.30047640889074595,-5.23148215830467
8.06456179228237,-1.5058499545715354,0.24816158730769924,-5.226415621343932
8.049503292736656,-1.738303347058562,0.19589743109425992,-5.219092901011115
8.03212025926607,-1.97063285343692,0.14370650208414876,-5.207864009073164
8.012413930731702,-2.202321709180392,0.0916278619934171,-5.191063865328577
7.990390713639898,-2.4327269154808704,0.03971722334013133,-5.167017458896506
7.966063444485089,-2.6610920258269504,-0.011952951248833735,-5.134050214748996
7.9394525242268195,-2.8865632442360156,-0.0632934533963237,-5.090503387444021
7.910586891784459,-3.108209092417593,-0.1141984872707639,-5.034754108271128
7.879504800860283,-3.3250437053444633,-0.16454602835347518,-4.965239491113654
7.846254363806838,-3.53605359262924,-0.21419842326461172,-4.880483966712473
7.8108938278805455,-3.740227471775063,-0.2630032629317364,-4.779128779162273
7.773491553162795,-3.936588554941876,-0.31079455072335915,-4.659962358175973
7.734125667613376,-4.124228469029813,-0.3573941743051189,-4.521950090709133
7.692883382923077,-4.3023418232897175,-0.4026136752122102,-4.364261868257938
7.64985996469018,-4.470260320075469,-0.4462562938947896,-4.186295691127183
7.605157361489426,-4.627485240783976,-0.48811925080606144,-3.9876955761552138
7.558882509081586,-4.773717137077057,-0.5279962065676136,-3.7683620479518476
7.511145337710816,-4.908881624115292,-0.565679827047132,-3.528453605644345
7.462056521469663,-5.03315031648602,-0.6009643631035755,-3.268377759155943
7.411725018304803,-5.146956179092425,-0.6336481406951349,-2.9887705316523263
7.360255456513879,-5.2510028939339035,-0.6635358460116582,-2.6904637311457775
7.30774542757454,-5.346268273381554,-0.6904404833231159,-2.37443979211512
7.254282744840724,-5.434002273996981,-0.7141848812442672,-2.041774542455396
7.199942722100754,-5.515720759049561,-0.7346026266688211,-1.6935688016453199
7.144785514510259,-5.59319678191888,-0.7515383146852743,-1.3308701818919628
7.0888535466910705,-5.668451760077602,-0.764847016504194,-0.9545867595126869
7.032169029090294,-5.743749411952692,-0.7743928840993208,-0.5653943448472553
6.9747315349707675,-5.8215956563045514,-0.7800468275477934,-0.16363890070789272
6.916515578407722,-5.904747718685655,-0.7816832165548724,0.25076465056778513
6.857468101220865,-5.996235269079211,-0.7791755700491946,0.6784361272834081
6.797505748530074,-6.099395151388173,-0.7723912087763605,1.1206344875621632
6.736511797016192,-6.21791832733947,-0.7611848639007388,1.5793582100388368
6.674332613742797,-6.355901211186543,-0.7453912818003504,2.0574290285728773
6.610773601630932,-6.517879641651155,-0.7248169915146216,2.5585276985009524
6.54559480521442,-6.708793880439865,-0.6992317145296121,3.087108997758244
6.478506866410021,-6.93376986880444,-0.6683606245520296,3.6480345010712
6.409169167721977,-7.197472013135494,-0.6318802795413176,4.245578994931086
6.337194447590623,-7.502531182295691,-0.5894244895920068,4.881113537922309
6.262169135767666,-7.846131701975101,-0.5406133542127837,5.548181828760008
6.183707818747915,-8.213415609438679,-0.4851315359251836,6.223101251002217
6.101573662653528,-8.567054563948616,-0.42290052341516143,6.850227965877413
6.015903117014042,-8.837685407383423,-0.3543982437563873,7.328617932521109
5.927526262940208,-8.933501560295776,-0.2811120644311762,7.526034972341207
5.8381912473372495,-8.791692340721198,-0.20585171470776414,7.352368224816189
5.750274323930038,-8.440565145796324,-0.13232803245960226,6.848179343364707
5.665868672472074,-7.983670932511642,-0.06384623902595518,6.16256969471065
5.586031963146958,-7.519219243424043,-0.0022205420788486765,5.438671396616763
5.5108397707127175,-7.098549169075602,0.05216617188731895,4.75373754755631
5.4398542790219615,-6.736424672487796,0.09970354736288205,4.132808405068115
5.372490032297083,-6.430652283792906,0.1410316314135632,3.576187245163781
5.3081835094591545,-6.173611761323208,0.176793503865201,3.075838392785518
5.246447391845923,-5.9570286611558405,0.2075518877930562,2.622321252592252
5.186877105234364,-5.773530094939889,0.23377510031897872,2.207158221414275
5.1291418042849655,-5.616958520441097,0.2558466825331215,1.8234046424101993
5.072972219080555,-5.482274772222088,0.27408072895722346,1.4655995270451774
5.018149471358334,-5.3653605897871275,0.2887367242276752,1.1295442847445445
4.964495865460463,-5.262825352027773,0.30003216707512065,0.8120649390784427
4.911867611940185,-5.17184600637073,0.3081528164659051,0.510804202070828
4.8601491518764774,-5.090043103521976,0.3132608584866134,0.2240512919764559
4.809248720841258,-5.015388009406246,0.31550137140637796,-0.04939472702887132
4.759094840747196,-4.946134908669259,0.31500742413608923,-0.31033491848777556
4.709633491660503,-4.8807717676554665,0.3119040749512115,-0.55926005420535
4.660825773983948,-4.817985438609917,0.30631147440915796,-0.7964247256859163
4.612645919597849,-4.756637060199871,0.2983472271522988,-1.0219095274684686
4.5650795489958504,-4.695744720693802,0.2881281318776141,-1.2356737090227008
4.518122101788912,-4.634471003603629,0.2757713947873871,-1.4375998353831334
4.471777391752876,-4.57211356736628,0.26139539643355575,-1.627531408050438
4.426056256079213,-4.508097355338997,0.24512008235305138,-1.8053040351782825
4.380975282525823,-4.441967413589354,0.22706704200126857,-1.9707705562696716
4.336555608389929,-4.373381623767279,0.20735933643857185,-2.1238204737842015
4.292821792152257,-4.302102940314491,0.18612113170072983,-2.2643940767917456
4.2498007627491114,-4.2279909542990675,0.16347719093281238,-2.3924917193311543
4.207520853206121,-4.150992788062101,0.13955227373950083,-2.5081788045704694
4.1660109253255,-4.071133454950355,0.11447048569379613,-2.6115870999717434
4.125299590775996,-3.9885058989454327,0.0883546146940787,-2.70291305258119
4.085414531786542,-3.9032609654638453,0.06132548416826679,-2.782413780417112
4.0463819221319035,-3.8155975550742847,0.03350134636409567,-2.8504013863683086
4.0082259465811605,-3.7257531859162527,0.004997332500412583,-2.907236181104515
3.970968414721998,-3.633995147979609,-0.02407502931063257,-2.9533193203582133
3.934628463242202,-3.540612382001549,-0.0536082225142147,-2.989085269595522
3.8992223394221863,-3.4459081647889818,-0.08349907521016993,-3.01499441482595
3.8647632577742965,-3.3501936364927944,-0.11364901935842943,-3.0315260495549365
3.8312613214093685,-3.2537821669227265,-0.1439642798539788,-3.039171889801909
3.798723499740141,-3.156984528783111,-0.1743559987519979,-3.038430204520295
3.76715365445231,-3.0601048257183883,-0.20474030079720085,-3.0298005984958754
3.736552606195126,-2.9634371113152196,-0.2350383067821596,-3.013779448179404
3.706918235081974,-2.8672626302070636,-0.26517610126395363,-2.990855966246439
3.6782456087799034,-2.7718476124622313,-0.29508466092641805,-2.961508855772176
3.650527132655281,-2.677441555858033,-0.3246997494841398,-2.926203507428932
3.6237527170967003,-2.5842759360182694,-0.35396178455842914,-2.885389690867232
3.5979099577365177,-2.4925632905837696,-0.38281568146710143,-2.8394996925457594
3.57298432483068,-2.402496629779479,-0.41121067839255904,-2.7889468552365044
3.548959358532885,-2.314249131417423,-0.43910014694492405,-2.7341244781544782
3.525816867218711,-2.2279740832634696,-0.4664413917264688,-2.6754050404173046
3.5035371263860764,-2.143805039719928,-0.49319544213064187,-2.613139713905735
3.4820990759888772,-2.061856162991072,-0.5193268392696992,-2.547658134384317
3.4614805143589664,-1.98222272143932,-0.5448034206135424,-2.479268401930749
3.4416582871445733,-1.9049817198759837,-0.5695961046328498,-2.4082572833953764
3.4226084699458137,-1.8301926382345612,-0.5936786774668036,-2.3348905909045095
3.404306543563468,-1.7578982565992762,-0.6170275833758487,-2.259413711483284
3.386727560997475,-1.6881255460275524,-0.6396217204906816,-2.1820522638452835
3.3698463055372,-1.6208866060961706,-0.6614422431291344,-2.103012859390265
3.353637439476238,-1.556179631664846,-0.682472371723037,-2.0224839455481067
3.3380756431595895,-1.4939898930044426,-0.702697211178518,-1.940636710852646
3.3231357442295453,-1.4342907151719766,-0.7221035782870445,-1.8576260325392764
3.3087928370778257,-1.3770444443055974,-0.7406798386124372,-1.77359144902645
3.2950223926347695,-1.3222033903243118,-0.7584157531027017,-1.6886581413372734
3.2818003587315263,-1.2697107373096155,-0.7753023345160744,-1.602937909305995
3.26910325135843,-1.2195014145804697,-0.7913317136091343,-1.5165301302529643
3.2569082372126252,-1.1715029231145322,-0.806497014911664,-1.4295226896579571
3.24519320798148,-1.1256361134890658,-0.8207922418082436,-1.3419928751761625
3.233936846846589,-1.081815912894059,-0.8342121705600053,-1.254008227089788
3.2231186877176485,-1.0399519999952842,-0.8467522528309032,-1.1656273399442139
3.2127191677176956,-0.9999494274913634,-0.8584085262303452,-1.0769006116613167
3.202719673442782,-0.9617091931182365,-0.8691775323469584,-0.9878709378416004
3.1931025815116,-0.925128760614257,-0.8790562417253743,-0.8985743502552627
3.1838512939054575,-0.8901025327815429,-0.888041985227927,-0.8090405996801852
3.1749502685776423,-0.8565222792796711,-0.8961323912247289,-0.7192936842766936
3.1663850457848457,-0.8242775221841341,-0.9033253280674958,-0.6293523256031589
3.1581422705630042,-0.7932558826534826,-0.9096188513235274,-0.5392303951843528
3.1502097117364696,-0.7633433922956943,-0.9150111552753709,-0.44893729525919823
3.1425762778135127,-0.7344247730261271,-0.9195005282279629,-0.35847829797081654
3.1352320300832512,-0.7063836893861233,-0.9230853112076711,-0.26785484783506347
3.12816819318939,-0.6791029774619792,-0.9257638596860217,-0.17706483284996588
3.12137716341477,-0.6524648547267266,-0.9275345080145214,-0.0861028301036545
3.114852514867503,-0.6263511153390957,-0.9283955363155579,0.00503966778156785
3.108589003714112,-0.6006433156911363,-0.9283451396377422,0.09637403855088368
3.1025825705572005,-0.5752229553129953,-0.9273813992522334,0.1879143212501554
3.0968303410040705,-0.5499716586337153,-0.9255022560397318,0.279677004350494
3.091330624417733,-0.5247713635724823,-0.9227054859962268,0.3716808026547661
3.0860829107820082,-0.4995045235055818,-0.9189886779696792,0.46394641395209896
3.0810878655469525,-0.47405432982821333,-0.9143492138301582,0.5564962456967948
3.07634732224867,-0.4483049631121117,-0.9087842513731903,0.6493541012262446
3.071864272617549,-0.42214188175064615,-0.9022907103609279,0.7425448141954276
3.067642853800043,-0.3954521579785462,-0.8948652622189737,0.8360938189959747
3.0636883322202575,-0.36812487224260687,-0.8865043240290139,0.9300266439557469
3.0600070834978315,-0.34005157806247216,-0.8772040575894564,1.0243683131008479
3.056606567717207,-0.31112685072470114,-0.866960374458448,1.1191426412398728
3.0534952992099598,-0.28124893435098397,-0.8557689480460493,1.2143714061514945
3.05068280986645,-0.25032050300483527,-0.8436252339845344,1.3100733807951255
3.0481796048364016,-0.21824955245745825,-0.8305245001765831,1.4062632078224848
3.045997109311827,-0.18495043989883347,-0.8164618680983582,1.5029500983821407
3.0441476049128386,-0.15034508909307712,-0.8014323671145368,1.6001363374578421
3.042644154021908,-0.11436437803233568,-0.7854310037399583,1.6978155789916627
3.0415005102415846,-0.07694972478546147,-0.7684528479500417,1.795970916096628
3.04073101299373,-0.038054884656469896,-0.7504931387890754,1.8945727151018898
