th1 (rad),w1 (rad/s),th2 (rad),w2 (rad/s)
1.2953609883574737,-0.9740875952563974,6.037507517507394,1.7232887993470045
1.2856201124049098,-1.0837799468249127,6.054740405500864,1.7598717129653982
1.2747823129366607,-1.1944222728565093,6.072339122630518,1.8000655081172152
1.2628380902080956,-1.306183689589509,6.09033977771169,1.8442973852241729
1.2497762533122005,-1.4192657113157454,6.108782751563932,1.8930160185018363
1.2355835961990431,-1.5339057306077837,6.12771291174895,1.9466960707176053
1.2202445388929652,-1.650380969906147,6.147179872456126,2.005843438856813
1.2037407291939037,-1.7690129447131042,6.167238306844695,2.0710012646576654
1.1860505997467727,-1.8901724510111009,6.187948319491271,2.142756702210644
1.1671488752366617,-2.014285035539771,6.209375886513378,2.2217483552691832
1.147006024881264,-2.1418368087540616,6.2315933700660695,2.308674153434119
1.1255876567937233,-2.2733802859920442,6.25468011160041,2.404299185656203
1.1028538539338029,-2.4095396419018247,6.278723103456972,2.5094625800543677
1.0787584575147846,-2.551014253054666,6.303817729257516,2.625081793331551
1.053248314984238,-2.698578547640806,6.330068547190832,2.7521514593371377
1.02626252950783,-2.8530747598783024,6.357590061784204,2.8917319361428255
0.997731781909047,-3.015392856147281,6.386507381145631,3.044919400681431
0.9675778533475742,-3.186428144741848,6.4169565751524456,3.212784045754936
0.9357135719001557,-3.3670011988537887,6.449084415609995,3.396254649285503
0.9020435599116178,-3.5577159471255198,6.483046962102851,3.595915435704258
0.8664664004403626,-3.7587198556899097,6.519006116459893,3.8116643708329443
0.8288792018834635,-3.9693170035265397,6.557122760168223,4.042163596652842
0.7891860318481981,-4.187378993456077,6.597544396134752,4.284004535805279
0.7473122419136373,-4.408523521283214,6.640384441492804,4.530545356001536
0.7032270067008052,-4.625135813520599,6.685689895052819,4.7705271138272085
0.6569756485655992,-4.825566184044889,6.733395166191092,4.9869387209520415
0.6087199867251503,-4.994264634949502,6.783264553400612,5.157204084420576
0.5587773403756553,-5.113943744904863,6.834836594244818,5.256231733417152
0.5076379029266067,-5.170322666204681,6.887398911578989,5.263111603625256
0.4559346762645599,-5.15793358185096,6.940030027615242,5.169328239485028
0.4043553404460503,-5.083220421274962,6.991723310010092,4.983185227321987
0.35352313623330067,-4.962136430814027,7.041555162283312,4.726497293298115
0.3039017719251604,-4.813903990395114,7.088820135216293,4.425865381322803
0.25576273202120925,-4.655336256331696,7.133078789029521,4.104703770591332
0.20920936945789229,-4.498286530536962,7.174125826735434,3.7796299441510057
0.16422650415252266,-4.349765326968477,7.211922126176944,3.460588916401971
0.12072885088283788,-4.213188280119621,7.246528015340964,3.1525693323975315
0.07859696808164167,-4.089687101366369,7.278053708664939,2.8574188385804544
0.03770009706797798,-3.9790922147141723,7.306627897050744,2.5752093187649296
-0.0020908250791637426,-3.880563659336149,7.332379990238393,2.3051164429320474
-0.04089646167252524,-3.792960931293261,7.355431154667714,2.0459378834155246
-0.07882607098545785,-3.7150457249960493,7.3758905335018685,1.7963798085638298
-0.11597652823541835,-3.6455857844695583,7.393854331587507,1.5552058354000187
-0.15243238608011395,-3.58340310886589,7.409406389941507,1.3213081228317913
-0.18826641716877285,-3.527392152995898,7.422619471169825,1.0937359326465117
-0.22354033869873183,-3.4765226602048918,7.43355683049629,0.8717017578416968
-0.25830556530078075,-3.4298352737593505,7.442273848074707,0.6545761380540843
-0.29260391803837427,-3.3864343589781583,7.4488196094552475,0.4418771527706796
-0.32646826162815584,-3.345480379768501,7.453238380982954,0.23325771249353763
-0.35992306542584085,-3.3061830110581667,7.45557095810789,0.028492189713861527
-0.3929848955364225,-3.267795526599614,7.4558558800050285,-0.1725369167820307
-0.42566285080241867,-3.2296106488513683,7.454130510837208,-0.36985202960738983
-0.45795895729093233,-3.1909578545689152,7.4504319905411345,-0.5633932083753104
-0.4898685358366215,-3.151202024396745,7.444798058457382,-0.7530305737596308
-0.521380556080589,-3.109743267626933,7.4372677527197855,-0.9385764974168141
-0.5524779887568583,-3.0660177230341388,7.427881987745617,-1.1197975975369012
-0.5831381659871997,-3.0194991220616503,7.416684011770248,-1.2964265470419272
-0.6133331572078162,-2.9697008958689177,7.403719746299829,-1.4681736649481794
-0.6430301661665054,-2.9161786099929063,7.389038009650347,-1.6347382277978326
-0.6721919522664345,-2.858532518158404,7.372690627372369,-1.79581941106254
-0.7007772774480185,-2.7964100392118305,7.354732433261743,-1.9511267518235391
-0.7287413778401368,-2.729507977527512,7.335221165743508,-2.100390014323718
-0.7560364576154119,-2.657574326812158,7.31421726560027,-2.24336833875341
-0.7826122008835336,-2.5804095192385645,7.2917835822127355,-2.379858559890635
-0.8084162960759192,-2.4978670055017327,7.267984996613829,-2.5097025946956433
-0.8333949661309366,-2.409853076005294,7.242887970666873,-2.6327938153315533
-0.8574934968909895,-2.316325858366973,7.2165600325135575,-2.749082345142993
-0.8806567554746593,-2.217293451324977,7.1890692090621275,-2.858579238896618
-0.902829689987909,-2.1128111795835767,7.160483416673161,-2.961359534352245
-0.9239578017837448,-2.002977977848052,7.130869821329639,-3.0575641894872816
-0.9439875815622253,-1.887931934919173,7.100294179434766,-3.1474009480593628
-0.962866900911417,-1.7678450497817852,7.068820169954172,-3.2311442052907426
-0.9805453514092348,-1.6429172705019086,7.036508727901265,-3.3091339748266235
-0.9969745241142539,-1.5133699026424172,7.003417388152998,-3.3817740871316495
-1.0121082231406782,-1.3794384858941615,6.969599647281682,-3.449529777347506
-1.0259026079996199,-1.2413652447400794,6.935104349508207,-3.5129248464212384
-1.0383162604470206,-1.0993912203606027,6.899975101043995,-3.572538602082902
-1.0493101726506266,-0.9537481860199332,6.864249715023166,-3.629002805145855
-1.058847654510826,-0.8046504365860876,6.827959686971708,-3.682998860958447
-1.066894158876687,-0.6522865248674505,6.791129698362123,-3.7352555052274656
-1.0734170241253613,-0.4968109939314865,6.753777143309849,-3.7865472376283753
-1.0783851340646762,-0.3383361270660259,6.715911670933565,-3.837693755377295
-1.0817684953353364,-0.17692370801492893,6.677534733379792,-3.88956063161433
-1.0835377324154856,-0.012576757278779188,6.638639127063649,-3.9430614682549887
-1.0836634999882733,0.1547688087755453,6.599208512381099,-3.9991617257921597
-1.0821158119005179,0.3252526517924136,6.5592168951231775,-4.058884384949271
-1.0788632853825937,0.49909864612070853,6.5186280512736845,-4.123317511062199
-1.0738722989213867,0.6766236205448981,6.477394876163062,-4.193623642417485
-1.0671060627159377,0.8582459790975349,6.435458639738887,-4.271050656746269
-1.0585236029249623,1.044493640068941,6.392748133171424,-4.356943295318572
-1.048078666524273,1.2360101278129298,6.349178700218238,-4.452753685459198
-1.0357185652461436,1.4335565839497613,6.304651163363646,-4.560047732372307
-1.021382999406646,1.6380056097572309,6.259050686039923,-4.6805016972137965
-1.0050029433090737,1.8503196753750983,6.2122456690677845,-4.815878889055353
-0.9864997465553227,2.071501481818264,6.164086880177231,-4.9679689708931445
-0.9657847317371401,2.302494874714189,6.1144071904683,-5.138460119190478
-0.9427597829899982,2.5440010902399797,6.063022589276395,-5.32869489312656
-0.9173197720875984,2.7961551179569835,6.009735640345129,-5.539232437653851
-0.8893582209080285,3.057982955804834,5.954343315968591,-5.769105358867414
-0.8587783913499801,3.3265459952921086,5.8966522623799165,-6.014637753508627
-0.8255129313970591,3.595716294580465,5.83650588484483,-6.267740523790559
-0.7895557684512544,3.8547138909796907,5.773828479606925,-6.513857830514829
-0.7510086295414575,4.0870214892656325,5.708689901301777,-6.730410778807634
-0.7101384146488012,4.2710837837855955,5.641385793513701,-6.88769024893933
-0.6674275768109452,4.384627404155361,5.572508891024308,-6.9547591147358645
-0.6235813027693916,4.412805620799876,5.502961299876949,-6.9106690373170325
-0.5794532465613929,4.356038512237535,5.433854609503778,-6.755281747170101
-0.5358928614390175,4.23091232457912,5.366301792032077,-6.510512436888434
-0.49358373819322626,4.062650151693061,5.301196667663193,-6.20996994830055
-0.45295723667629567,3.8754254783815707,5.2390969681801876,-5.885692987312457
-0.41420298189247995,3.686867281456776,5.180240038307063,-5.560712805202778
-0.3773343090779122,3.507463061501333,5.124632910255035,-5.248343114202898
-0.3422596784628989,3.342331051534971,5.072149479113006,-4.954674131013035
-0.3088363679475492,3.1932632681457553,5.022602737802876,-4.681389429285794
-0.27690373526609163,3.0602432557204997,4.975788843510018,-4.427833838591433
-0.24630130270888664,2.94238503806202,4.931510505124104,-4.19227742697152
-0.21687745232826644,2.8384571691351907,4.889587730854388,-3.9726104874837493
-0.18849288063691452,2.7471539010269077,4.849861625979551,-3.766695699654056
-0.16102134162664544,2.6672244399821747,4.81219466898301,-3.572530456946064
-0.1343490972268237,2.5975265869812336,4.77646936441355,-3.3883098210636637
-0.10837383135701137,2.5370418257438128,4.742586266202913,-3.2124401299775434
-0.08300341309957324,2.4848718067601263,4.710461864903138,-3.0435298386898753
-0.05815469503197197,2.4402266728520763,4.680026566516239,-2.8803712717881296
-0.03375242830345121,2.402410542664327,4.651222853798358,-2.7219200735007725
-0.00972832287680794,2.3708067508503303,4.62400365306335,-2.56727552960995
0.013979744631695365,2.344864028285019,4.598330897767251,-2.415663079030763
0.03742838491454556,2.3240840853547726,4.574174266976943,-2.266419402138253
0.06066922576809329,2.308010708971431,4.55151007295556,-2.1189800250442548
0.0837493328578076,2.2962203241409704,4.530320272705118,-1.9728691793406141
0.1067115360992173,2.288313910056963,4.510591580911711,-1.8276915819047805
0.12959467519978693,2.28391014883761,4.492314665092664,-1.683125784944408
0.15243377668816302,2.282639695575441,4.47548340724322,-1.538918759714378
0.17526017364391744,2.2841404771764156,4.460094219646076,-1.3948814021343872
0.1981015784156816,2.2880539470444146,4.4461454056247325,-1.2508846775393014
0.22098211788612576,2.2940222391060714,4.433636558849339,-1.1068561522500844
0.24392234027718648,2.3016861760128324,4.422567997326838,-0.962776691058639
0.2669392020373148,2.3106840917729823,4.412940230416251,-0.818677132535508
0.2900460429550446,2.320651428451854,4.404753459090896,-0.6746347889678848
0.31325255723956313,2.3312210603696375,4.398007111201218,-0.5307696551563108
0.3365647678432595,2.3420242883153826,4.3926994146496545,-0.38724025018620184
0.3599850107264133,2.3526924319758886,4.388827012147792,-0.2442390579646915
0.3835119350461722,2.3628589326736793,4.386384621568145,-0.10198757445185164
0.407140524372909,2.3721618624703007,4.385364745823627,0.03926898976005816
0.430862142997612,2.3802467216511003,4.385757435721228,0.1792672658092708
0.454664610214123,2.3867693963972796,4.387550108379321,0.317731425147339
0.47853230417809584,2.391399143610388,4.390727422630794,0.4543788808555137
0.5024462956141997,2.393821471453529,4.39527121143935,0.5889258394209542
0.526384510328735,2.3937407926780656,4.40116046983356,0.7210925488960479
0.5503219182555157,2.390882743009413,4.40837139532252,0.8506080986604423
0.5742307456856098,2.3849960779101913,4.416877476309125,0.9772146455726562
0.5980807064647118,2.375854086505246,4.4266496227648515,1.100670969435928
0.6218392473297643,2.3632554895295206,4.437656332459211,1.2207552950225031
0.6454718022250595,2.3470248168484664,4.449863885409436,1.3372673555894234
0.6689420503935442,2.3270122874328782,4.46323655896533,1.4500297109435079
0.692212173267873,2.3030932389000847,4.477736856074765,1.5588883689126791
0.7152431056568739,2.2751671734855745,4.4933257397638915,1.663712790210916
0.7379947773917296,2.2431565016627757,4.509962867666001,1.7643953813841349
0.7604263424083574,2.2070050731396416,4.527606821479843,1.8608505976943688
0.7824963931397538,2.166676587626544,4.546215327456786,1.9530137869938333
0.8041631590160193,2.12215297495548,4.565745465326724,2.0408399069925007
0.8253846887655741,2.0734328264717705,4.58615386439665,2.124302242428543
0.8461190170302918,2.0205299479252297,4.607396886820935,2.203391236434499
0.8663243165095441,1.9634720892536293,4.629430799185281,2.278113532977538
0.8859590374020804,1.902299889594236,4.652211934515056,2.3484913058588934
0.9049820362980228,1.8370660574776387,4.6756968475736445,2.4145619256255535
0.9233526968727992,1.7678347873140063,4.6998424668299,2.476377990095964
0.9410310447459392,1.6946813947997776,4.72460624673086,2.5340077182140996
0.957977858693937,1.6176921365459436,4.749946323913001,2.587535681771637
0.9741547800593965,1.5369641638248623,4.775821680730718,2.6370638262963677
0.9895244216976451,1.4526055475873019,4.802192318993681,2.682712712186656
1.0040504771735181,1.364735302499867,4.829019446115548,2.7246228910184915
1.017697830198517,1.2734833322895691,4.856265675025733,2.7629563208161825
1.0304326635214125,1.178990217606529,4.883895238233895,2.797897718760288
1.0422225656974777,1.0814067711681012,4.911874215421498,2.829655750875802
1.0530366334091588,0.9808932930962072,4.940170772930256,2.858463965952469
1.0628455663401208,0.8776184717501986,4.968755412589781,2.8845813951603194
1.071621751057623,0.7717578912899405,4.997601226541384,2.908292758963222
1.0793393299705223,0.6634921256441387,5.026684154131017,2.929908247986899
1.0859742512269637,0.5530044181938243,5.055983236610886,2.9497628730575767
1.0915042954089018,0.44047796581149795,5.085480865341462,2.9682154099942752
1.0959090750670168,0.3260928433635353,5.115163019441405,2.9856469950701907
1.0991700035006522,0.21002261890826235,5.145019489392107,3.0024594555521853
1.1012702296897348,0.09243071934270582,5.175044083947629,3.0190734848025675
1.1021945368831618,-0.026533389765561535,5.205234818795654,3.0359267919004655
1.1019292029855061,-0.1467381485123037,5.235594086714659,3.053472370955391
1.1004618215003832,-0.2680739177808127,5.266128810424213,3.0721770451910126
1.097781082322575,-0.39045702597595,5.296850580876123,3.092520446037984
1.0938765120628156,-0.5138338277423115,5.327775785336503,3.1149945890275372
1.0887381737853925,-0.6381847792177825,5.358925731226779,3.1401042078373296
1.0823563259932147,-0.7635285623964676,5.390326773305152,3.168368007377641
1.07472104036925,-0.8899263223615392,5.422010453378928,3.200320998509614
1.0658217771456346,-1.0174861150217054,5.454013663364025,3.236518083134519
1.0556469159954176,-1.146367699337456,5.48637884419537,3.2775390712176216
1.0441832390020431,-1.2767878469138996,5.519154234907546,3.3239953328597553
1.0314153605329042,-1.4090263834815828,5.552394188236144,3.376538320463578
1.0173250966980882,-1.5434332212781996,5.5861595714407795,3.4358702392721105
1.0018907644853063,-1.6804366880800858,5.6205182738335004,3.5027571985489887
0.9850863976045054,-1.8205535052116848,5.65554584581899,3.578045237049766
0.9668808625523886,-1.964400806993627,5.691326298189487,3.6626796762609417
0.9472368544824523,-2.112710613643776,5.727953094952097,3.7577282933492633
0.9261097483460146,-2.266347139152955,5.7655303778855895,3.864408781973815
0.903446276954485,-2.426327176057315,5.804174465705327,3.984120801456189
0.8791830051939118,-2.593843434455789,5.844015673719889,4.1184824432562595
0.8532445708493539,-2.770289898365598,5.885200498152452,4.269369857457366
0.8255416718656979,-2.957286565649553,5.927894196727026,4.438956480804672
0.7959688062092024,-3.1566975288089116,5.972283761535072,4.629743638655714
0.7644018309211132,-3.3706296569436085,6.0185811979216295,4.844565059103435
0.7306955343516771,-3.601386210218795,6.067026848512664,5.086529923245444
0.6946816722494892,-3.851325251850806,6.117892147745119,5.358835042446934
0.6561684197309812,-4.122527882151594,6.171480498169588,5.664314164955456
0.6149431409094652,-4.416104044601099,6.228123639819143,6.004484183746394
0.5707821004634542,-4.730847414654596,6.288168481656607,6.377684500328823
0.5234736263169083,-5.060834247199751,6.351945326659895,6.775739975846283
0.4728652838449108,-5.391650150904891,6.419702726418358,7.178696845225629
0.41894878233586186,-5.695841042594094,6.491489694870615,7.548448406212376
0.3619903719099209,-5.930949230043586,6.566974178932739,7.825927604228585
0.30268087960948503,-6.047534865856129,6.645233454975025,7.942197680895115
0.24220553095092373,-6.0123457643190354,6.724655431783976,7.850660470504515
0.18208207330773338,-5.833190887050783,6.803162036489021,7.561623231914506
0.12375016443722554,-5.557116486393743,6.8787782688081665,7.1396701765362165
0.06817899957328812,-5.240937064445713,6.950174970573529,6.66269559755144
0.015769628928830978,-4.926129368782749,7.016801926549043,6.187214258668257
-0.03349166475899651,-4.634108782895035,7.078674069135725,5.742022470025679
-0.07983275258794686,-4.372439247394238,7.136094293835982,5.3369164444663575
-0.12355714506188925,-4.14155488833761,7.189463458280645,4.972012280592752
-0.16497269394526534,-3.9389335856275705,7.239183581086573,4.6434899690009
-0.20436202980154106,-3.761170756235058,7.2856184807765825,4.346424073006635
-0.24197373736389163,-3.604875190897536,7.329082721506649,4.0759922889499105
-0.278022489272867,-3.466998508644779,7.369842644396148,3.827910363246627
-0.3126924743593148,-3.3449158371617957,7.408121748028615,3.598530946197694
-0.34614163273093274,-3.23640674084049,7.444107057490592,3.384810173988697
-0.37850570013933765,-3.1396023905226818,7.477955159230478,3.1842313540472555
-0.4099017240445645,-3.0529266463574047,7.509797472770951,2.9947226598618357
-0.44043099050813855,-2.975041667034523,7.539744699369569,2.8145825645033775
-0.4701814071784838,-2.9048013184879804,7.567890525014603,2.642416869400718
-0.4992294203633636,-2.841212661932645,7.5943146937086095,2.4770872204850107
-0.5276415469826901,-2.783404713676336,7.619085565913459,2.317669606601256
-0.5554755941194535,-2.7306033901720017,7.642262261979472,2.1634210146027506
-0.5827816280211735,-2.6821115928033454,7.663896472125499,2.0137525155212037
-0.609602743949207,-2.637293534280721,7.684033997280711,1.8682072944908863
-0.6359756792920142,-2.5955625721817634,7.70271607022562,1.726442398301935
-0.6619313050138318,-2.5563719601501558,7.719980494208639,1.588213216383397
-0.6874950246153334,-2.5192080428015355,7.735862626372473,1.4533599224778668
-0.7126871050433488,-2.4835855060067242,7.750396225597251,1.3217952860619187
-0.737522960103416,-2.449044353611164,7.76361417845787,1.1934934190384894
-0.7620134036395276,-2.4151483199961548,7.775549112648255,1.0684791586869602
-0.7861648868394892,-2.3814844507765103,7.786233904235124,0.9468179052264372
-0.8099797313472542,-2.347663596844449,7.795702083287389,0.8286058328938236
-0.8334563673156987,-2.313321575010531,7.803988141616327,0.7139604770335113
-0.856589583065804,-2.2781207561353263,7.811127746386662,0.6030117653497293
-0.8793707906271573,-2.2417518525051743,7.817157864040159,0.49589360797189996
-0.901788309152209,-2.203935692819182,7.822116800119878,0.3927361875192794
-0.9238276660804008,-2.1644247968312444,7.826044161995071,0.29365909703777876
-0.9454719140487132,-2.123004592470647,7.828980752965449,0.19876546188009273
-0.9667019599734197,-2.0794941550176174,7.830968407584249,0.1081371540005027
-0.9874969015235958,-2.033746388571556,7.8320497791242545,0.021831167592875386
-1.0078343654093114,-1.9856476119646036,7.832268090800183,-0.06012282183933701
-1.0276908415289574,-1.9351165515950275,7.83166686258179,-0.13772374209605664
-1.0470420070449076,-1.8821027797356003,7.830289625160829,-0.21099932657953235
-1.0658630348422635,-1.8265846665848526,7.828179631895034,-0.2800053489069589
-1.084128881508112,-1.768566936280681,7.825379578405964,-0.34482403595390787
-1.101814550870919,-1.7080779307105698,7.821931338046425,-0.40556182617237446
-1.1188953301780247,-1.645166690434329,7.817875719784701,-0.4623466495967159
