th1 (rad),w1 (rad/s),th2 (rad),w2 (rad/s),a1 (rad/s^2),a2 (rad/s^2)
5.1971759906939825,0.9132664581211049,5.455634985550408,-1.8922969135345444,10.78265154262396,-3.4221787216090296
5.206308655275193,1.0210929735473444,5.436712016415063,-1.9265187007506348,10.636384203207268,-3.2537247335136246
5.2165195850106665,1.1274568155794171,5.417446829407557,-1.959055948085771,10.446821822961336,-3.0269215928715743
5.22779415316646,1.2319250338090304,5.397856269926699,-1.9893251640144867,10.207393677163683,-2.730586573401151
5.240113403504551,1.3339989705806672,5.377963018286554,-2.016631029748498,9.912214073908617,-2.3544072449590807
5.253453393210357,1.4331211113197533,5.357796707989069,-2.040175102198089,9.556760539577088,-1.8899235469552436
5.2677846043235546,1.528688716715524,5.3373949569670875,-2.0590743376676417,9.138634965353175,-1.3316388515939963
5.28307149149071,1.6200750663690557,5.316804213590411,-2.0723907261835817,8.658313957338551,-0.6781292705706248
5.299272242154401,1.7066582059424413,5.296080306328576,-2.0791720188892877,8.119755091998389,0.06703675433894647
5.316338824213825,1.7878557568624251,5.275288586139683,-2.0785016513458983,7.5307063021586975,0.894786121118294
5.33421738178245,1.8631628198840122,5.254503569626224,-2.0695537901347154,6.902583411836995,1.7906309849359987
5.3528490099812895,1.9321886540023823,5.233808031724877,-2.0516474802853555,6.249845170005355,2.7354676117366994
5.372170896521314,1.9946871057024358,5.213291556922023,-2.0242928041679886,5.588898310190027,3.7070469409005535
5.3921177675783385,2.050576088804336,5.1930486288803435,-1.987222334758983,4.936679582857327,4.681918324736546
5.412623528466382,2.099942884632909,5.173176405532754,-1.9404031515116176,4.309148019477919,5.637524355794366
5.433622957312711,2.143034364827688,5.153772374017637,-1.884027907953674,3.719945386451557,6.554086362918497
5.455053300960987,2.1802338186922037,5.134932094938101,-1.818487044324489,3.1794356536247927,7.415982293491953
5.476855639147909,2.2120281752284514,5.116747224494856,-1.7443272213895693,2.694234180112611,8.212455874905245
5.498975920900194,2.2389705170295775,5.09930395228096,-1.6622026626405169,2.2672220531414564,8.937655815459596
5.52136562607049,2.261642737560992,5.082681925654555,-1.5728261044859209,1.8979483744528514,9.59013361392559
5.5439820534461,2.2806222213055207,5.066953664609696,-1.4769247683466649,1.5832750683507697,10.171997452005748
5.566788275659155,2.2964549719890286,5.052184416926229,-1.3752047938266074,1.3181161162798163,10.68792547402864
5.589752825379045,2.3096361331518267,5.038432368987963,-1.268325539086321,1.0961523564242583,11.144203022644305
5.612849186710563,2.3205976567160693,5.0257491135971,-1.156883508859878,0.9104457675409844,11.547890360793007
5.636055163277724,2.329702114391479,5.014180278508501,-1.041404605251948,0.753918437800138,11.906170922163536
5.659352184421638,2.3372412987694804,5.003766232455982,-0.9223428960303125,0.6196928232991464,12.225886905845327
5.682724597409333,2.343438227002472,4.994542803495679,-0.8000840269718592,0.5013091963042454,12.513242288674395
5.7061589796793575,2.3484513189655143,4.98654196322596,-0.6749516040851152,0.3928449941946974,12.773640941149173
5.7296434928690125,2.3523797689074613,4.979792447185109,-0.5472151946736235,0.288962260722198,13.011625220713293
5.753167290558087,2.355269391514683,4.974320295238373,-0.4170989424664905,0.18490665275030424,13.230883900595215
5.776719984473234,2.3571184580421862,4.970149305813708,-0.28479010346053835,0.07647696252590569,13.434304288126544
5.800291169053656,2.357883227667445,4.967301404779103,-0.1504470605792729,-0.040020699339276995,13.624049796489599
5.823870001330331,2.3574830206740525,4.96579693417331,-0.014206562614376916,-0.1678242000047082,13.801649948210343
5.8474448315370715,2.3558047786740053,4.965654868547166,0.12380993686772651,-0.3097657539435856,13.968094371102062
5.871002879323812,2.3527071211345696,4.966892967915844,0.26349088057874714,-0.4683175580649584,14.12392575328531
5.894529950535158,2.34802394555392,4.9695278767216315,0.40473013811160025,-0.6456307365400084,14.26932909828612
5.918010189990697,2.3415676381885198,4.973575178102748,0.5474234290944615,-0.8435669017153924,14.404216173756561
5.941425866372582,2.3331319691713657,4.979049412393692,0.6914655908320271,-1.0637224634050244,14.528304986253103
5.964757186064296,2.3224947445373156,4.985964068302013,0.8367486406945581,-1.3074463376804144,14.641194617499893
5.987982133509669,2.3094202811605116,4.994331554708959,0.9831605868695571,-1.5758520174462336,14.742435964146123
6.011076336321274,2.293661760986049,5.004163160577654,1.1305849465110183,-1.8698251419167082,14.831598936862363
6.034012953931135,2.274963509566882,5.015469010042764,1.278900935879642,-2.1900277885132886,14.908336569903247
6.056762589026803,2.2530632316817494,5.0282580194015605,1.4279843015786744,-2.536900738392153,14.972446320652276
6.079293221343621,2.227694224297828,5.042537862417348,1.5777087647851973,-2.9106649519162406,15.023928635292359
6.101570163586599,2.1985875747786654,5.058314950065199,1.7279480511381209,-3.3113234391742914,15.06304264476232
6.123556039334385,2.1654743403869223,5.07559443057658,1.8785784775857441,-3.7386646222283426,15.090358648737439
6.145210782738254,2.128087694164639,5.094380215352437,2.0294820640731186,-4.192268153913394,15.106806851288558
6.166491659679901,2.086165012625505,5.1146750359931685,2.180550132586004,-4.671513972140424,15.113721629789532
6.187353309806156,2.039449872904101,5.136480537319029,2.3316873488838996,-5.175595114001988,15.1128804401305
6.2077478085351965,1.987693921764081,5.159797410807868,2.4828161532852047,-5.703534470855329,15.10653626756833
6.227624747752837,1.9306585770555278,5.18462557234072,2.633881515960888,-6.254205207456661,15.097442290656574
6.246931333523392,1.8681165249809613,5.210964387500329,2.784855938867454,-6.826353958427776,15.088867082773628
6.265612498773201,1.7998529853966836,5.238812946889004,2.93574460969519,-7.418625101408574,15.08459815056268
6.283611028627168,1.7256667343825978,5.268170392985956,3.086590591200817,-8.02958331153059,15.088930779252179
6.300867695970994,1.645370901267292,5.299036298897964,3.237479898993339,-8.657730112868729,15.106637841238049
6.317321404983667,1.5587936001386047,5.331411097887898,3.3885462774057196,-9.301508090845925,15.142914162989713
6.3329093409850525,1.4657785192301453,5.365296560661955,3.5399754190356165,-9.959283566450654,15.20328585420802
6.347567126177354,1.3661856835656387,5.400696314852311,3.692008277577697,-10.62929449598874,15.29347013402014
6.36122898301301,1.2598927386057515,5.437616397628088,3.8449429789178984,-11.309544631520522,15.419163867724798
6.373827910399068,1.1467972922905463,5.476065827417267,3.9991346175951463,-11.997616843368903,15.58572818946495
6.385295883321973,1.0268211238568572,5.516057173593219,4.154991899489795,-12.690367036319694,15.797720832847267
6.395564094560542,0.8999174534936603,5.557607092588117,4.312969107818268,-13.383444192682715,16.05820544123725
6.404563269095479,0.7660830115668331,5.600736783666299,4.47355116223064,-14.070560752009559,16.36773653083245
6.412224099211147,0.6253774040467375,5.645472295288606,4.637228527538965,-14.742410625554195,16.722879262056367
6.418477873251614,0.47795329779119555,5.691844580563996,4.804457320159528,-15.385102082266007,17.114077399770473
6.423257406229526,0.32410227696853544,5.739889153765591,4.975598094157233,-15.97794840844427,17.522641994307865
6.426498428999212,0.16432279288409274,5.789645134707164,5.150824514100312,-16.490463538743786,17.916627514491935
6.4281416569280525,-0.0005818425033451147,5.8411533798481665,5.329990789245231,-16.87849313793777,18.245459126386653
6.428135838503019,-0.1693667738827228,5.894453287740619,5.512445380509098,-17.079671348750434,18.433507626688336
6.426442170764192,-0.34016348737022717,5.94957774154571,5.696780456775981,-17.00899151580816,18.373601328363467
6.42304053589049,-0.5102534025283088,6.00654554611347,5.880516470059615,-16.556421050974617,17.923006814596548
6.417938001865206,-0.6758176130380549,6.065350710814066,6.059746538205581,-15.590271562391958,16.90685224933864
6.411179825734825,-0.8317203286619744,6.125948176196122,6.228815060698968,-13.971994089150709,15.136705692549072
6.402862622448206,-0.9714402695534815,6.1882363268031115,6.380182117624458,-11.588390162499003,12.452599886777895
6.393148219752671,-1.0873241711784716,6.2520381479793565,6.504708116492237,-8.402263460079187,8.790219471667868
6.382274978040886,-1.1713468057792635,6.317085229144279,6.592610311208916,-4.50889086800123,4.256538403043466
6.3705615099830935,-1.216435714459276,6.383011332256368,6.635175695239351,-0.1672575152448485,-0.8278482020654556
6.358397152838501,-1.2181082896117243,6.449363089208761,6.6268972132186965,4.2302466358160205,-5.968601777954811
6.3462160699423835,-1.1758058232535642,6.515632061340948,6.567211195439149,8.257352979476904,-10.629757625525539
6.334458011709848,-1.0932322934587952,6.58130417329534,6.460913619183893,11.578479507742808,-14.398025271197005
6.32352568877526,-0.9774474983813671,6.645913309487179,6.316933366471923,14.029263405519114,-17.0864966481212
6.313751213791447,-0.837154864326176,6.709082643151898,6.14606839999071,15.617617905243472,-18.731667498651635
6.305379665148185,-0.6809786852737413,6.770543327151805,5.958751725004194,16.4665149210141,-19.514206096393703
6.298569878295448,-0.5163135360636003,6.830130844401847,5.763609664040257,16.744494337026907,-19.665952611492337
6.2934067429348115,-0.34886859269333126,6.8877669410422495,5.566950137925334,16.615396264317575,-19.40462141463273
6.2899180570078785,-0.1827146300501555,6.943436442421503,5.372903923779006,16.214073025172347,-18.903943277189974
6.288090910707377,-0.02057389979843205,6.997165481659294,5.183864491007107,15.64090704930808,-18.288673869268223
6.287885171709393,0.13583517069464876,7.049004126569365,5.000977752314425,14.965783949130431,-17.64157101524525
6.2892435234163395,0.2854930101859531,7.099013904092509,4.824562042161972,14.235067965887282,-17.013723107729597
6.292098453518199,0.4278436898448259,7.147259524514128,4.6544248110846755,13.478368310169618,-16.434105708407536
6.2963768904166475,0.5626273729465221,7.193803772624975,4.4900837540006,12.713964872608557,-15.917036994657245
6.302003164146113,0.6897670216726077,7.238704610164981,4.3309133840540275,11.952767273411883,-15.46750431807849
6.308900834362839,0.8092946944067265,7.282013744005521,4.176238340873242,11.20104934171,-15.084777267580343
6.316993781306906,0.9213051878238265,7.323776127414254,4.025390568197439,10.462271466544472,-14.764778410509031
6.326206833185145,1.0259279024892713,7.3640300330962285,3.877742784092349,9.738263091690659,-14.501603719273056
6.336466112210037,1.123310533406178,7.402807460937152,3.732726746899618,9.029971604196318,-14.288480970980045
6.3476992175441,1.213610249448141,7.440134728406148,3.5898419371898176,8.337923540929909,-14.118364972360633
6.359835320038581,1.2969894848574401,7.476033147778047,3.4486582874662113,7.662497615869533,-13.984301701997316
6.372805214887156,1.3736144610161354,7.510519730652709,3.308815270446238,7.004076059511301,-13.879647012755854
6.386541359497317,1.4436552216112484,7.543607883357172,3.1700188003186796,6.36311824831208,-13.798194471133124
6.400977911713429,1.5072864040943692,7.575308071360359,3.0320368556073483,5.740185596055331,-13.734246631074308
6.416050775754373,1.5646882600549226,7.6056284399164324,2.894694389296605,5.1359367928827595,-13.682651020200165
6.431697658354922,1.6160476279837501,7.634575383809398,2.7578678790946034,4.551105990160101,-13.638813868777381
6.447858134634759,1.6615586878853512,7.662154062600345,2.6214797404068295,3.9864722627600533,-13.598699456767063
6.464473721513613,1.7014234105129518,7.688368860004413,2.4854927458391587,3.442825853113822,-13.55881978448594
6.481487955618743,1.73585166904409,7.7132237874628045,2.3499045479942993,2.9209348043747063,-13.5162173665348
6.498846472309184,1.765061017087837,7.736722832942747,2.214742374328951,2.4215142958053186,-13.46844283959471
6.516497082480062,1.7892761600458902,7.758870256686037,2.080057945933004,1.9452000933705795,-13.4135284605941
6.534389844080521,1.808728160979596,7.779670836145367,1.945922661327063,1.4925268903960778,-13.34995825766662
6.552477125690317,1.8236534298835567,7.799130062758637,1.8124230787503968,1.0639118537426453,-13.276635456604343
6.570713659989153,1.834292548420983,7.817254293546141,1.6796567241843534,0.6596433576887143,-13.192847759677635
6.5890565854733625,1.8408889819978702,7.834050860787985,1.547728246587577,0.2798746471167932,-13.098231050925838
6.607465475293341,1.843687728469038,7.8495281432538615,1.4167459360783186,-0.07537799817180817,-12.992732111171769
6.625902352578032,1.84293394848732,7.863695602614644,1.2868186149666008,-0.4062331400206495,-12.876570929045217
6.644331692062905,1.8388716170871136,7.876563788764311,1.1580529056761486,-0.7129387100665594,-12.750203181943853
6.662720408233776,1.8317422299864479,7.888144317821072,1.03055087385671,-0.9958638322212745,-12.614283429636803
6.68103783053364,1.821783591664235,7.89844982655964,0.904408039560342,-1.2554885847439115,-12.4696295133825
6.6992556664502825,1.809228705816796,7.907493906955243,0.779711744426517,-1.4923923264372196,-12.317188587517455
6.71734795350845,1.7943047825524236,7.915291024399508,0.6565398585513424,-1.707241173258853,-12.158005132231647
6.735291001333974,1.7772323708198352,7.921856422985021,0.534959807229026,-1.9007751610916064,-11.993191209909753
6.753063325042172,1.758224619208919,7.927206021057311,0.4150278951299285,-2.0737955722687147,-11.823899137164794
6.770645571234261,1.7374866634862318,7.931356300008611,0.29678890375828054,-2.2271528418628317,-11.651296654290421
6.788020437869124,1.7152151350676035,7.934324189046194,0.18027593721537633,-2.361735398297981,-11.476544586449329
6.8051725892198,1.6915977810846237,7.936126948418348,0.06551049135088303,-2.4784597345005595,-11.300776908892848
6.822088567030646,1.666813183739618,7.936782053331857,-0.04749727773804545,-2.5782619529183344,-11.12508305349729
6.838756698868043,1.6410305642104348,7.936307080554477,-0.15874810827301836,-2.6620909820481327,-10.950492226804391
6.855167004510147,1.6144096543899535,7.934719599471747,-0.26825303054106225,-2.730903624782836,-10.777959450835715
6.871311101054046,1.5871006181421252,7.932037069166337,-0.3760326250494194,-2.7856615705209102,-10.608352986992399
6.887182107235468,1.559244002436916,7.928276742915843,-0.4821161549193434,-2.8273304836492397,-10.44244275981816
6.9027745472598365,1.5309706976004236,7.92345558136665,-0.5865405825175249,-2.8568812702571154,-10.280889360658305
6.918084254235841,1.5024018848978524,7.917590175541474,-0.689349476124108,-2.875293621753506,-10.124233180804357
6.9331082730848195,1.4736489486803173,7.910696680780234,-0.7905918079321516,-2.8835619367950422,-9.972883199533172
6.947844762571623,1.4448133293123668,7.902790762700912,-0.8903206399274832,-2.8827037291637647,-9.82710493530527
6.9622928958647465,1.4159862920207291,7.893887556301637,-0.988591689280536,-2.8737706355277766,-9.687007060317091
6.976452758784954,1.3872485856654513,7.884001639408832,-1.0854617598837069,-2.857862138594403,-9.552526183472718
6.990325244641609,1.3586699642795073,7.873147021809995,-1.180987021718434,-2.836142111439176,-9.423409331052875
7.003911944284404,1.3303085431651156,7.861337151592811,-1.2752211150289627,-2.809858258779445,-9.29919370770619
7.017215029716056,1.3022099605773212,7.848584940442521,-1.3682130521060247,-2.7803644685628193,-9.1791834170668
7.030237129321828,1.274406315891693,7.834902809921461,-1.4600048862766928,-2.749145976468325,-9.06242298100509
7.042981192480745,1.2469148561270098,7.820302761058694,-1.5506291160867436,-2.7178470661642424,-8.947667745456382
7.0554503410420155,1.2197363854653673,7.804796469897827,-1.6401057935413075,-2.688300753785965,-8.833351632301877
7.067647704896669,1.1928533779275077,7.788395411962414,-1.7284393098643263,-2.662559505730879,-8.717553231045787
7.079576238675944,1.1662277828701988,7.77111101886377,-1.8156148421747842,-2.6429254812293297,-8.597961965693182
7.091238516504646,1.1397985280579055,7.752954870442022,-1.901594461831716,-2.6319780433591817,-8.47184706474225
7.102636501785225,1.1134787476243138,7.733938925823705,-1.9863129324791384,-2.632595322118516,-8.336033336712692
7.113771289261469,1.0871527944031285,7.714075796498913,-2.0696732658462653,-2.6479654427437227,-8.186889309960351
7.1246428172055,1.0606731399756912,7.6933790638404504,-2.151542158945869,-2.681581699374756,-8.020335072837184
7.135249548605257,1.0338573229819437,7.671863642250992,-2.2317455096742407,-2.73721458218962,-7.8318789862859175
7.145588121835076,1.0064851771600474,7.649546187154249,-2.3100642995370997,-2.818852391750423,-7.61669402240121
7.155652973606677,0.9782966532425431,7.626445544158878,-2.386231239761112,-2.9306015825286442,-7.3697452964179035
7.165435940139102,0.9489906374172566,7.602583231761267,-2.459928692725291,-3.076538520619514,-7.085979667909071
7.174925846513275,0.9182252522110615,7.577983944834014,-2.5307884894043817,-3.2605067118547506,-6.760585161544524
7.184108099035385,0.8856201850925141,7.55267605993997,-2.598394341019827,-3.4858584816024827,-6.3893214277066805
7.1929643008863104,0.8507616002764893,7.526692116529772,-2.662287555296894,-3.755148095589413,-5.968911825638455
7.2014719168890755,0.8132101193205952,7.500069240976803,-2.721976673553278,-4.06979437315459,-5.497473021559807
7.209604018082281,0.7725121755890493,7.47284947424127,-2.7769514037688765,-4.429743933457748,-4.974940659295755
7.217329139838172,0.7282147362544718,7.445079960203581,-2.826700810361834,-4.833178948384323,-4.4034329220025175
7.224611287200716,0.6798829467706285,7.416812952099963,-2.870735139581859,-5.276321911940965,-3.7874827241988465
7.231410116668422,0.6271197276512189,7.388105600704144,-2.908609966823848,-5.753390032193081,-3.1340698286004254
7.237681313944934,0.5695858273292881,7.359019501035905,-2.939950665109852,-6.256739716384979,-2.4524012670623363
7.243377172218227,0.5070184301654383,7.329619994384807,-2.9644746777804754,-6.777216272157217,-1.7534232065046298
7.248447356519882,0.4392462674438662,7.2999752476070014,-2.9820089098455216,-7.3046887568455094,-1.049095042992319
7.25283981919432,0.36619937987541107,7.270155158508547,-2.9924998602754447,-7.828712784886541,-0.35150610290206785
7.256501812993075,0.2879122520265457,7.240230159905792,-2.9960149213044653,-8.339235511288289,0.32804736757948205
7.25938093551334,0.2045198969136628,7.2102700106927475,-2.9927344476286706,-8.827246155850126,0.9798945571288434
7.261426134482477,0.11624743535516152,7.180342666216461,-2.9829355020573822,-9.285286332142732,1.596618393502871
7.262588608836029,0.0233945720337342,7.150513311195887,-2.9669693181223535,-9.707763957302943,2.1734082493609663
7.262822554556366,-0.07368306753929522,7.120843618014663,-2.945235235628744,-10.09105357706839,2.708119461642327
7.262085723880973,-0.17459360330997914,7.091391265658376,-2.9181540410123206,-10.43340334641515,3.2010727380759336
7.260339787847873,-0.2789276367741306,7.062209725248253,-2.8861433136315613,-10.734695637312408,3.6546617452286476
7.257550511480132,-0.3862745931472547,7.0333482921119375,-2.8495966961792747,-10.996120170181081,4.072851700970176
7.253687765548659,-0.49623579484906555,7.004852325150145,-2.808868179169573,-11.219816658377177,4.460647407688258
7.248725407600169,-0.6084339614328373,6.976763643358449,-2.7642617050926903,-11.408532557048842,4.823592149725093
7.242641067985841,-0.7225192870033258,6.949121026307522,-2.7160257835954393,-11.565325950200064,5.167336711756724
7.235415875115808,-0.8381725465053265,6.921960768471568,-2.6643524164778722,-11.693328344844856,5.497296556022496
7.227034149650755,-0.955105829953775,6.8953172443067885,-2.6093794509176473,-11.79556987652325,5.8183985248533885
7.217483091351217,-1.0730615287190075,6.869223449797612,-2.5511954656691134,-11.874861149771224,6.134907501394262
