th1 (rad),w1 (rad/s),th2 (rad),w2 (rad/s)
4.550662009475137,1.7223881912758472,4.445584042907161,-0.9040971340771085
4.5678858913878955,1.816828734509716,4.43654307156639,-0.9003726646269142
4.586054178732993,1.910351427196751,4.42753934492012,-0.8944717176767408
4.60515769300496,2.0026658831762982,4.418594627743353,-0.8858171136225178
4.625184351836723,2.0934771871185935,4.409736456607128,-0.8738126231355287
4.646119123707909,2.182495608957717,4.4009983303757725,-0.8578577369856382
4.667944079797486,2.2694467112820544,4.392419753005916,-0.8373634375733129
4.690638546910307,2.3540810791825284,4.384046118630183,-0.811767894758743
4.7141793577021325,2.436182855404802,4.375928439682595,-0.7805509234617682
4.738541186256181,2.515576324832427,4.368122930447978,-0.74324610889653
4.763696949504505,2.592129960655729,4.360690469359013,-0.6994497287207232
4.789618249111062,2.665757596248714,4.353695972071805,-0.6488259482249703
4.816275825073549,2.73641667951489,4.347207712589555,-0.5911081763630621
4.843639991868698,2.8041038499831417,4.341296630825925,-0.5260968757957811
4.87168103036853,2.8688483076413163,4.3360356620679665,-0.4536544534865982
4.900369513444943,2.9307035860998782,4.331499117533101,-0.3736980747389956
4.929676549305942,2.989738391413009,4.327762136785711,-0.2861913264092392
4.959573933220072,3.0460271313949674,4.3249002235216185,-0.19113561531888384
4.990034204534021,3.0996406616685808,4.32298886736843,-0.08856205603661356
5.0210306111507075,3.150637642594472,4.322103246808064,0.021475582943028038
5.052536987576652,3.199056762593043,4.322318002637494,0.1389065068322089
5.084527555202583,3.2449099587324457,4.323707067705816,0.2636469167395259
5.116976654789908,3.288176667164165,4.326343536873211,0.3956024053173289
5.149858421461549,3.328799068725018,4.330299560926385,0.5346688253722409
5.183146412148799,3.3666782576656273,4.335646249180107,0.6807318148363368
5.2168131947254555,3.401671249323195,4.34245356732847,0.8336652143927237
5.250829907218687,3.4335887493594575,4.3507902194723975,0.9933286437374017
5.285165794712282,3.4621936264923754,4.360723505909772,1.159564516733486
5.319787730977206,3.487200056669718,4.3723191510771064,1.3321947811306283
5.354659731543903,3.508273334553604,4.385641098888413,1.511017669836182
5.389742464889439,3.5250303741967346,4.400751275586774,1.6958047507931164
5.424992768631406,3.537040941938632,4.417709323094705,1.8862985624834758
5.460363178050793,3.543829678545551,4.43657230871954,2.082211121666683
5.495801474836249,3.544878972681525,4.4573944199362066,2.283223587849243
5.531250264563064,3.539632742575106,4.480226655814699,2.488987363118476
5.566646591988815,3.5275011663110725,4.505116529445884,2.699126893914659
5.601921603651926,3.507866373130997,4.53210779838503,2.9132444205229353
5.637000267383236,3.4800890687854924,4.56124024259026,3.130926888168781
5.671801158071091,3.4435160186314797,4.5925495114719475,3.3517551886206385
5.706236318257406,3.3974882553980885,4.626067063358154,3.5753158416910136
5.740211200811387,3.341349818636912,4.661820221775065,3.801215151047468
5.7736246989977555,3.2744567762764603,4.699832373285539,4.029095777602957
5.8063692667605205,3.196186234639175,4.740123331061569,4.258655565299998
5.838331129106912,3.1059450245928724,4.782709886714569,4.489668325357938
5.8693905793528405,3.0031777759612477,4.8276065699681485,4.722006128792592
5.899422357112453,2.887374184754076,4.874826631256075,4.9556624577168815
5.9282960989599935,2.7580754737898836,4.924383255833243,5.190775293166566
5.955876853697893,2.6148803994659677,4.976291008764909,5.42764881508502
5.982025657692552,2.457451745843731,5.030567496915759,5.666771760589377
6.006600175150989,2.2855251963659287,5.087235214521653,5.9088294634404885
6.029455427114649,2.098923978562065,5.1463235091560575,6.154704906781082
6.05044466690027,1.8975850410072181,5.207870558223869,6.405461324870863
6.069420517310342,1.681606199357879,5.271925171472577,6.662294316786981
6.086236579303921,1.4513293125000892,5.338548114640447,6.926434128811128
6.1007498724289215,1.2074828585321147,5.407812455928558,7.198967548834027
6.112824701014243,0.9514187124736595,5.479802131416898,7.480532844579581
6.122338888138979,0.6854913229090094,5.5546074598626936,7.770821460115229
6.12919380136807,0.413636690044334,5.632315674463846,8.06780439766116
6.133330168268513,0.14219504293339413,5.712993718440457,8.366613634420755
6.134752118697847,-0.11905800921731408,5.796659854784665,8.658107307945045
6.133561538605674,-0.3559260185758762,5.883240927864116,8.927433655173065
6.130002278419916,-0.5495281182030377,5.972515264415847,9.153473558177394
6.124506997237885,-0.6779259248437302,6.064049999997621,9.310714273133822
6.117727737989448,-0.7207190431470213,6.15715714272896,9.375010688612674
6.110520547557978,-0.6659802497439792,6.250907249615087,9.332427774209433
6.103860745060538,-0.5158940612806655,6.344231527357181,9.186360226513209
6.098701804447731,-0.28660748096381183,6.436095129622313,8.957053276990443
6.095835729638092,-0.00192668594599249,6.525665662392218,8.673223815859476
6.095816462778632,0.31449623557729733,6.612397900550812,8.362052880046425
6.098961425134405,0.6439676363524478,6.696018429351277,8.043401584577722
6.10540110149793,0.9737936155151403,6.776452445197054,7.728987902452903
6.115139037653081,1.2962074123702796,6.853742324221583,7.4241835617846474
6.128101111776783,1.6067970514170107,6.92798415983943,7.1302889708723605
6.144169082290953,1.9031954200450405,6.999287049548154,6.846341107414067
6.163201036491404,2.1841944290546946,7.067750460622294,6.570302859567886
6.185042980781951,2.449210443379155,7.133453489217973,6.299768937706078
6.209535085215743,2.697986940223548,7.196451178595034,6.032357292046922
6.236514954617978,2.9304423855373325,7.256774751515503,5.7659132574639065
6.265819378473352,3.1466017640888975,7.314433884090143,5.498607136219284
6.2972853961142405,3.3465737242939864,7.369419955452336,5.2289722914987875
6.330751133357181,3.5305506790642047,7.421709678367323,4.955909907012013
6.366056640147823,3.698818602257434,7.4712687774374436,4.6786745266877166
6.403044826170397,3.851768873106207,7.518055522704321,4.396847915114341
6.4415625149014595,3.9899078873526,7.562024001855464,4.110305374759893
6.481461593774985,4.113862219055032,7.603127055603063,3.8191770154234512
6.522600215965536,4.224378423462193,7.641318825757298,3.523805771641357
6.564844000200158,4.322317416243857,7.676556883473712,3.2247037316609783
6.6080671743625965,4.408643904980089,7.708803920790322,2.9225083098787348
6.6521536134123975,4.484411666384361,7.7380290038891095,2.617939818825829
6.696997730076241,4.550745599588132,7.764208402077368,2.311762008141473
6.742505186072123,4.608821465637865,7.787326022158783,2.0047471167443445
6.788593400728502,4.659844061242589,7.807373493326226,1.6976469438244106
6.835191841340928,4.705024281063806,7.824349962764471,1.3911714201736591
6.8822420841515655,4.745555103331338,7.838261676966207,1.085976204702927
6.929697635184879,4.782585988892488,7.849121439013236,0.7826610012565388
6.977523495073804,4.817194509693853,7.856948049025801,0.4817806482716537
7.025695440170742,4.850353215337761,7.8617658555085175,0.18387162617328134
7.07419897232412,4.882888818732068,7.86360457177025,-0.1105025368450106
7.12302786051144,4.91542980196724,7.8624995464018,-0.4006824868312065
7.172182158531113,4.948337712336333,7.858492721533488,-0.6858155589211516
7.221665535654476,4.98161721217903,7.851634565944277,-0.9647242114890172
7.271481707776267,5.014801344773434,7.841987323829387,-1.2357371967988362
7.321629721224001,5.04681325223047,7.829629951861398,-1.496487221606119
7.372097853746306,5.07581644453468,7.814665079645337,-1.743694353836203
7.422856018191653,5.09908575568812,7.797228136106975,-1.9729827818628072
7.473846875748534,5.1129612457607125,7.777498308288347,-2.1788208393867086
7.524976488206141,5.11298024788098,7.75571009989448,-2.354719890010239
7.576106290684951,5.094294499809158,7.7321629009943775,-2.493842403708238
7.627049235683042,5.0524274204142605,7.707224476957295,-2.590093218231078
7.677573509887185,4.984276519849917,7.681323544774984,-2.6395522196769168
7.727416275085684,4.889054803594373,7.654928022578215,-2.641805687629858
7.776306823121628,4.768745488011477,7.628509965701916,-2.6005656333571197
7.823994278001742,4.62778915296518,7.602504309368345,-2.523177360890269
7.870272169531394,4.472104515228268,7.577272535759442,-2.4191650505988087
7.914993214683677,4.307879029291367,7.553080885253454,-2.298446355987449
7.95807200497659,4.140593786179238,7.53009642169358,-2.1698880182184475
7.999477942838383,3.9745093947369767,7.508397541511395,-2.0405328816855683
8.039223036785753,3.812575611468572,7.4879922126945395,-1.9154478050973054
8.07734879290044,3.656599773204537,7.468837734643566,-1.7979556105974932
8.113914790632485,3.5075132344671225,7.450858178537591,-1.6900177908922112
8.148989922977156,3.3656344043793642,7.433958000628669,-1.5926190328302217
8.18264626702095,3.23088400218072,7.418031810300367,-1.5060867467175798
8.214955107042757,3.1029435181857914,7.402970942833192,-1.4303303745073184
8.245984542224615,2.9813639657885127,7.388667639088118,-1.3650092137093714
8.2757981818825,2.8656366369144486,7.375017546951025,-1.3096448037481814
8.304454548251645,2.7552369630396316,7.361921098913543,-1.2636934886289013
8.33200691788204,2.6496502663100023,7.349284164027254,-1.2265917027071234
8.35850342054514,2.548385753741083,7.337018247000183,-1.1977831704390303
8.383987278082552,2.4509831131401683,7.325040415295792,-1.176734406215423
8.408497109213954,2.3570146005326267,7.313273071233637,-1.16294280729301
8.43206725521928,2.2660844884495366,7.301643643160707,-1.155940161928644
8.454728100103775,2.177827060148309,7.290084241541421,-1.1552933970612562
8.476506370705259,2.0919038864420036,7.278531307570808,-1.1606037279077168
8.49742540956968,2.0080008328022707,7.266925270291731,-1.171504939054403
8.517505417897702,1.9258250606035325,7.255210220901187,-1.1876612466633778
8.536763668503738,1.8451021709922257,7.243333608434553,-1.208765011865836
8.55521469021366,1.7655735685055465,7.231245958315895,-1.2345344612224165
8.572870425898715,1.686994078311076,7.218900613703671,-1.264711498182974
8.589740366681825,1.6091298255046602,7.206253498721841,-1.2990596446898104
8.605831664936872,1.5317563706851074,7.193262902274943,-1.3373621246430867
8.621149228643723,1.4546570888026256,7.179889281028512,-1.379420084549993
8.63569579953175,1.3776217753711466,7.166095080183012,-1.4250509372249636
8.649472017285461,1.3004454638447576,7.151844570810762,-1.4740868092707142
8.66247647192391,1.2229274392159306,7.137103702718055,-1.5263730705687903
8.67470574631607,1.1448704350283465,7.121839972012367,-1.5817669230764282
8.686154450666352,1.066080003592546,7.106022302781603,-1.6401360261951674
8.696815250702278,0.9863640519888301,7.089620942519651,-1.7013571364369657
8.706678891222166,0.905532539275509,7.072607371155281,-1.7653147398275437
8.715734216614921,0.8233973330849822,7.054954223757006,-1.8318996563299128
8.72396818994577,0.7397722264086544,7.036635227193707,-1.901007596496317
8.731365912209856,0.6544731177803913,7.017625151228744,-1.9725376515711175
8.73791064338766,0.56731836020391,6.997899774713033,-2.046390699417177
8.743583826989699,0.47812928596141663,6.977435867718861,-2.1224677100014615
8.748365119849312,0.3867309158050015,6.956211190618847,-2.2006679358539634
8.752232429007362,0.29295286186796704,6.934204511260307,-2.2808869750300422
8.755161957626042,0.19663043382095968,6.911395641510007,-2.363014696798219
8.757128261964251,0.09760595719973955,6.887765494542024,-2.4469330236925204
8.758104321536248,-0.004269688705705529,6.863296164305099,-2.5325135678635275
8.75806162464919,-0.10913530865027252,6.837971028626464,-2.6196151249819093
8.756970271562688,-0.21711740407521107,6.811774877376645,-2.708081035419152
8.754799097521936,-0.32832796506483664,6.784694067022453,-2.797736430141043
8.751515817871287,-0.4428620529396177,6.756716702721043,-2.8883853877281758
8.74708719734189,-0.5607951932411505,6.727832848843762,-2.979808039124081
8.74147924540948,-0.6821806088529665,6.698034768452521,-3.0717576679264234
8.73465743932095,-0.8070463343886319,6.6673171917732565,-3.1639578659498655
8.726586975977064,-0.9353922654518102,6.635677613113758,-3.256099815889665
8.717233053322545,-1.067187209427297,6.603116614954861,-3.347839784488916
8.706561181228272,-1.2023660173776358,6.569638217109972,-3.438796919735609
8.694537521054496,-1.340826888454107,6.535250247912616,-3.5285514531705187
8.681129252169955,-1.4824289478361792,6.499964733380911,-3.6166434121106197
8.666304962691592,-1.6269902052906735,6.463798299259805,-3.7025719451676586
8.650035060638686,-1.7742860026356668,6.426772579808128,-3.785795356631522
8.63229220061233,-1.9240480534359845,6.388914626241813,-3.86573193012098
8.61305172007797,-2.0759641661517545,6.350257306940603,-3.9417615988913632
8.592292078416452,-2.2296787222055405,6.310839690951689,-4.013228489559983
8.569995291194397,-2.384793953242281,6.27070740605609,-4.0794443289345095
8.546147351661974,-2.54087202836324,6.229912962766745,-4.139692662373728
8.520738631378341,-2.697437924501393,6.188516036143008,-4.193233790087259
8.493764252133328,-2.853983014610996,6.146583698242135,-4.239310289440005
8.465224421987218,-3.009969273120959,6.104190595347735,-4.277152961847185
8.435124729256009,-3.164833970887793,6.061419065729263,-4.305987027624124
8.40347638954713,-3.317994717497642,6.018359195453022,-4.325038396110686
8.370296442372153,-3.468854711461831,5.975108811491915,-4.333539865147149
8.335607895257535,-3.6168080815979913,5.931773412840443,-4.330737155017705
8.299439814441556,-3.761245246682088,5.8884660412902665,-4.315894755878815
8.261827361974735,-3.901558283733726,5.845307093731479,-4.288301659572322
8.222811779137398,-4.0371463735764515,5.802424077135756,-4.247277147991994
8.182440315401633,-4.167421478107143,5.759951305655836,-4.192176908629464
8.140766100620562,-4.29181448674227,5.718029536569541,-4.122399828294626
8.097847955753139,-4.409782137282869,5.676805538286595,-4.037395860886379
8.05375013438031,-4.520815055116969,5.636431579677731,-3.936675356382376
8.00854198382914,-4.624447250340596,5.597064826113907,-3.8198201590662006
7.962297511325734,-4.720267352699448,5.558866624523245,-3.6864966203421003
7.91509483779874,-4.807931740623576,5.522001658319824,-3.5364704191569425
7.867015520392504,-4.88717953072389,5.4866369541282545,-3.3696227454843615
7.818143725085265,-4.957849144728797,5.452940726673411,-3.1859669982385146
7.768565233637977,-5.019895880479521,5.421081056691026,-2.9856647142947765
7.718366274833182,-5.07340961412995,5.391224409548078,-2.769039033946517
7.667632178691882,-5.118631496800004,5.363534019208613,-2.53658368916831
7.616445863723882,-5.155968334366893,5.33816818231693,-2.28896535053097
7.564886180380213,-5.18600330894194,5.31527852881162,-2.0270172557710717
7.513026147290794,-5.2095018599701515,5.29500835625391,-1.7517224121473833
7.460931128691092,-5.227411913879059,5.277491132132436,-1.4641853163172158
7.408657009552301,-5.240858221643878,5.262849278969264,-1.1655920125192354
7.356248427335863,-5.251131282147159,5.251193358844072,-0.857159295562444
7.303737114514391,-5.2596721099991735,5.2426217658884475,-0.5400747964945455
7.251140393414399,-5.2680548450382245,5.237221017923502,-0.21543038575465767
7.198459844964017,-5.27796979756651,5.2350667140659555,0.11584836773338009
7.145680146988352,-5.291209909384318,5.236225197743289,0.4530741335990693
7.092768047894508,-5.3096637658951,5.24075593907928,0.7958693095994722
7.039671410235558,-5.335318253423739,5.2487146321752745,1.1442363737288217
6.986318227701321,-5.370273795555246,5.2601569959125625,1.4986278788356038
6.932615489745769,-5.416774913398023,5.275143274700919,1.860018477085601
6.878447740611788,-5.4772586935418275,5.2937434594717745,2.22998288684645
6.82367515367637,-5.5544235591892805,5.316043288340239,2.610784849810718
6.768130918084477,-5.651320216474281,5.342151136838346,3.0054823098300067
6.7116177159197346,-5.771464929061033,5.372205959936647,3.4180520464870074
6.653903066629124,-5.918970271838084,5.406386480401517,3.853529952213258
6.594713363910743,-6.098675359430024,5.44492177992365,4.31814435052379
6.533726610316442,-6.316225031433925,5.488103223428888,4.819373671059554
6.470564360002103,-6.577970167625267,5.536296960139483,5.365750964517072
6.404784658325851,-6.8903834003634294,5.5899544697846535,5.965988162480563
6.335880824322217,-7.258294312640883,5.6496143514094594,6.626446373045854
6.263297881195808,-7.680478060738852,5.715878815139918,7.344900079090398
6.18649310058842,-8.140011971050589,5.789327815930823,8.096977011585334
6.105092980877914,-8.586992549354884,5.870297586046676,8.81191644823062
6.019223055384365,-8.919976987960162,5.958416750528982,9.346630945448348
5.930023285504763,-9.001101820430012,6.051883059983465,9.507227943960705
5.840012267300463,-8.751667668903508,6.146955339423073,9.183623150427998
5.752495590611428,-8.250620861688505,6.2387915709273525,8.487885000320569
5.669989381994543,-7.665176788468999,6.323670420930558,7.656519582579572
5.593337614109853,-7.113218449658955,6.400235616756354,6.8570843827927614
5.522205429613263,-6.636738974759208,6.468806460584282,6.150648863592328
5.455838039865671,-6.23781103606273,6.530312949220205,5.54200448318405
5.393459929505044,-5.9058144630013745,6.585732994052045,5.017783143219852
5.33440178487503,-5.628482170749064,6.635910825484244,4.561999623175822
5.278116963167539,-5.395144181234513,6.681530821716001,4.1606856222934745
5.224165521355194,-5.197244815455223,6.7231376779389365,3.8026937936606027
5.172193073200642,-5.028084801205985,6.7611646158755425,3.479399497772266
5.1219122251885825,-4.88242459649944,6.7959586108532655,3.184193529014717
5.073087979223588,-4.756128651489867,6.827800546143413,2.9120208621345456
5.025526692708689,-4.645885479364664,6.856920754764759,2.6590169235044745
4.979067837915042,-4.548997294117812,6.883510923999803,2.422234343002017
4.933577864973864,-4.46322457901674,6.9077332674298235,2.1994405598821563
4.888945619183696,-4.386671951637397,6.929727673028645,1.9889674531202433
4.845078899667322,-4.31770469868314,6.9496173475598475,1.7895979801797204
4.801901852680491,-4.254888205761167,6.967513327361645,1.6004785915065323
4.759352970622879,-4.196944714244121,6.98351811327671,1.4210492430101038
4.7173835234804375,-4.142723406036092,6.997728605706811,1.2509851571975958
4.675956289420077,-4.0911808729303205,7.0102384572787875,1.0901462503260961
4.635044480690773,-4.041369702330858,7.0211399197820485,0.938531510407696
4.594630783667465,-3.9924333180136617,7.030525234886126,0.7962366967094726
4.554706450487328,-3.943605445596442,7.0384876018532205,0.6634146050502698
4.515270396031363,-3.8942127033153913,7.045121747903723,0.5402378353244737
4.476328268998209,-3.843678911446868,7.050524126256968,0.4268645129807781
4.43789147988374,-3.791529816109466,7.054792771386776,0.3234077473949821
4.3999761817226455,-3.7373970673935073,7.058026848860726,0.2299097511319333
4.362602211048711,-3.6810204926371433,7.060325946372045,0.14632150056086274
4.32579200612234,-3.6222479607253946,7.061789161377654,0.07248861332230576
4.289569526515086,-3.561032425261774,7.062514047510876,0.008143792868697097
4.253959202262468,-3.4974260363140375,7.062595485439563,-0.04709420110283591
4.218984941899328,-3.431571491894308,7.062124543428535,-0.09371549636540943
4.184669226980385,-3.3636910343971658,7.061187388464881,-0.13230875885848725
4.151032316636414,-3.294073665115207,7.0598643008762965,-0.16354660962855136
4.118091579985261,-3.2230612435970394,7.058228834780011,-0.18816802488079157
4.085860967549291,-3.15103416042272,7.0563471545312035,-0.20695898068791072
4.054350625945063,-3.0783972326034106,7.054277564724324,-0.22073254697601408
4.023566653619029,-3.0055663858378168,7.052070239254564,-0.2303094985564281
3.993510989760651,-2.9329565743811883,7.0497671442689995,-0.2365003206672139
