th1 (rad),w1 (rad/s),th2 (rad),w2 (rad/s),a1 (rad/s^2),a2 (rad/s^2)
2.1114212183348195,-0.236046291312342,4.056420963534435,-0.5804159794139567,-7.325077905617652,5.0366806734540885
2.1090607554216962,-0.3092970703685185,4.050616803740295,-0.5300491726794159,-7.383539219551171,4.966868244359705
2.105967784718011,-0.3831324625640302,4.045316312013501,-0.4803804902358188,-7.442937293208591,4.880869131805613
2.1021364600923707,-0.4575618354961161,4.040512507111143,-0.43157179891776265,-7.503408340357902,4.778232936747379
2.0975608417374096,-0.5325959188996952,4.0361967891219654,-0.38378946955028886,-7.565174730600714,4.658498308383089
2.0922348825484125,-0.6082476662057023,4.032358894426462,-0.33720448646645795,-7.628545294545663,4.52119131040829
2.0861524058863554,-0.6845331191511589,4.0289868495617975,-0.29199257336237505,-7.693915229720956,4.3658225636766215
2.0793070746948437,-0.7614722714483685,4.026066923828174,-0.24833434772560883,-7.761765561952454,4.191883238617531
2.07169235198036,-0.839089927067893,4.023583580350918,-0.20641551533943353,-7.832662119854903,3.9988400048173287
2.0633014527096813,-0.917416548266442,4.021519425197524,-0.16642711529126025,-7.907253979320458,3.7861290833490657
2.054127287227017,-0.9964890880596466,4.0198551540446115,-0.1285658244577696,-7.986271329293595,3.5531495903705217
2.0441623963464206,-1.0763518013525826,4.018569495800034,-0.09303432855406438,-8.070522698503208,3.2992564090599448
2.033398878332895,-1.1570570283376147,4.017639152514493,-0.06004176446346493,-8.160891463956178,3.0237528822678645
2.021828308049519,-1.2386659429771765,4.017038734869859,-0.029804235640786284,-8.258331534644325,2.725883681780491
2.009441648619747,-1.3212492583236197,4.016740692513451,-0.002545398822981375,-8.3638620668632,2.4048282835789396
1.9962291560365109,-1.4048878789922516,4.0167152385252205,0.021502884012808022,-8.478561019648378,2.059695563978966
1.9821802772465884,-1.4896734891887355,4.016930267365349,0.042099839652597684,-8.60355729912587,1.6895201312738846
1.967283542354701,-1.5757090621799943,4.017351265761874,0.05899504096533653,-8.740021168359268,1.2932611237181333
1.9515264517329012,-1.6631092738635869,4.017941216171527,0.07192765220251787,-8.889152514346264,0.8698043393489538
1.9348953589942652,-1.7520007990070494,4.018660492693552,0.08062569559600741,-9.052166466705769,0.41796871751662057
1.9173753510041947,-1.842522463674107,4.019466749649513,0.08480538277117361,-9.230275754966785,-0.06348163398183355
1.8989501263674535,-1.9348252212237749,4.020314803477224,0.08417056643135527,-9.424669076526246,-0.5758184808574233
1.8796018741552158,-2.0290719119890372,4.021156509141538,0.07841238162278104,-9.636484630913516,-1.1203219848985069
1.8593111550353254,-2.1254367582981724,4.021940632957766,0.06720916177379598,-9.866777866794122,-1.6982429142860227
1.8380567874523437,-2.2241045369661134,4.022612724575504,0.050226732630935744,-10.116482399188433,-2.3107525604506622
1.8158157420826826,-2.3252693609579977,4.023114991901814,0.027119207026429122,-10.38636300406678,-2.9588782342359985
1.7925630484731025,-2.4291329909986654,4.023386183972078,-0.002469575315930863,-10.676959610737738,-3.6434221479796736
1.7682717185631158,-2.535902587106043,4.023361488218919,-0.0389037967957276,-10.988521321673835,-4.364861555012213
1.7429126926920553,-2.6457878003227813,4.022972450250962,-0.08255241234584973,-11.32092973484553,-5.123228280329581
1.7164548146888274,-2.7589970976712364,4.022146926127504,-0.13378469514914554,-11.673611272499718,-5.917966317385193
1.688864843712115,-2.8757332103962336,4.020809079176012,-0.19296435832299746,-12.045438884125252,-6.747767080155462
1.6601075116081527,-2.9961875992374862,4.018879435592782,-0.2604420291245521,-12.43462444019645,-7.610383286340124
1.630145635615778,-3.1205338436394507,4.016275015301537,-0.33654586198795333,-12.838604406268606,-8.502424398184413
1.5989402971793834,-3.2489198877021366,4.012909556681658,-0.4215701059697975,-13.253922997786619,-9.419139123701436
1.566451098302362,-3.3814591176800026,4.00869385562196,-0.5157614972068119,-13.676118933416495,-10.3541936842728
1.532636507125562,-3.5182203070141678,4.0035362406498916,-0.6193034340495399,-14.099624029683154,-11.299458286199993
1.4974543040554205,-3.6592165473109994,3.997343206309396,-0.7322980169115398,-14.517684021509575,-12.244818251926192
1.4608621385823104,-3.8043933875260953,3.9900202261402806,-0.8547461994308018,-14.92231385219709,-13.178030147251928
1.4228182047070494,-3.9536165260480662,3.9814727641459724,-0.9865265009033211,-15.304300842124437,-14.084646358050557
1.3832820394465688,-4.10665953446931,3.971607499136939,-1.1273729644838266,-15.653269123374985,-14.94803311586297
1.3422154441018757,-4.26319222570306,3.9603337694921006,-1.2768532956424563,-15.95781700474221,-15.749506036852768
1.299583521844845,-4.422770395750482,3.947565236535676,-1.434348356010984,-16.205735088267893,-16.468602968261894
1.2553558178873403,-4.584827746633161,3.933221752975566,-1.599034385693603,-16.38430681734891,-17.08350576110042
1.2095075404210087,-4.74867081480665,3.9172314091186298,-1.7698694433046072,-16.480684923794925,-17.571610495592278
1.1620208322729422,-4.913477664044599,3.899532714685584,-1.94558554826053,-16.482327711221917,-17.91023047114566
1.1128860556324962,-5.078300941156819,3.8800768592029784,-2.1246878529719866,-16.37746957235163,-18.077399662083916
1.062103046220928,-5.242075636880335,3.8588299806732587,-2.3054618495928256,-16.15559231898992,-18.052728897177328
1.0096822898521247,-5.4036315600702345,3.8357753621773303,-2.485989138564599,-15.807859652401778,-17.818255763864727
0.9556459742514224,-5.561710156594252,3.8109154707916844,-2.6641716962032462,-15.32747793603378,-17.35922499962918
0.9000288726854799,-5.71498493595459,3.784273753829652,-2.837763946199538,-14.709953067859027,-16.664740792940098
0.842879023325934,-5.8620844666331795,3.7558961143676566,-3.0044113541289392,-13.953225256503071,-15.728246235865129
0.7842581786596022,-6.001616719198211,3.725852000826367,-3.1616938164875905,-13.057679240672707,-14.547806475433358
0.7242420114676201,-6.132193511604938,3.694235062661491,-3.307171881241924,-12.026044373522685,-13.126197481723104
0.6629200763515708,-6.252453955340165,3.6611633438490716,-3.4384338560591554,-10.863214063988893,-11.470827312974247
0.6003955367981691,-6.361086095980054,3.62677900528848,-3.553142129188898,-9.576024667433986,-9.59353677405138
0.5367846758383686,-6.456846342654394,3.5912475839965907,-3.649077496929412,-8.173038259443208,-7.510337814686121
0.4722162124118247,-6.538576725248826,3.5547568090272965,-3.7241808750762733,-6.664371173720843,-5.241148868859682
0.4068304451593364,-6.605220436986035,3.517515000276534,-3.77659236376487,-5.061601193929642,-2.809576360665157
0.34077824078947605,-6.655836448925331,3.479749076638885,-3.804688127371522,-3.3777720811130556,-0.24277212193674808
0.2742198763002227,-6.689614169736462,3.4417021953651696,-3.807115848590889,-1.627496263832299,2.4286300946926374
0.20732373460285808,-6.705889132374785,3.403631036879261,-3.7828295476439626,0.1728633709973835,5.170526393409184
0.1402648432791102,-6.704160498664811,3.3658027414028213,-3.7311242837098706,2.0049719865497053,7.945361262026557
0.07322323829246209,-6.6841107787993135,3.3284914985657226,-3.651670671089605,3.8483200298313704,10.712238879613668
0.0063821305044689525,-6.645627578501,3.2919747918548263,-3.5445482822934684,5.680113028573468,13.427232590962822
-0.060074145280541044,-6.588826448215266,3.2565293090318916,-3.41027595638384,7.475336426912328,16.044003550233835
-0.12596240976269368,-6.514073083946142,3.2224265494680533,-3.2498359208815017,9.207075808824474,18.51482554181093
-0.1911031406021551,-6.422002325857897,3.1899281902592382,-3.0646876654633926,10.847155802952564,20.792074474068944
-0.25532316386073406,-6.313530767828372,3.1592813136046045,-2.856766920722703,12.367126072292912,22.83017633361136
-0.3184584715390178,-6.189859507105442,3.1307136443973773,-2.6284651573865894,13.739570444655735,24.587920800928057
-0.38035706661007224,-6.052463802658885,3.1044289928235114,-2.382585949377309,14.939651060224497,26.030951730380313
-0.4408817046366611,-5.903067292056639,3.0806031333297383,-2.1222764320735057,15.94673508778623,27.134160853055516
-0.4999123775572275,-5.743599941178777,3.0593803690090033,-1.8509348235429506,16.74590336304686,27.883662378953748
-0.5573483769690153,-5.576140907548309,3.0408710207735736,-1.5720981997534131,17.329124846579216,28.278035718552996
-0.6131097860444984,-5.402849659082517,3.0251500387760397,-1.289317842567883,17.695908943383635,28.328601309720963
-0.6671382826353236,-5.225890569648681,3.012256860350361,-1.0060318294706734,17.853319007703114,28.0586315440564
-0.7193971883318104,-5.0473573795716495,3.0021965420556542,-0.7254455140301094,17.815330936839487,27.5015665479686
-0.7698707621275269,-4.869204070203255,2.994942086915353,-0.45042984855042334,17.601626699989424,26.69846271657622
-0.8185628028295595,-4.693187803203361,2.990437788429849,-0.18344522138466113,17.235997759079755,25.695011584396298
-0.8654946808615931,-4.520827825612563,2.9886033362160025,0.07350489445930186,16.74457822965984,24.538503931021136
-0.9107029591177187,-4.353382043315965,2.9893383851605955,0.31888993376951325,16.154125857173653,23.275077216312244
-0.9542367795508784,-4.191840784744229,2.9925272844982906,0.5516407059326357,15.490527608669995,21.947492152303237
-0.9961551873983207,-4.036935508657529,2.998043691557617,0.7711156274556681,14.777642218485777,20.593566432101394
-1.036524542484896,-3.8891590864726715,3.005754847832174,0.977051291776682,14.036523017025138,19.24528035436851
-1.0754161333496226,-3.74879385630242,3.015525360749941,1.169504095320367,13.285005797578023,17.92848167596949
-1.1129040719126468,-3.61594379832664,3.0272204017031443,1.348788912080062,12.537606567472412,16.663064791463523
-1.1490635098959132,-3.490567732651916,3.040708290823945,1.5154195599946974,11.805654257143543,15.463480887804305
-1.1839691872224323,-3.3725111900804805,3.0558624864238917,1.6700543688727405,11.097580533425795,14.3394430418455
-1.2176942991232371,-3.2615353847462227,3.072563030112619,1.8134487992911956,10.41929730986192,13.296713062845487
-1.2503096529706994,-3.1573424116476034,3.0906975181055314,1.9464159299196506,9.774606831144228,12.337885952383276
-1.2818830770871754,-3.0595963433361613,3.110161677404728,2.0697947894434834,9.165604958901016,11.463116455150702
-1.312479040520537,-2.967940293747151,3.1308596252991627,2.1844259539949906,8.593052692701377,10.670756445577972
-1.3421584434580085,-2.882009766820137,3.1527038848391125,2.29113351845077,8.05670263253652,9.957890314656034
-1.3709785411262099,-2.801442740494772,3.1756152200236203,2.3907124215973306,7.555575668540881,9.320768126455178
-1.3989929685311575,-2.7258869838093633,3.1995223442395937,2.4839201028618825,7.088188929951197,8.75514397597997
-1.426251838369251,-2.6550050945098516,3.2243615452682124,2.571471542621682,6.652739483262553,8.256530867972405
-1.4528018893143495,-2.588477699677226,3.250076260694429,2.6540368513014063,6.247250048518812,7.820384689629221
-1.4786866663111218,-2.526005199192038,3.2766166292074432,2.7322406981976983,5.869683654358203,7.442229420329277
-1.5039467183030422,-2.467308362648456,3.30393903618942,2.806662992400991,5.518034119954211,7.11773432410807
-1.5286198019295267,-2.4121280214489143,3.33200566611343,2.8778403356420714,5.190398861768147,6.842752000400026
-1.552741082144016,-2.360224032831233,3.3607840694698505,2.9462678556460715,4.885039997733865,6.613324141022185
-1.5763433224723282,-2.3113736328538943,3.3902467480263114,3.0124010970562933,4.600439199902236,6.425659841989259
-1.5994570588008672,-2.265369240854872,3.4203707589968744,3.076657695476186,4.335351302002663,6.276089449457
-1.622110751209416,-2.222015727834845,3.4511373359516364,3.139418589970756,4.088861321320787,6.1609952395011005
-1.6443309084877644,-2.181127114621637,3.482531521851344,3.201028542365767,3.860449276850664,6.076718796405541
-1.6661421796339808,-2.1425226218531304,3.514541807275002,3.261795730329822,3.650066896286821,6.019443851413875
-1.687567405852512,-2.106021952890262,3.5471597645783,3.321990168843961,3.458229851423874,5.985052736668341
-1.7086276253814148,-2.0714396543760234,3.5803796662667398,3.3818406962106446,3.286128294650099,5.968954787667042
-1.729342021925175,-2.0385783714295225,3.614198073228846,3.441530244087315,3.135756799650989,5.9658864720406255
-1.7497278056394703,-2.007220803433013,3.6486133756697194,3.501189108807721,3.010061764661746,5.969686469661244
-1.7698000136738004,-1.9771201857863954,3.6836252667577964,3.5608859735043334,2.913099128315346,5.973055421046364
-1.7895712155316643,-1.947989194503242,3.71923412649284,3.6206165277147973,2.8501868959556993,5.967320916902816
-1.8090511074766968,-1.9194873255436848,3.755440291769988,3.680289736883825,2.828024469454816,5.942244898891469
-1.8282459807321336,-1.8912070808491366,3.792243189138826,3.73971218587274,2.8547335242496517,5.885933810863132
-1.847158051540625,-1.86265974560664,3.8296403109975534,3.798571523981371,2.9397539289079995,5.784940605992881
-1.8657846489966914,-1.83326220631756,3.867626026237367,3.8564209300413,3.0935065985011265,5.624677154510938
-1.884117271059867,-1.802327140332549,3.90619023553778,3.9126677015864093,3.326721853143522,5.3902739452883255
-1.9021405424631925,-1.7690599218011136,3.9453169125536443,3.9665704410392926,3.6493422316836805,5.0680101682754435
-1.9198311416812037,-1.7325664994842769,3.984982616964037,4.017250542722047,4.0689641872829485,4.647362010408489
-1.9371568066760465,-1.6918768576114473,4.025155122391258,4.063724162826132,4.58890390741113,4.123552604283684
-1.954075575252161,-1.645987818537336,4.0657923640195195,4.104959688868969,5.206160771711306,3.5002308221708756
-1.9705354534375343,-1.593926210820223,4.106841960908209,4.139961997090678,5.909767265316686,2.7916138589067563
-1.9864747155457365,-1.5348285381670561,4.148241580879116,4.167878135679746,6.680157568105335,2.0232364779752072
-2.001823000927407,-1.4680269624860027,4.189920362235913,4.188110500459498,7.49012311338811,1.2305434998455025
-2.016503270552267,-1.3931257313521217,4.231801467240508,4.200415935457952,8.307560970709376,0.4550646796241577
-2.030434527865788,-1.310050121645028,4.273805626595088,4.204966582254194,9.099621615055547,-0.2612662723788099
-2.0435350290822383,-1.2190539054944725,4.31585529241763,4.202353919530406,9.8372800064662,-0.8822964242670567
-2.055725568137183,-1.1206811054298105,4.3578788316129335,4.193530955287735,10.49911386023568,-1.382679595994002
-2.066932379191481,-1.0156899668274537,4.399814141165811,4.1797041593277955,11.073343786719734,-1.7504749325263984
-2.0770892788597553,-0.9049565289602564,4.441611182759089,4.162199410002532,11.55783647098588,-1.986951247025544
-2.086138844149358,-0.7893781642503975,4.483233176859114,4.142329897532276,11.958446222182047,-2.1041545980108207
-2.094032625791862,-0.669793702028577,4.524656475834437,4.121288351552168,12.286461270777421,-2.1213177494259936
-2.1007305628121475,-0.5469290893208028,4.565869359349959,4.100075174057908,12.55593865522607,-2.061192535542261
-2.1061998537053555,-0.421369702768542,4.606870111090538,4.079463248702486,12.781472805202787,-1.9470404428995178
-2.110413550733041,-0.29355497471651415,4.647664743577563,4.0599928442734905,12.976635032692073,-1.800584878340655
-2.113349100480206,-0.1637886243895934,4.688264672020297,4.041986995490084,13.153078887471281,-1.6408954343642732
-2.1149869867241016,-0.032257835514880595,4.728684541975198,4.025578041146441,13.320175458261408,-1.4839994528361162
-2.1153095650792504,0.10094391906773348,4.768940322386663,4.01073804661808,13.485006276405489,-1.3429724700632073
-2.114300125888573,0.23579398183178837,4.809047702852844,3.997308321917448,13.652560647352757,-1.228290974762337
-2.111942186070255,0.372319588305316,4.8490207860720185,3.9850254121698248,13.826024732785246,-1.1482903296326274
-2.108218990187202,0.5105798356331684,4.888871040193717,3.9735425088734986,14.007090662432073,-1.1096290446450523
-2.1031131918308703,0.6506507422574892,4.928606465282452,3.962446218427048,14.19624637370611,-1.1177059192194314
-2.0966066844082953,0.7926132059945503,4.968230927466722,3.9512691592348537,14.39302903972328,-1.1770070244956026
-2.08868055234835,0.9365434963917831,5.007743619059071,3.9394990889898978,14.596238428487624,-1.2913776452436239
-2.079315117384432,1.0825058806766594,5.04713860994897,3.9265853125374615,14.804113799245382,-1.4642238023143748
-2.0684900585776655,1.2305470186691132,5.086404463074344,3.9119430745143178,15.014481217661311,-1.698652068133663
-2.0561845883909746,1.3806918308457263,5.125523893819487,3.8949565538329813,15.224879115059247,-1.9975574432961647
-2.042377670082517,1.5329406219963189,5.164473459357817,3.8749809794000196,15.43266961861905,-2.3636686352190726
-2.0270482638625538,1.6872673181825093,5.203223269151817,3.8513442930478288,15.635142294135303,-2.799559101092301
-2.0101755906807286,1.8436187411238623,5.241736712082295,3.8233487020369057,15.829615831148617,-3.307631198628143
-1.99173940326949,2.0019148994353486,5.279970199102664,3.790272390050624,16.01354204038554,-3.890079979333566
-1.9717202542751364,2.162050319839204,5.31787292300317,3.7513715902572886,16.18461540073757,-4.548842655472272
-1.9500997510767444,2.3238964738465797,5.355386638905743,3.7058831637025658,16.340890310446195,-5.285539580093713
-1.9268607863382785,2.4873053769510416,5.392445470542769,3.6530277679016288,16.480907166340145,-6.10141265465379
-1.9019877325687682,2.652114448614443,5.428975748221785,3.592013641355091,16.603827413606904,-6.9972673435876676
-1.8754665880826238,2.818152722750512,5.464895884635336,3.522040967919214,16.709576778974117,-7.973424827757689
-1.8472850608551186,2.985248490540253,5.500116294314528,3.4423067196416373,16.798995031070458,-9.029691143135514
-1.817432575949716,3.153238440850958,5.534539361510944,3.352009808210282,16.873989814283927,-10.165350273575523
-1.7859001915412065,3.321978338993797,5.568059459593047,3.2503563054745266,16.93769137952272,-11.379187906195783
-1.7526804081512686,3.4913552527890244,5.600563022647792,3.1365644264125687,16.994604361887646,-12.669551669886195
-1.7177668556233783,3.661301296407901,5.631928666911918,3.0098689097137066,17.050752045456647,-14.034451832491902
-1.6811538426592993,3.831808816862467,5.662027356009055,2.8695243913887873,17.11380760828998,-15.471703160736618
-1.6428357544906746,4.002946892945367,5.690722599922943,2.714807359781421,17.19320525234005,-16.97910323834736
-1.602806285561221,4.174878945468768,5.717870673520758,2.5450163273979474,17.300221140847164,-18.55463386005827
-1.5610574961065333,4.347881156877239,5.743320836794737,2.3594699887973647,17.44800834845422,-20.196658300901994
-1.517578684537761,4.522361240361781,5.766915536682711,2.157503405788345,17.6515592431055,-21.90406513986318
-1.4723550721341432,4.698876832792836,5.788490570740594,1.938462754389713,17.92754886472749,-23.676273504868597
-1.4253663038062148,4.878152321440111,5.807875198284491,1.701700019341027,18.29397716590511,-25.512955928230102
-1.3765847805918137,5.0610920930991625,5.824892198477902,1.446570460058726,18.769465094253817,-27.41323802222771
-1.325973859660822,5.248786744041701,5.839357903078489,1.1724380798364489,19.371950857166386,-29.373973560584904
-1.273485992220405,5.442506252613365,5.8510822838768535,0.8786983442305998,20.11634914605212,-31.386429573819562
-1.2190609296942714,5.643669744073886,5.8598692673191595,0.5648340484924042,21.010435542476564,-33.43029213479399
-1.1626242322535325,5.853774099498652,5.865517607804083,0.23053112714446428,22.047751677423733,-35.46325592360316
-1.104086491258546,6.074251616272889,5.867822919075528,-0.12410143209156732,23.195673859662847,-37.40357250038133
-1.0433439750958171,6.306208354869518,5.866581904754613,-0.49813715709538064,24.376083327550578,-39.10201610350538
