th1 (rad),w1 (rad/s),th2 (rad),w2 (rad/s),a1 (rad/s^2),a2 (rad/s^2)
5.2778216734278995,-2.271720046353498,4.930645388389429,-2.570923836097018,3.2736948594446753,8.245033186407166
5.255104472964365,-2.2389830977590512,4.904936150028459,-2.4884735042329464,3.5866250515795612,7.969680173216183
5.2327146419867745,-2.2031168472432556,4.88005141498613,-2.4087767025007847,3.8960167489548647,7.682807241038079
5.210683473514342,-2.164156679753707,4.855963647961122,-2.331948630090404,4.200347842455696,7.387050811342266
5.189041906716805,-2.1221532013291498,4.832644161660218,-2.258078121976981,4.498311302378438,7.084874594118132
5.167820374703513,-2.0771700883053654,4.810063380440448,-2.1872293760357997,4.788795381624226,6.77857249478228
5.14704867382046,-2.029282134489123,4.788191086680089,-2.119443651087977,5.070865195620466,6.47027055147904
5.1267558524755685,-1.9785734825329184,4.76699665016921,-2.0547409455731867,5.343745789944085,6.161928327968635
5.106970117650239,-1.9251360246334777,4.746449240713478,-1.9931216622935004,5.606806668266547,5.855340233263139
5.087718757403905,-1.8690679579508123,4.7265180240905424,-1.9345682599608691,5.859547657418742,5.552137239059311
5.069028077824396,-1.8104724813766249,4.707172341490934,-1.879046887570276,6.101585926669218,5.253789430400123
5.05092335301063,-1.7494566221099326,4.688381872615231,-1.8265089932662748,6.332643949018695,4.961609762689447
5.03342878678953,-1.6861301826197457,4.670116782682569,-1.7768928956393804,6.552538188207868,4.676759316725261
5.016567484963333,-1.620604800737667,4.652347853726175,-1.7301253024721277,6.761168311279246,4.400254249425784
5.000361436955957,-1.5529931176248746,4.635046600701454,-1.6861227599778699,6.958506758204445,4.1329745373177715
4.984831505779708,-1.4834080500428302,4.618185373101675,-1.644793014604692,7.144588542767815,3.8756745079369432
4.96999742527928,-1.4119621646151521,4.601737442955629,-1.6060362695253227,7.319501208342042,3.6289950557172213
4.955877803633128,-1.3387671525317317,4.585677080260376,-1.5697463189681504,7.48337491452993,3.393477347666842
4.942490132107811,-1.2639334033864325,4.569979617070694,-1.535811545491482,7.636372682481376,3.169577743300626
4.9298507980739465,-1.1875696765616186,4.554621501615779,-1.5041157680584758,7.778680875180698,2.9576835852348338
4.91797510130833,-1.1097828678098116,4.539580343935194,-1.4745389322061275,7.910500031869881,2.7581294630506585
4.906877272630232,-1.0306778674911128,4.524834954613133,-1.446957637575621,8.032036211318271,2.5712135142611805
4.896570493955321,-0.9503575053779301,4.510365378237377,-1.4212455024330093,8.143493025633736,2.3972133026775673
4.887066918901541,-0.8689225751215927,4.496152923213047,-1.3972733694062336,8.245064563860392,2.2364008060113387
4.878377693150325,-0.7864719294829887,4.482180189518984,-1.3749093613461203,8.336929412074605,2.0890560508951923
4.8705129738554955,-0.7031026353622427,4.468431095905523,-1.3540188008371683,8.419245973523239,1.9554789544646123
4.863481947501873,-0.6189101756270103,4.454890907897152,-1.3344640112925221,8.492149278004435,1.8359989672573755
4.857292845745603,-0.533988682846966,4.441546267784227,-1.3161040216199484,8.5557494436083,1.7309821627835362
4.851952958917133,-0.448431188410883,4.428385227568027,-1.298794199992113,8.610131915579172,1.6408354852292728
4.847468647033025,-0.36232986925509125,4.415397285568106,-1.2823858451398205,8.65535955606751,1.5660079489180259
4.843845348340474,-0.27577627369441615,4.402573427116708,-1.26672576565064,8.691476594937225,1.506988681550092
4.84108758560353,-0.1888615077450439,4.389906169460201,-1.2516558788351393,8.718514376296035,1.4643018172713704
4.83919897052608,-0.10167636398208355,4.37738961067185,-1.2370128606624256,8.736498749737828,1.4384983733821206
4.838182206886259,-0.014311376484705263,4.365019482065225,-1.2226278769286043,8.745458862437362,1.430145382318743
4.838039093121412,0.07314321213966836,4.352793203295939,-1.208326423105417,8.745437012717378,1.4398126926407795
4.838770525242809,0.16059758226684215,4.340709939064885,-1.1939282961790092,8.736499133530474,1.4680579911222578
4.840376501065477,0.2479625736021469,4.328770656103095,-1.1792477162677866,8.718745392777006,1.5154107226723044
4.8428561268014985,0.33515002752991696,4.316978178940417,-1.1640936090410636,8.692320334634218,1.5823556843209483
4.846207627076797,0.42207323087625914,4.3053372428500065,-1.1482700521978542,8.65742195024312,1.6693171322172167
4.8504283593855595,0.5086474503786903,4.293854542328028,-1.131576880875682,8.614309064343242,1.7766442559032143
4.855514833889346,0.5947905410221227,4.2825387735192715,-1.11381043831665,8.563306461805418,1.9045988341469582
4.861462739299568,0.6804236056401769,4.271400669136105,-1.0947644499751805,8.50480725635894,2.053345787675783
4.8682669753559695,0.7654716782037663,4.260453024636353,-1.0742309920984228,8.43927212103908,2.2229471880521032
4.875921692138007,0.849864399414157,4.249710714715368,-1.0520015202179018,8.367225149579577,2.413360076539122
4.884420336132149,0.9335366509099527,4.239190699513189,-1.0278679194525107,8.289246289682476,2.6244382058221407
4.893755702641249,1.0164291138067776,4.228912020318664,-1.0016235373942892,8.205960469219487,2.8559375592963447
4.903919993779317,1.0984887184989724,4.2188957849447215,-0.9730641618013258,8.118023709703662,3.1075252484805
4.914904880964307,1.1796689555960091,4.209165143326708,-0.9419889093165208,8.026106672750634,3.378791160413561
4.926701570520267,1.2599300223235155,4.199745254233543,-0.9082009977123852,7.930876201755505,3.669261542709193
4.939300870743502,1.3392387843410705,4.1906632442564185,-0.8715083822852933,7.832975493430078,3.978413588637386
4.952693258586913,1.4175685392753712,4.181948160433565,-0.8317242463989194,7.733003557841372,4.305690026172265
4.966868943979667,1.4948985748537849,4.173630917969576,-0.7886673461371968,7.631494602113522,4.650512724365343
4.981817929728204,1.57121352087492,4.165744244508204,-0.7421622188935434,7.5288979078809515,5.012294401993371
4.997530064936953,1.6465024999537297,4.158322622319268,-0.6920392748736097,7.425558675710424,5.390447646149346
5.013995089936491,1.7207580867108339,4.151402229570532,-0.6381347984121163,7.3217001933172385,5.78439060781733
5.031202670803599,1.7939750886440062,4.145020881586412,-0.5802908923339429,7.217407561616023,6.193548921775121
5.049142421690039,1.8661491642601664,4.139217972663072,-0.5183554031161918,7.1126130959412315,6.617353584514938
5.067803913332641,1.9372752952195786,4.13403441863191,-0.45218186727104237,7.0070834197536485,7.055234703879031
5.087176666284837,2.0073461294171153,4.1295125999592,-0.38162952023225205,6.90040819278611,7.506611198977721
5.107250127579007,2.0763502113449763,4.125696304756877,-0.30656340824247486,6.7919903698855695,7.970876673913826
5.128013629692457,2.144270115043832,4.122630670674452,-0.2268546415033366,6.681037872911736,8.447381812973907
5.149456330842896,2.211080493772949,4.120362124259419,-0.14238082337359753,6.566556575573426,8.935413750623168
5.171567135780625,2.2767460595286835,4.118938316025683,-0.05302668586736585,6.44734454764589,9.434172961597142
5.194334596375913,2.3412195050051423,4.11840804916701,0.041315043748605576,6.321987576792123,9.942748300722805
5.217746791425964,2.4044393807730637,4.118821199604496,0.14074252675583362,6.188856078413569,10.460090905282817
5.241791185233694,2.4663279415571995,4.1202286248720545,0.2453434358086618,6.04610361115509,10.984987760651766
5.266454464649266,2.52678897766875,4.122682059230141,0.35519331341517946,5.891667332011054,11.51603582712833
5.2917223544259535,2.585705650988861,4.126233992364293,0.47035367168646275,5.723270844123327,12.051617734931673
5.317579410935842,2.642938359430094,4.130937529081158,0.5908698490357794,5.538430005502586,12.589880175327377
5.344008794530143,2.69832265948512,4.136846227571516,0.7167686507890532,5.334462370516518,13.128716246085128
5.3709920211249935,2.7516672831902853,4.144013914079406,0.8480558132499044,5.108501019650265,13.665753143189649
5.398508693956896,2.802752293386788,4.152494472211905,0.9847133446818009,4.857513587289217,14.198346719035925
5.426536216890764,2.85132742925968,4.162341605658723,1.12669681187216,4.578327311546601,14.723584538283282
5.4550494911833605,2.897110702375146,4.173608573777444,1.273932657254993,4.267660892942559,15.23829914136926
5.4840205982071115,2.939787311304572,4.186347900349994,1.4263156486686857,3.9221638479129672,15.739093255374051
5.513418471320157,2.9790089497837013,4.2006110568366815,1.5837065812224262,3.5384638665750217,16.222378654023075
5.543208560817994,3.0143935884494515,4.216448122648906,1.745930367762657,3.1132224207300774,16.684430244412283
5.573352496702488,3.045525812656752,4.233907426326533,1.9127746702067798,2.6431985087437835,17.121456730149042
5.603807754829055,3.07195779774419,4.2530351730286,2.0839892375082703,2.125319963411483,17.529688854888832
5.634527332806497,3.093210997378305,4.273875065403683,2.2592861260571584,1.556761187371058,17.90548575810418
5.66545944278028,3.1087786092520155,4.2964679266642545,2.4383409836382004,0.9350255256450878,18.24545937574178
5.6965472288728005,3.1181288645084666,4.3208513365006365,2.620795577395618,0.2580297534067806,18.5466161021403
5.727728517517885,3.1207091620425342,4.347059292274593,2.806261738417021,-0.47581262286627696,18.806514119023163
5.758935609138311,3.1159510358138713,4.375121909658763,2.9943268796072524,-1.2675133404631205,19.023433930115534
5.790095119496449,3.1032759024092402,4.405065178454835,3.184561218908408,-2.1174414630965237,19.196558769193178
5.821127878520541,3.082101487778275,4.436910790643919,3.3765268066003395,-3.0252710312668136,19.326160743491858
5.851948893398324,3.0518487774656067,4.470676058709922,3.569788414035258,-3.9899501775225006,19.413787914086473
5.88246738117298,3.0119492756903816,4.506373942850275,3.7639262931761226,-5.009697761312545,19.462447087288627
5.912586873929884,2.961852298077256,4.544013205782036,3.9585507640490087,-6.0820333624820275,19.476776979840523
5.942205396910657,2.901031964452436,4.583598713422527,4.153318533847414,-7.203845787721296,19.463206689523172
5.971215716555181,2.8289935065752227,4.625131898761,4.347950600742646,-8.371503993128,19.430095071755858
5.999505651620933,2.745278466643943,4.668611404768427,4.542251551460204,-9.58101240436699,19.387847632543032
6.026958436287373,2.649468342600273,4.714033920283029,4.736130027785634,-10.828209893849975,19.34900870762673
6.053453119713375,2.5411862436617736,4.761395220560885,4.929620114861902,-12.10900795228837,19.328327604341318
6.078864982149993,2.42009616413889,4.810691421709504,5.122903390905315,-13.419658512785377,19.342797296358963
6.103065943791382,2.285899579011036,4.861920455618558,5.316331363868905,-14.757034772909206,19.411661896503954
6.125924939581492,2.138329231281944,4.915083769257246,5.510447982833944,-16.11889793227995,19.556382301189082
6.1473082318943115,1.9771402519591446,4.970188249085586,5.706011805845835,-17.504106639496456,19.80053438812174
6.167079634413903,1.80209918556418,5.027248367144044,5.904017149727052,-18.91269980186077,20.169584619951117
6.185100626269545,1.6129721875455723,5.086288538641314,6.105712995926563,-20.34573957821836,20.690432986978816
6.201230348145001,1.4095147917633886,5.14734566860058,6.312617325796351,-21.80472649387778,21.39051425103377
6.2153254960626345,1.1914675268246109,5.210471841858543,6.5265224683066885,-23.29027002890705,22.29607374777522
6.22724017133088,0.9585648265355404,5.27573706654161,6.749483205784441,-24.79947878363654,23.4289313452278
6.236825819596236,0.710570038699175,5.343231898599455,6.983772519236719,-26.321168505862737,24.80053594787904
6.243931519983228,0.44735835364054766,5.413069623791822,7.231777878715509,-27.827402810460313,26.401286617436163
6.248405103519634,0.1690843255359445,5.485387402578977,7.495790744889871,-29.25903441254401,28.18187270416237
6.2500959467749935,-0.12350601858949561,5.560345310027875,7.777609471931495,-30.50194196020566,30.021916567361085
6.248860886589099,-0.4285254381915522,5.63812140474719,8.077828637605105,-31.35036133120955,31.680528063565315
6.244575632207183,-0.7420290515036477,5.718899691123242,8.394633918240759,-31.456742869173635,32.72706343046121
6.237155341692146,-1.0565964801953842,5.802846030305649,8.721904552545372,-30.280526103828596,32.46745538524075
6.2265893768901925,-1.35940174123367,5.890065075831103,9.046579106397779,-27.08229521796994,29.927523549312614
6.212995359477856,-1.6302246934133695,5.980530866895081,9.345854341890906,-21.067661221885228,24.034169959802032
6.196693112543722,-1.8409013056322219,6.07398941031399,9.586196041488925,-11.80912620398422,14.170326731227837
6.178284099487399,-1.958992567672064,6.169851370728879,9.727899308801204,0.11367265635975453,1.0269892955572433
6.158694173810678,-1.9578558411084666,6.267130363816891,9.738169201756776,12.802849446039513,-12.985164376369674
6.139115615399594,-1.8298273466480715,6.364512055834459,9.608317557993079,23.765136591160537,-24.70844894590117
6.1208173419331136,-1.5921759807364662,6.46059523141439,9.361233068534068,31.32254303531847,-32.106171313628984
6.1048955821257485,-1.2789505503832814,6.554207562099731,9.040171355397778,35.31378006117763,-35.142839344323086
6.092106076621915,-0.9258127497715052,6.644609275653709,8.688742961954548,36.59606603470549,-35.06624664840161
6.0828479491242,-0.5598520894244503,6.731496705273254,8.338080495470532,36.218373423578214,-33.29955587157277
6.077249428229956,-0.19766835518866815,6.8148775102279595,8.005084936754804,34.979829921292,-30.882182929472187
6.0752727446780685,0.15212994402425184,6.894928359595507,7.696263107460082,33.36656569887822,-28.416788522065666
6.076794044118311,0.48579560101303404,6.971890990670108,7.412095222239425,31.63470520968361,-26.1981285071121
6.081652000128441,0.8021426531098701,7.046011942892502,7.150113937168304,29.902693748907982,-24.343009051211983
6.08967342665954,1.1011695905989498,7.1175130822641846,6.906683846656184,28.215385764051163,-22.876505408321307
6.10068512256553,1.3833234482394614,7.186579920730747,6.677918792572972,26.58165294589127,-21.780499220524412
6.114518357047924,1.6491399776983742,7.253359108656476,6.460113800367727,24.99473975606025,-21.018687764686028
6.131009756824907,1.8990873752589768,7.317960246660154,6.249926922720867,23.442762296446634,-20.548676457722067
6.150000630577497,2.133514998223443,7.380459515887362,6.044440158143646,21.913894781972758,-20.32745439351478
6.1713357805597315,2.3526539460431706,7.440903917468798,5.8411656142084984,20.3987654751735,-20.313652212880722
6.194862320020163,2.5566416007949058,7.499315573610883,5.638029092079691,18.8913983725923,-20.46832866593048
6.220428736028112,2.7455555845208286,7.55569586453168,5.4333458054203865,17.389394173622275,-20.755152435078806
6.24788429187332,2.9194495262570515,7.610029322585884,5.225794281069598,15.893708878502578,-21.140391614192794
6.277078787135891,3.0783866150420773,7.66228726539658,5.01439036492767,14.408217763651246,-21.592892118285693
6.307862653286312,3.22246879267859,7.712431169045857,4.798461443744813,12.93916740706361,-22.084109934556167
6.340087341213098,3.351860466749226,7.760415783483305,4.577620344399251,11.494576799531252,-22.58820478704692
6.37360594588059,3.4668062347445385,7.806191986927297,4.351738296528782,10.08362831797671,-23.082176223571555
6.408274008228036,3.5676425179243054,7.849709369892585,4.120916534293067,8.716079002631536,-23.54601301090124
6.443950433407279,3.654803307950621,7.890918535235516,3.8854564041840547,7.401716339214611,-23.962825623966218
6.480498466486785,3.728820471342767,7.929773099277356,3.6458281479443926,6.149877780203963,-24.318935515750336
6.517786671200213,3.7903192491448063,7.9662313807568,3.402638792786889,4.969048350558237,-24.603901404314062
6.5556898636916605,3.8400097326503886,8.00025776868467,3.1565997787437485,3.8665455454326416,-24.810470502634733
6.594089961018164,3.878675188104715,8.031823766472106,2.9084950737174013,2.8482954505112774,-24.934450398834638
6.632876712899211,3.9071581426098274,8.06090871720928,2.659150569729055,1.9186988949439616,-24.974504416557135
6.6719482943253094,3.926345131559267,8.08750022290657,2.4094055255634834,1.080581815198796,-24.931879218211144
6.711211745640902,3.937150949711255,8.111594278162205,2.160086733381372,0.33522015108120246,-24.810077818775472
6.750583255138015,3.940503151222067,8.133195145496018,1.9119859551936171,-0.3175732921350118,-24.614493888305656
6.789988286650236,3.937327418300717,8.152315005047953,1.6658410163105606,-0.8793144115548391,-24.352024225631613
6.829361560833243,3.9285342741851688,8.168973415211058,1.4223207740542445,-1.352680993156575,-24.030675705546315
6.868646903575095,3.915007464253603,8.1831966229516,1.1820140169987814,-1.7413285758177142,-23.659181062998318
6.907796978217631,3.8975941784954258,8.195016763121588,0.9454222063687983,-2.0497031899629237,-23.246634874993138
6.946772920002585,3.8770971465957964,8.204470985185276,0.7129558576188668,-2.2828638148002476,-22.802157357199302
6.985543891468543,3.854268508447794,8.211600543761465,0.4849342840468738,-2.446325817667474,-22.334589419482654
7.024086576553021,3.8298052502711193,8.216449886601934,0.26158838985204724,-2.5459350921563,-21.852218089655715
7.062384629055732,3.8043458993495562,8.219065770500455,0.0430662089554901,-2.5877813319466165,-21.362527118314986
7.100428088049227,3.77846808603009,8.21949643259001,-0.17055906222765976,-2.5781580483119275,-20.87196345136316
7.138212768909528,3.7526865055469707,8.217790841967734,-0.3792786967412914,-2.523576670502188,-20.38570638524308
7.175739633964998,3.7274507388419487,8.21399805500032,-0.5831357605937222,-2.430842360835183,-19.907422696159035
7.213014141353417,3.7031423152335967,8.208166697394384,-0.7822099875553126,-2.307199865504443,-19.438988063387832
7.250045564505753,3.6800703165785524,8.200344597518832,-0.9765998681891909,-2.160558374735831,-18.98015317781843
7.286846267671539,3.6584647328311943,8.19057859883694,-1.1664013999673752,-1.9998041053056594,-18.528133091128087
7.323430914999851,3.6384666917781376,8.178914584837266,-1.351682730878656,-1.8352065442284036,-18.077102649698567
7.3598155819176325,3.6201146263358535,8.16539775752848,-1.5324537573756418,-1.6789162780516005,-17.617592864018636
7.396016728180991,3.6033254635553376,8.150073219954724,-1.708629686015828,-1.5455347441243394,-17.135808626081626
7.432049982816545,3.587870116114094,8.132986923094565,-1.8799877722766443,-1.4527027970348287,-16.61293585994996
7.467928683977686,3.5733430881437456,8.114187045371798,-2.046117130876144,-1.421597861658018,-16.024586668819836
7.503662114859123,3.5591271095271653,8.093725874063036,-2.206362997564342,-1.4771417528856476,-15.340653677769337
7.539253385954395,3.544355691998309,8.071662244087392,-2.3597695343420355,-1.64760386386145,-14.52600798590284
7.574696942874378,3.5278796533596943,8.048064548743971,-2.5050296142010637,-1.963159991952542,-13.542646880908423
7.609975739407975,3.5082480534401688,8.02301425260196,-2.640456083010148,-2.452901362141907,-12.353985371357297
7.645058219942377,3.48371903981875,7.996609691771859,-2.763995936723721,-3.139909220059286,-10.93181089918557
7.679895410340564,3.452319947618157,7.968969732404622,-2.8733140457155764,-4.034492026786477,-9.265740559464609
7.714418609816746,3.4119750273502922,7.940236591947466,-2.9659714513102227,-5.12664088301083,-7.37367578227876
7.748538360090249,3.3607086185201838,7.910576877434363,-3.03970820913301,-6.380027344590984,-5.309980954135113
7.782145446275451,3.2969083450742738,7.880179795343033,-3.0928080186743614,-7.730767719307744,-3.1668773980514273
7.815114529726194,3.2196006678811964,7.8492517151562895,-3.1244767926548755,-9.093643578742261,-1.0653363945101086
7.847310536405006,3.1286642320937736,7.81800694722974,-3.1351301565999767,-10.375862193693187,0.8645467244563159
7.8785971787259435,3.024905610156842,7.786655645663741,-3.1264846893554137,-11.494660034124157,2.5083981782048115
