th1 (rad),w1 (rad/s),th2 (rad),w2 (rad/s),a1 (rad/s^2),a2 (rad/s^2)
3.2644541806102962,-3.0097713880637347,5.806126224243762,-2.627419579091788,4.392277706547404,3.0108057783491295
3.234356466729659,-2.9658486109982607,5.7798520284528445,-2.597311521308297,4.127158358659502,3.2040028606321704
3.2046979806196765,-2.9245770274116656,5.753878913239761,-2.5652714927019753,3.8525082243667996,3.3686216523897974
3.17545221034556,-2.886051945167998,5.728226198312742,-2.5315852761780775,3.5692154815565775,3.505937758404785
3.1465916908938802,-2.850359790352432,5.70291034555096,-2.4965258985940295,3.278088121567187,3.617146150349529
3.118088092990356,-2.8175789091367602,5.67794508656502,-2.460354437090534,2.9798535844416048,3.703358012152928
3.0899123038989886,-2.7877803732923443,5.653341542194115,-2.423320856969005,2.6751592575298586,3.7655990307640566
3.062034500166065,-2.7610287807170457,5.6291083336244245,-2.3856648666613642,2.3645736584584647,3.804808886420182
3.0344242123588945,-2.737383044132461,5.6052516849578105,-2.3476167777971626,2.0485881743330125,3.821841761198972
3.00705038191757,-2.716897162389131,5.581775517179839,-2.309398360185173,1.7276192716734404,3.817467741045359
2.979881410293679,-2.6996209696723965,5.558681533577987,-2.2712236827747194,1.4020111272566222,3.792375035442308
2.952885200596955,-2.6856008583998303,5.53596929675024,-2.2332999324202962,1.072038660097365,3.7471729816408508
2.9260291920129564,-2.674880471798857,5.513636297426038,-2.1958282026038876,0.7379109705464325,3.6823958382450357
2.8992803872949677,-2.6675013620933923,5.491678015399999,-2.159004244221437,0.399775215127663,3.5985074073490604
2.872605373674034,-2.6635036099421154,5.470087972957785,-2.1230191701479466,0.05772096633005943,3.4959065566534986
2.845970337574613,-2.6629264002788147,5.448857781256305,-2.0880601045814116,-0.2882148740071873,3.3749337442010696
2.8193410735718247,-2.6658085490188865,5.427977180210491,-2.054310767139401,-0.6380425201393473,3.235878679527305
2.7926829880816357,-2.67218897422028,5.407434072539097,-2.0219519803441277,-0.991813000164656,3.078989286839254
2.765961098339433,-2.6821071042219264,5.387214552735656,-1.9911620874757352,-1.3496109803045853,2.9044821687686353
2.7391400272972137,-2.695603214024972,5.367302931860898,-1.9621172657880488,-1.7115465703231936,2.7125548034420404
2.712183995156964,-2.712718679728204,5.3476817592030175,-1.9349917177536284,-2.0777459448493447,2.5033997428669377
2.6850568083596817,-2.7334961391766974,5.328331842025481,-1.9099577203249591,-2.448340595698875,2.2772211163396747
2.657721846967915,-2.7579795451336864,5.309232264822231,-1.8871855091615624,-2.823455011483385,2.0342537776540346
2.630142051516578,-2.7862140952485204,5.290360409730615,-1.866842971385022,-3.2031925638329177,1.7747854676775354
2.602279910564093,-2.8182460208868494,5.271691980016765,-1.8490951167082468,-3.5876193658035738,1.4991823920576757
2.5740974503552243,-2.8541222145448852,5.253201028849682,-1.83410329278767,-3.976745859240112,1.2079186343439061
2.5455562282097755,-2.8938896731372865,5.234859995921806,-1.8220241064442309,-4.370505886207058,0.9016098337090719
2.5166173314784026,-2.937594731999357,5.216639754857363,-1.81300800810714,-4.768733007742435,0.5810515487993047
2.487241384158409,-2.9852820620767813,5.198509674776291,-1.807197492619147,-5.171133854242721,0.24726269906395137
2.4573885635376413,-3.0369934006192083,5.1804376998501,-1.8047248656285075,-5.5772583293056,-0.09846558481672421
2.427018629531449,-3.092765983912264,5.162390451193815,-1.8057095214766747,-5.986466546742563,-0.45451546712716284
2.3960909696923265,-3.15263064937969,5.1443333559790485,-1.8102546761479463,-6.3978924628464355,-0.8188821795110374
2.3645646631985295,-3.2166095740081544,5.126230809217569,-1.8184434979430566,-6.810404276999369,-1.1891081690170124
2.332398567458448,-3.284713616778148,5.108046374238138,-1.8303345796332267,-7.22256181723625,-1.5622119968387547
2.299551431290667,-3.3569392349505107,5.089743028441806,-1.8459566996016141,-7.632571306806405,-1.9346127034393454
2.2659820389411616,-3.4332649480185746,5.071283461445789,-1.8653028266360077,-8.038238125659284,-2.3020507798083343
2.231649389460976,-3.5136473292751673,5.052630433179429,-1.888323334434091,-8.436918438658937,-2.6595073987735263
2.196512916168224,-3.5980165136617566,5.033747199835088,-1.9149184084218263,-8.825470860735642,-3.0011241690631616
2.1605327510316066,-3.686271222269113,5.014598015750869,-1.9449296501124578,-9.20020966795671,-3.3201263801357768
2.1236700388089154,-3.77827331894868,4.995148719249745,-1.9781309139138155,-9.556861442630437,-3.608753507200656
2.0858873056194285,-3.873841933374984,4.975367410110606,-2.014218448985822,-9.890527461610272,-3.858201641182035
2.0471488862856786,-3.9727472079910866,4.955225225620748,-2.052800465397642,-10.195654605151162,-4.058583495116295
2.007421414205768,-4.0747037540425985,4.934697220966772,-2.093386300348805,-10.4660180903851,-4.198912715450459
1.9666743766653418,-4.1793639349464495,4.913763357963284,-2.13537542750331,-10.694719938807442,-4.2671203955023485
1.9248807373158774,-4.286311134334524,4.892409603688251,-2.1780466314583333,-10.87420780129824,-4.250112952876059
1.882017625972532,-4.395053212347507,4.870629137373668,-2.220547760987094,-10.996319626157273,-4.133881894712071
1.838067093849057,-4.505016408609079,4.848423659763797,-2.261886579934215,-11.052360706725008,-3.9036774420119387
1.7930169297629663,-4.61554001567633,4.825804793964455,-2.3009233543543344,-11.033220914042822,-3.544259466710988
1.7468615296062031,-4.725872224816758,4.802795560420911,-2.3363659490214443,-10.929541395463735,-3.040240584154845
1.6996028073580356,-4.835167638771395,4.779431900930697,-2.3667683548629928,-10.73194160811728,-2.376537271549593
1.6512511309703217,-4.942487054852568,4.755764217382067,-2.3905337275784886,-10.431319019148939,-1.5389450617430325
1.601826260421796,-5.046800245044057,4.731858880106282,-2.405923178195919,-10.019234685753855,-0.5148523882648056
1.5513582579713556,-5.146992591901596,4.707799648324323,-2.411071702078567,-9.488397470249005,0.7058966727219028
1.4998883320523397,-5.241876566604086,4.6836889313035375,-2.404012735351348,-8.833256731310819,2.1299893467885607
1.4474695663862989,-5.330209133917194,4.659648803950024,-2.3827128418834627,-8.050706489068437,3.7594946940383425
1.394167475047127,-5.4107161988078785,4.635821675531189,-2.3451178949430793,-7.140891601461965,5.590615468384431
1.340060313059048,-5.482125114822498,4.612370496581758,-2.289211740259235,-6.108086878626323,7.612412795856925
1.2852390619108232,-5.543205983608761,4.589478379179166,-2.213087612300666,-4.961592606240268,9.805618512257263
1.2298070020747356,-5.592821909671164,4.567347503056159,-2.1150314271780934,-3.7165558202997793,12.14169937847377
1.173878782978024,-5.6299874678741615,4.546197188784379,-1.9936144333933556,-2.3945901538074383,14.582384377195453
1.1175789082992824,-5.653933369412236,4.526261044450445,-1.847790589621401,-1.0240365799513085,17.079896594563692
1.06103957460516,-5.664173735211749,4.507783138554231,-1.676991623675764,0.3603044769205744,19.57812542909291
1.0043978372530424,-5.660570690442543,4.4910132223174735,-1.4812103693848349,1.7181175126455883,22.01491254456661
0.947792130348617,-5.643389515316088,4.476201118623625,-1.2610612439391689,3.005272940300502,24.32549232567374
0.8913582351954561,-5.6133367859130825,4.463590506184233,-1.0178063206824315,4.176248087851058,26.44692819798321
0.8352248673363253,-5.571574305034572,4.453412442977409,-0.7533370387025994,5.187079350278869,28.323150281934502
0.7795091242859795,-5.519703511531783,4.445879072590382,-0.4701055358832544,5.998502246869598,29.909985709879276
0.7243120891706617,-5.4597184890630865,4.441178017231549,-0.1710056787844616,6.57882681714873,31.179454204408284
0.6697149042800308,-5.393930220891599,4.439467960443705,0.14078886325962126,6.906077120639786,32.122640562974006
0.6157756020711148,-5.324869449685202,4.440875849076301,0.46201526888936134,6.969018574901973,32.750672303954346
0.5625269075742628,-5.255179263936182,4.4454960017651945,0.7895219919289048,6.766890431611049,33.09368320382401
0.509975114934901,-5.187510359620072,4.453391221684484,1.120458823967145,6.307900296687835,33.198036683256305
0.45810001133870026,-5.124431356653194,4.464595809924155,1.452439190799708,5.6067523013511495,33.122404019929405
0.40685569777216835,-5.068363833639682,4.479120201832153,1.7836632309990021,4.681609846834429,32.93345642466757
0.3561720594357715,-5.021547735171338,4.496956834142143,2.1129977952456778,3.5509109387966733,32.701912517106095
0.3059565820840581,-4.9860386257833715,4.5180868120946,2.440016920416739,2.230371656914586,32.49952129639388
0.2560961958262244,-4.963734909214225,4.542486981298767,2.7650121333806776,0.7303714629922036,32.39733011407732
0.20645884673408213,-4.956431194584304,4.5701371026325734,3.088985434521451,-0.9462397567515259,32.46536419401173
0.1568945347882391,-4.965893592151819,4.601026956977788,3.413639076461568,-2.806000970705264,32.773680209151614
0.1072355988667209,-4.9939536018588715,4.635163347742403,3.741375878553084,-4.8665334414904065,33.39466530614637
0.05729606284813219,-5.042618936273776,4.6725771065279345,4.075322531614548,-7.158254663828699,34.40641073158479
0.0068698734853944315,-5.114201482912063,4.71333033184408,4.419386638930396,-9.726234497993726,35.8969309686209
-0.044272141343726194,-5.2114638278920005,4.7575241982333845,4.778355948616605,-12.632103017049975,37.96879434600043
-0.09638677962264619,-5.3377848580625,4.80530775771955,5.158043892076609,-15.95538437761961,40.74310198028319
-0.1497646282032712,-5.4973387018386966,4.856888196640316,5.565474911879441,-19.792332032577313,44.360065231661274
-0.20473801522165816,-5.69526202216447,4.91254294575911,6.0090755641960545,-24.247213328503488,48.96919662589804
-0.26169063544330284,-5.937734155449505,4.972633701401071,6.4987675304550345,-29.403544519669236,54.691866806859366
-0.3210679769977979,-6.231769600646197,5.037621376705621,7.0456861985236285,-35.24554382210423,61.5150369286824
-0.38338567300425985,-6.584225038867239,5.108078238690857,7.660836567810453,-41.46311484749333,69.02336810633116
-0.44922792339293227,-6.998856187342173,5.184686604368962,8.351070248873764,-47.01043261318338,75.78812834993295
-0.519216485266354,-7.4689605134740065,5.2681973068577,9.108951532373094,-49.262601557685386,78.19401022601325
-0.5939060904010941,-7.9615865290508605,5.3592868221814305,9.890891634633228,-43.04218423285939,69.07943096078316
-0.6735219556916027,-8.392008371379454,5.458195738527762,10.581685944241059,-21.794699725290382,39.37015103628821
-0.7574420394053972,-8.609955368632358,5.564012597970173,10.975387454603942,14.43714921033319,-10.806970228314013
-0.8435415930917208,-8.465583876529026,5.6737664725162125,10.867317752320801,50.06051755429211,-59.711150115952705
-0.9281974318570111,-7.964978700986105,5.782439650039421,10.270206251161275,67.47283412525309,-82.99681159532501
-1.0078472188668721,-7.290250359733574,5.885141712551033,9.440238135208025,67.35871785583247,-81.85744454677857
-1.080749722464208,-6.616663181175249,5.9795440939031135,8.62166368974024,59.807350502057844,-70.40874082307361
-1.1469163542759604,-6.01858967615467,6.065760730800516,7.917576281509504,51.27461092381023,-57.58698534163251
-1.2071022510375071,-5.505843566916568,6.144936493615611,7.341706428093179,43.93867888661895,-46.36470143728344
-1.2621606867066728,-5.066456778050378,6.218353557896543,6.878059413720345,38.14294196920104,-37.18096023629871
-1.3128252544871766,-4.685027358358368,6.2871341520337465,6.506249811357358,33.70055828481315,-29.752730574561685
-1.3596755280707602,-4.348021775510237,6.35219665014732,6.208722505611741,30.339683860129615,-23.687550307598144
-1.4031557458258626,-4.04462493690894,6.414283875203438,5.9718470025357595,27.822788669017307,-18.64563326239663
-1.443601995194952,-3.7663970502187674,6.474002345228795,5.785390669911793,25.96568905139978,-14.364831852874072
-1.4812659656971396,-3.5067401597047696,6.5318562519279135,5.641742351383052,24.630378839130444,-10.650604690246228
-1.5163333672941874,-3.260436371313465,6.588273675441744,5.53523630448059,23.713491840537273,-7.360842629138448
-1.548937731007322,-3.0233014529080924,6.64362603848655,5.461627878189206,23.136001340488843,-4.393127676918864
-1.579170745536403,-2.791941439503204,6.698242317268442,5.417696601420017,22.83503926819459,-1.6755770500294522
-1.6070901599314351,-2.563591046821258,6.752419283282642,5.400940830919723,22.75751141598694,0.8392060127051196
-1.6327260703996478,-2.3360159326613887,6.806428691591839,5.409332891046774,22.85501411330815,3.177819442012511
-1.6560862297262617,-2.1074657915283073,6.860522020502307,5.4411110854669,23.079671636250378,5.348077128147032
-1.677160887641545,-1.8766690751658035,6.914933131356976,5.49459185674837,23.38069914451639,7.339972405213864
-1.6959275783932029,-1.6428620837206396,6.96987904992446,5.567991580800508,23.701702327478532,9.126211327333149
-1.7123561992304093,-1.4058450604458543,7.025558965732465,5.65925369407384,23.978941737036077,10.663011696275642
-1.7264146498348678,-1.1660556430754936,7.082151502673203,5.765883811036597,24.141000516845597,11.891980339693527
-1.7380752062656228,-0.9246456379070376,7.139810340783569,5.884803614433532,24.11045233014621,12.743964885979922
-1.7473216626446932,-0.6835411146055754,7.198658376927905,6.012243263293332,23.808142181824973,13.145704194440125
-1.754157073790749,-0.44545969278732567,7.258780809560839,6.143700305237733,23.160441559498793,13.029715218054974
-1.7586116707186223,-0.21385527719233774,7.320217812613216,6.273997457418282,22.109208168548946,12.347021165760397
-1.7607502234905457,0.007236804493151727,7.382957787187399,6.397467669075886,20.623169143700988,11.081064471034276
-1.7606778554456142,0.21346849593016162,7.4469324638781575,6.508278313786229,18.70829150244241,9.259773970297132
-1.7585431704863126,0.40055141095458574,7.51201524701602,6.6008760534892,16.413929004742826,6.9619272367942555
-1.7545376563767667,0.564690701002014,7.578024007550912,6.670495325857143,13.831791317544248,4.314443193124669
-1.7488907493667465,0.7030086141774565,7.644728960809483,6.71363975778839,11.0864325269974,1.4794278246707275
-1.741860663224972,0.8138729394474306,7.711865358387367,6.728434036035098,8.31863135250759,-1.366882646167622
-1.7337219338304977,0.8970592529725064,7.779149698747719,6.714765209573422,5.665589736986622,-4.05815496056738
-1.7247513413007727,0.9537151503423726,7.846297350843453,6.674183659967748,3.2429953268755813,-6.45877573712509
-1.715214189797349,0.9861451036111285,7.913039187443131,6.609595902596498,1.1330875194405878,-8.47668900309746
-1.7053527387612377,0.9974759788055344,7.979135146469096,6.524829012565523,-0.619503459864449,-10.066572056138735
-1.6953779789731824,0.99128094420689,8.044383436594751,6.424163292004136,-2.0049360631024875,-11.224771338035302
-1.6854651695311136,0.971231583575865,8.108625069514792,6.311915578623783,-3.0407931980560607,-11.979247717043007
-1.675752853695355,0.9408236515953045,8.17174422530103,6.192123101453353,-3.7629797305952235,-12.378006338068037
-1.6663446171794019,0.9031938542893522,8.233665456315563,6.068343038072673,-4.217099814697615,-12.478604300802576
-1.6573126786365084,0.8610228561423761,8.294348886696291,5.943556995064647,-4.45157277534183,-12.340088552616916
-1.6487024500750846,0.8165071283889578,8.353784456646938,5.820156109538478,-4.5128791958957315,-12.017666334824668
-1.640537378791195,0.7713783364300004,8.411986017742324,5.699979446190231,-4.442762708296983,-11.5597677826826
-1.632823595426895,0.7269507093470305,8.468985812204226,5.584381768363405,-4.276952086818353,-11.006897131854108
-1.6255540883334247,0.684181188478847,8.52482962988786,5.474312797044864,-4.044922224695574,-10.391657025193853
-1.6187122764486364,0.6437319662318912,8.579572757858308,5.370396226792925,-3.7702799425809825,-9.739440688249363
-1.6122749567863175,0.6060291668060814,8.633276720126238,5.273001819910432,-3.4714666980464854,-9.069430292797719
-1.6062146651182567,0.5713144998256166,8.686006738325343,5.182307516982455,-3.162573129483407,-8.395669898236918
-1.6005015201200006,0.5396887685307825,8.737829813495168,5.098350818000085,-2.8541425241367917,-7.728080864521455
-1.5951046324346927,0.5111473432894146,8.78881332167517,5.021070009354871,-2.5538985720786838,-7.073355678935773
-1.5899931590017986,0.48560835756862775,8.839024021768719,4.950336452565513,-2.2673704700075583,-6.435708541799708
-1.5851370754261123,0.4629346528685522,8.888527386294374,4.885979367147516,-1.9984107844314027,-5.81748504429639
-1.5805077288974267,0.44295054502423814,8.93738717996585,4.827804516704552,-1.7496133949049835,-5.219645171566339
-1.5760782234471844,0.42545441107518833,8.985665225132895,4.775608064988888,-1.522644174787432,-4.642138419039571
-1.5718236793364324,0.41022796932731403,9.033421305782783,4.729186680798493,-1.3184985547016208,-4.084190252902842
-1.5677213996431594,0.39704298378029784,9.080713172590768,4.688344778269464,-1.137699538689423,-3.54451752841839
-1.5637509698053564,0.3856659883934036,9.127596620373462,4.65289960298528,-0.980448204800926,-3.0214880234889043
-1.5598943099214224,0.37586150634539434,9.174125616403314,4.622684722750391,-0.8467368565411425,-2.513236626923068
-1.5561356948579685,0.3673941377799829,9.220352463630817,4.59755235648116,-0.7364331396254447,-2.017748283481176
-1.5524617534801688,0.3600298063837285,9.266327987195629,4.577374873646348,-0.6493417612064499,-1.5329156874412917
-1.5488614554163316,0.353536388771664,9.312101735932092,4.5620457167719355,-0.5852490044084472,-1.056577972536001
-1.5453260915286149,0.34768389872757954,9.357722193099812,4.551479937046575,-0.543954022028512,-0.5865452548106019
-1.5418492525413392,0.3422443585072944,9.403236992470278,4.545614484498469,-0.5252898940357572,-0.12061281044818122
-1.5384268089562663,0.3369914595669368,9.448693137315264,4.544408356393988,-0.529136605997419,0.34343212731102707
-1.535056894360597,0.3317000935069626,9.494137220879203,4.547842677667098,-0.5554274072342645,0.8078085244628883
-1.5317398934255273,0.32614581943461995,9.539615647655873,4.555920762911726,-0.6041493945005818,1.2747425678422026
-1.528478435231181,0.32010432548961415,9.58517485528499,4.568668188590149,-0.6753385944690022,1.7464695986966765
-1.525277391976285,0.3133509395449241,9.630861537170892,4.586132884577116,-0.7690692389566068,2.225234929622316
-1.5221438825808358,0.30566024715535806,9.676722866016663,4.608385233873339,-0.885436287969049,2.713291207440443
-1.5190872801092823,0.29680588427566756,9.722806718355397,4.635518145947743,-1.0245294951939234,3.2128893952762314
-1.5161192212665255,0.28656058932372835,9.769161899814874,4.667647039900506,-1.1863963520035132,3.726259501244548
-1.5132536153732883,0.2746966258036932,9.815838370213879,4.704909634912951,-1.3709899922885485,4.255575766117621
-1.5105066491152515,0.26098672588080774,9.862887466563008,4.747465392574128,-1.578096467521273,4.802898979859261
-1.5078967818564433,0.245205761205595,9.910362120488749,4.795494382372721,-1.807233552876817,5.370085714217914
-1.5054447242443874,0.22713342567682684,9.958317064312476,4.8491952395149,-2.057510231171884,5.958650264083154
-1.5031733899876192,0.20655832336510802,10.006809016707626,4.908781742155732,-2.327432009818287,6.569559663472687
-1.501107806753968,0.18328400326692515,10.055896834129184,4.974477338790459,-2.614632062048436,7.202934958011726
-1.4992749667212988,0.1571376826464408,10.10564160751709,5.0465066883705765,-2.9155017674734935,7.857622765845386
-1.4977035898948343,0.12798266497170585,10.156106674400796,5.12508291602903,-3.224686807215004,8.530590223120317
-1.4964237632451172,0.0957357968995558,10.207357503561086,5.210388818260234,-3.5344075512028184,9.216084818548222
-1.4954664052761215,0.06039172138752762,10.259461391743688,5.302549666445716,-3.8335576271153076,9.904491526774434
