th1 (rad),w1 (rad/s),th2 (rad),w2 (rad/s),a1 (rad/s^2),a2 (rad/s^2)
2.121141632687702,-0.003833384538619247,0.6216577282979396,-2.00219014503225,-10.174757301931525,-4.982372384920943
2.121103298842316,-0.1055809575579345,0.6016358268476172,-2.0520138688814593,-10.32736235992658,-5.005728267032616
2.1200474892667365,-0.2088545811572003,0.5811156881588025,-2.1020711515517854,-10.48712301845711,-5.002068157104677
2.1179589434551644,-0.3137258113417714,0.5600949766432847,-2.152091833122832,-10.652659120935583,-4.970237479918752
2.1148216853417465,-0.4202524025511272,0.5385740583120564,-2.2017942079220196,-10.822487938796616,-4.908928663829094
2.1106191613162353,-0.5284772819390934,0.5165561162328363,-2.2508834945603104,-10.995019439401934,-4.81668987587644
2.1053343884968445,-0.6384274763331127,0.49404728128723313,-2.299050393319075,-11.16855404423638,-4.691936460185341
2.0989501137335136,-0.7501130167754765,0.4710567773540424,-2.3459697579209284,-11.341283283132997,-4.532965527123164
2.091448983565759,-0.8635258496068065,0.4475970797748331,-2.39129941319216,-11.511293782858317,-4.337974122810759
2.0828137250696908,-0.9786387874353897,0.4236840856429115,-2.4346791544202677,-11.676575049383745,-4.105081372482427
2.0730273371953367,-1.0954045379292272,0.39933729409870883,-2.475729968145092,-11.835031509278766,-3.8323549332902695
2.0620732918160445,-1.2137548530220148,0.3745799944172579,-2.5140535174779948,-11.984499263572296,-3.517842008871263
2.0499357432858245,-1.3335998456577378,0.349439459242478,-2.549231937566707,-12.122767973971849,-3.1596050660288593
2.036599744829247,-1.4548275253974563,0.3239471398668109,-2.580827988226996,-12.247608243687745,-2.7557622503704993
2.0220514695752723,-1.5773036078343337,0.2981388599845409,-2.608385610730701,-12.356804771037392,-2.304532320507645
2.006278433496929,-1.7008716555447077,0.2720550038772339,-2.631430933935777,-12.448195442053422,-1.804283708149869
1.989269716941482,-1.8253536099652419,0.24574069453787614,-2.6494737710172758,-12.519716388046328,-1.2535870638323354
1.9710161808418294,-1.950550773845705,0.21924595682770337,-2.662009641655599,-12.569452866224111,-0.6512703660197279
1.9515106731033725,-2.0762453025079464,0.19262586041114738,-2.6685223453157962,-12.595695628146364,0.0035246428114194535
1.930748220078293,-2.20220225878941,0.1659406369579894,-2.668487098887682,-12.597002225596185,0.7112862719976252
1.9087261974903988,-2.3281722810453718,0.1392557659691126,-2.6613742361677057,-12.572262471693517,1.4720788945143042
1.885444474679945,-2.453894905762307,0.11264202360743554,-2.6466534472225627,-12.520767034023121,2.2854934789346766
1.860905525622322,-2.5791025761025383,0.08617548913520992,-2.6237985124332157,-12.44227789587287,3.1506053497364905
1.8351144998612965,-2.703525355061267,0.05993750401087776,-2.5922924589358507,-12.33709919403577,4.065942257810352
1.8080792463106838,-2.826896347001625,0.03401457942151925,-2.5516330363577473,-12.206146743484481,5.029466187140323
1.7798102828406677,-2.94895781443647,0.00849824905794178,-2.501338374486344,-12.051014411759866,6.038572613827554
1.750320704696303,-3.0694679585540685,-0.016515134686921663,-2.440952648348069,-11.874035435869796,7.090111140018108
1.7196260251107622,-3.1882083129127663,-0.040924661170402346,-2.3700515369478876,-11.67833681463948,8.180431513381421
1.6877439419816345,-3.3049916810591613,-0.06462517653988123,-2.2882472218140735,-11.467885098235406,9.305458976039834
1.654694025171043,-3.4196705320415153,-0.08750764875802197,-2.195192632053675,-11.247522276487336,10.460802631481629
1.6204973198506278,-3.532145754806389,-0.10945957507855872,-2.090584605738859,-11.022991081842331,11.641900050120354
1.585175862302564,-3.642375665624812,-0.13036542113594732,-1.9741656052376553,-10.800949909918812,12.844200649033185
1.5487521056463158,-3.7503851647240003,-0.15010707718832386,-1.8457235987473235,-10.588978747638901,14.06338950336109
1.511248253999076,-3.856274952200389,-0.1685643131757971,-1.7050897037137127,-10.395578992639223,15.295652237659072
1.472685504477072,-3.9602307421267815,-0.18561521021293423,-1.552133181337122,-10.23017182567229,16.537980607336397
1.433083197055804,-4.062532460383505,-0.20113654202630546,-1.386753375263758,-10.103101798863833,17.788517448304926
1.392457872451969,-4.163563478372143,-0.21500407577894304,-1.2088682007807088,-10.025654416304892,19.046938990169444
1.3508222376682475,-4.263820022535191,-0.22709275778675012,-1.0183988108790143,-10.010098532937624,20.31487219416155
1.3081840374428957,-4.363921007864568,-0.23727674589554026,-0.8152500889373988,-10.069766107970489,21.59634475373032
1.2645448273642501,-4.464618668944273,-0.24542924678491426,-0.5992866414000956,-10.219182775392625,22.898265345965847
1.2198986406748074,-4.566810496698199,-0.2514221131989152,-0.3703039879404371,-10.474262068130225,24.230930725232735
1.1742305357078253,-4.671553117379501,-0.25512515307831957,-0.12799468068810976,-10.852572540089144,25.60855229013382
1.1275150045340303,-4.780078842780393,-0.25640509988520066,0.12809084221322842,-11.373677759213804,27.04978376097798
1.0797142161062263,-4.89381562037253,-0.25512419146306836,0.3985886798230082,-12.059528881709648,28.578205613807047
1.030776059902501,-5.0144109091896265,-0.2511383046648383,0.6843707359610787,-12.934847778467107,30.222665486107903
0.9806319508106048,-5.143759386974297,-0.24429459730522748,0.9865973908221577,-14.027354768008884,32.01725695395649
0.9291943569408618,-5.284032934654386,-0.2344286233970059,1.3067699603617227,-15.367528180949206,34.00048376413663
0.876354027594318,-5.437708216463878,-0.22136092379338868,1.6467747980030891,-16.987253768231454,36.21269045361301
0.8219769454296793,-5.607580754146192,-0.20489317581335778,2.008901702539219,-18.916078225262368,38.689929566407216
0.7659011378882173,-5.796741536398816,-0.18480415878796558,2.395800998203291,-21.17254332345501,41.45068958691375
0.7079337225242291,-6.008466969633366,-0.16084614880593268,2.8103078940724284,-23.745778109588173,44.46867657451036
0.6478490528278955,-6.245924750729247,-0.1327430698652084,3.254994659817532,-26.558565930338858,47.61930161501964
0.585389805320603,-6.511510410032636,-0.10019312326703307,3.7311876759677283,-29.397439861630886,50.57966705062803
0.5202747012202766,-6.805484808648945,-0.0628812465073558,4.236984346474008,-31.791610261208188,52.656866248232134
0.4522198531337872,-7.123400911261027,-0.020511403042615714,4.76355300895633,-32.83781712399058,52.54164087504836
0.38098584402117697,-7.4517790825009325,0.027124127046947583,5.288969417706813,-31.053083964860352,48.10536916233254
0.30646805319616766,-7.7623099221495355,0.08001382122401571,5.770023109330138,-24.56935920097508,36.687099613856105
0.2288449539746723,-8.008003514159286,0.1377140523173171,6.136894105468699,-12.244281040908017,16.684104738618643
0.14876491883307943,-8.130446324568366,0.19908299337200408,6.303735152854886,4.338943888386177,-9.596433715833422
0.06746045558739577,-8.087056885684504,0.2621203449005529,6.207770815696551,20.277461632189908,-35.084559948388886
-0.01341011326944927,-7.884282269362605,0.3241980530575184,5.856925216212662,30.63712475700059,-52.61938942304657
-0.09225293596307532,-7.577911021792599,0.382767305219645,5.330731321982197,34.24885980093381,-60.38070935085495
-0.16803204618100132,-7.235422423783261,0.436074618439467,4.7269242284736475,33.15333054630796,-61.16186553451059
-0.24038627041883392,-6.903889118320181,0.48334386072420343,4.115305573128541,29.8539633614261,-58.48742261784093
-0.3094251616020357,-6.605349484705919,0.5244969164554889,3.530431346950132,25.967520911747922,-54.66883859563838
-0.3754786564490949,-6.34567427558844,0.5598012299249903,2.983742960993748,22.26039033860421,-50.823541350143536
-0.43893539920497926,-6.123070372202398,0.5896386595349278,2.4755075474923127,19.013110307413204,-47.37522566054556
-0.5001661029270033,-5.932939269128266,0.614393735009851,2.001755290886857,16.284196234823927,-44.42314022642535
-0.5594954956182859,-5.770097306780026,0.6344112879187195,1.5575238886226035,14.045926620828718,-41.93506219125418
-0.6171964686860862,-5.629638040571739,0.6499865268049455,1.1381732667100617,12.244557528575859,-39.834751774213366
-0.6734928490918036,-5.50719246528598,0.6613682594720461,0.7398257489679281,10.824314088369588,-38.038276162516716
-0.7285647737446634,-5.398949324402285,0.6687665169617254,0.3594429873427609,9.735563268516643,-36.46771553637915
-0.7825542669886862,-5.301593691717118,0.672360946835153,-0.005234168021030605,8.936513175061755,-35.05542914081541
-0.8355702039058575,-5.2122285599665,0.6723086051549427,-0.35578845942918474,8.392486828707385,-33.74463782502009
-0.8876924895055225,-5.1283036916794265,0.6687507205606509,-0.6932348376793857,8.074461451646789,-32.488741149545945
-0.9389755264223167,-5.047559077162958,0.661818372183857,-1.0181222491748452,7.9575503936811955,-31.25033183554541
-0.9894511171939463,-4.967983573226147,0.6516371496921085,-1.3306255675302991,8.019678170486552,-30.000248961733696
-1.0391309529262078,-4.887786791521282,0.6383308940168055,-1.6306280571476361,8.240523732124398,-28.716754458298702
-1.0880088208414207,-4.8053815542000375,0.6220246134453292,-1.9177956017306232,8.600737235003757,-27.38481943890974
-1.136062636383421,-4.71937418185,0.602846657428023,-2.191643796119721,9.081408823687664,-25.995477869417186
-1.183256378201921,-4.628560093613124,0.5809302194668258,-2.4515985748138927,9.663758036573208,-24.54520531175174
-1.2295419791380522,-4.531922513247392,0.5564142337186868,-2.69705062793141,10.329008923649086,-23.03529205590493
-1.274861204270526,-4.428632424010901,0.5294437274393727,-2.9274035484904593,11.058414991896726,-21.471194432191325
-1.319147528510635,-4.318048274091934,0.5001696919544681,-3.1421154928123727,11.833398549888022,-19.8618614003595
-1.3623280112515543,-4.199714288593054,0.4687485370263444,-3.3407341068159675,12.635770678717625,-18.219043757960247
-1.4043251541374848,-4.073356581805878,0.4353411959581847,-3.52292454439557,13.448000812568864,-16.556599892485593
-1.4450587199555436,-3.938876573680189,0.400111950514229,-3.6884905433204263,14.253508540858604,-14.8898151300071
-1.4844474856923455,-3.796341488271603,0.3632270450810247,-3.8373886946204974,15.036954381585193,-13.234752105937362
-1.5224109005750615,-3.6459719444557512,0.32485315813481974,-3.969736215679871,15.784510524542046,-11.607648102462834
-1.558870620019619,-3.488126839210331,0.28515579597802104,-4.085812696704499,16.484096586828713,-10.024372822945207
-1.5937518884117223,-3.323285873342044,0.24429766901097605,-4.186056424933951,17.125569099180026,-8.499957257611133
-1.6269847471451429,-3.1520301823502437,0.20243710476163654,-4.271055997510063,17.70085675048299,-7.048201507655537
-1.6585050489686453,-2.9750216148454136,0.15972654478653592,-4.341538012586618,18.204036473419027,-5.68136678882597
-1.6882552651170994,-2.7929812501112234,0.11631116466066974,-4.398351680474877,18.631348402539192,-4.4099542743678875
-1.7161850776182117,-2.6066677660858315,0.07232764785592097,-4.442451223218556,18.98115067457424,-3.2425708510882667
-1.74225175527907,-2.416856259340089,0.027903135623735406,-4.474876931729439,19.253817964826275,-2.1858791882202357
-1.766420317872471,-2.2243180796918263,-0.01684563369355898,-4.496735723611641,19.451590445258336,-1.244626798436339
-1.7886634986693892,-2.029802175239243,-0.06181299092967539,-4.509181991596004,19.578382307315813,-0.4217461564285553
-1.8089615204217817,-1.8340183521660847,-0.10690481084563544,-4.5133994531602895,19.63956088479243,0.2814843407672301
-1.8273017039434425,-1.6376227433181603,-0.15203880537723835,-4.510584609752617,19.641708541889788,0.8652304978069703
-1.843677931376624,-1.4412056578992625,-0.1971446514747645,-4.501932304774547,19.59237974514243,1.3308564080842764
-1.8580899879556168,-1.2452818604478382,-0.24216397452250998,-4.488623740693704,19.499865109850568,1.6806554890483827
-1.870542806560095,-1.0502832093493324,-0.287050211929447,-4.4718171858032205,19.3729728021022,1.9175707433013356
-1.8810456386535883,-0.8565534813283104,-0.33176838378747925,-4.452641478370207,19.220835663855766,2.044915147513239
-1.8896111734668715,-0.6643451246897527,-0.3762947985711813,-4.432192326895075,19.052750022560716,2.066101266940333
-1.896254624713769,-0.47381762446414555,-0.42061672184013205,-4.411531314225672,18.87804954550057,1.9843872624390493
-1.9009928009584105,-0.28503712900913986,-0.4647320349823888,-4.391687441601282,18.70601483820943,1.8026447421665215
-1.9038431722485019,-0.09797698062704555,-0.5086489093984016,-4.373660994179617,18.545816798526193,1.5231527906346642
-1.9048229420547722,0.08748118735821639,-0.5523855193401978,-4.35842946627327,18.40648891287033,1.1474224220471578
-1.90394813018119,0.2715460764869197,-0.5959698140029305,-4.346955242052799,18.296920420254168,0.6760572123786681
-1.9012326694163209,0.45451528068946134,-0.6394393664234584,-4.340194669929012,18.225858018996814,0.10865975728273461
-1.8966875166094261,0.6367738608794294,-0.6828413131227485,-4.339108072356185,18.201897638103254,-0.556198915280271
-1.8903197780006318,0.818792837260462,-0.7262323938463104,-4.344670061508987,18.233438298706428,-1.3209168870502037
-1.8821318496280273,1.0011272202475263,-0.7696790944614003,-4.357879230379489,18.328555023693898,-2.188654336219429
-1.872120577425552,1.1844127704844654,-0.8132578867651952,-4.379765773741684,18.49472374153087,-3.1628959746204526
-1.8602764497207074,1.369360007899774,-0.857055544502612,-4.411394733487889,18.738293230390568,-4.246642523737481
-1.8465828496417096,1.5567429402036796,-0.9011694918374908,-4.453861158725264,19.063540585253715,-5.441006924176964
-1.831015420239673,1.747378346056217,-0.9457081034247434,-4.508271227967033,19.471059449043345,-6.7428661541369
-1.8135416367791106,1.9420889405466504,-0.9907908157044137,-4.575699889508402,19.95510841745111,-8.141045032100367
-1.794120747373644,2.1416400247211613,-1.0365478145994977,-4.657110339829406,20.499397453701725,-9.610292970344926
-1.7727043471264323,2.3466339992581786,-1.0831189179977918,-4.753213269532855,21.070660264524903,-11.102123577742084
-1.7492380071338505,2.5573406019034275,-1.1306510506931204,-4.864234505310276,21.609401257660856,-12.53163032477782
-1.7236646011148162,2.773434614480036,-1.1792933957462233,-4.989550808558054,22.017790328182084,-13.760192014542225
-1.695930254970016,2.993612517761857,-1.2291889038318038,-5.127152728703476,22.14656267084422,-14.576601644771381
-1.6659941297923972,3.2150781444702994,-1.2804604311188386,-5.272918745151189,21.787099711627043,-14.685196685272217
-1.6338433483476942,3.43294914158657,-1.3331896185703505,-5.419770712003912,20.682256392104254,-13.719960752215643
-1.5995138569318286,3.6397717055076124,-1.3873873256903895,-5.556970319526068,18.576937016270794,-11.314122233722498
-1.5631161398767524,3.8255410756703205,-1.4429570288856501,-5.670111541863292,15.324748004520728,-7.248492957812075
-1.524860729120049,3.9787885557155276,-1.4996581443042831,-5.742596471441413,11.030046574744558,-1.6502642621144643
-1.485072843562894,4.089089021462973,-1.5570841090186973,-5.759099114062558,6.136313691679696,4.881703148070189
-1.4441819533482643,4.15045215837977,-1.614675100159323,-5.710282082581855,1.343021134179198,11.389768581470575
-1.4026774317644666,4.163882369721562,-1.6717779209851416,-5.596384396767149,-2.658015794072903,16.921965574369498
-1.361038608067251,4.137302211780833,-1.727741764952813,-5.4271647410234545,-5.454129758610797,20.908281716326943
-1.3196655859494426,4.082760914194725,-1.7820134123630476,-5.218081923860185,-6.998351701055512,23.28097840482963
-1.2788379768074953,4.01277739718417,-1.8341942316016495,-4.985272139811889,-7.501650692957393,24.326171553137204
-1.2387102028356536,3.9377608902545957,-1.8840469529997683,-4.742010424280517,-7.266196051995568,24.45437739509797
-1.1993325939331076,3.86509892973464,-1.9314670572425734,-4.497466650329537,-6.569343949628058,24.041513292863986
-1.1606816046357613,3.7994054902383594,-1.9764417237458687,-4.257051517400897,-5.618655147601705,23.367850972837328
-1.1226875497333777,3.7432189387623422,-2.0190122389198777,-4.023373007672523,-4.551361665356904,22.617875375405085
-1.0852553603457542,3.697705322108773,-2.0592459689966027,-3.7971942539184727,-3.4504202157862087,21.902587058743833
-1.0482783071246664,3.663201119950911,-2.0972179115357874,-3.5781683833310343,-2.3620363972962086,21.283538645615916
-1.0116462959251573,3.6395807559779487,-2.132999595369098,-3.365332996874875,-1.3094265249651709,20.791532309069794
-0.9752504883653779,3.626486490728297,-2.166652925337847,-3.157417673784177,-0.3022473958960912,20.439285115489632
-0.9389856234580949,3.623464016769336,-2.1982271020756885,-2.953024822629281,0.657385433328386,20.229375681950604
-0.9027509832904015,3.63003787110262,-2.227757350301981,-2.7507310658097746,1.571209056656543,20.15897760528588
-0.8664506045793753,3.6457499616691855,-2.255264660960079,-2.549141289756916,2.4426051615718363,20.222549348101023
-0.8299931049626834,3.670176013284904,-2.2807560738576482,-2.3469157962759057,3.2752941069705552,20.413271469531285
-0.7932913448298344,3.7029289543546096,-2.304225231820407,-2.142783081580593,4.072563362122936,20.723731446446397
-0.7562620552862883,3.743654587975839,-2.325653062636213,-1.9355457671161291,4.8368055578530535,21.146161767717857
-0.7188255094065299,3.7920226435543696,-2.3450085203073745,-1.7240841494389505,5.569232825205981,21.672415353000073
-0.6809052829709862,3.8477149718064294,-2.362249361801764,-1.5073599959089496,6.2696910591814685,22.293789604546628
-0.6424281332529219,3.910411882398244,-2.3773229617608536,-1.2844220998634834,6.936533104248651,23.000768660630605
-0.6033240144289395,3.9797772134407308,-2.3901671827594884,-1.0544144132571773,7.5665320932684805,23.78273081726614
-0.5635262422945322,4.055442534373416,-2.4007113268920603,-0.8165871050845159,8.154830479524414,24.62765706806284
-0.522971816950798,4.13699083916866,-2.4088771979429056,-0.5703105344038875,8.694929656218232,25.52187243387294
-0.4816019085591114,4.223940135730842,-2.4145803032869444,-0.3150918100651581,9.178730976376052,26.44985091783956
-0.439362507201803,4.315727445494603,-2.417731221387596,-0.050593300886762504,9.596642048569304,27.39411504545129
-0.39620523274685693,4.411693865980296,-2.4182371543964636,0.2233478495677504,9.937762399963377,28.335259966260825
-0.35208829408705394,4.51107148997993,-2.416003675900786,0.5067004492303586,10.190159709516166,29.252128221866453
-0.30697757918725466,4.612973087075091,-2.410936671408482,0.7992217314490231,10.341241585597675,30.12215311826675
-0.26084784831650376,4.716385502931068,-2.402944454093992,1.1004432626316905,10.378218379238229,30.921875414532586
-0.21368399328719306,4.82016768672345,-2.391940021467675,1.4096620167770162,10.288640466612534,31.62761998063863
-0.16548231641995856,4.9230540913895755,-2.377843401299905,1.7259382165834025,10.060980258540482,32.21629771485688
-0.1162517755060628,5.02366389397498,-2.3605840191340706,2.0481011937319713,9.685217129052035,32.66627628011416
-0.066015136566313,5.120516065265501,-2.340103007196751,2.374763956533113,9.153375229364784,32.958245191697344
-0.014809975913657986,5.212049817559149,-2.3163553676314197,2.7043464084500863,8.459962447247309,33.07599095758482
0.0373105222619335,5.2966494420316215,-2.2893119035469187,3.0351063180259343,7.602265471033175,33.00700015376136
0.09027701668224972,5.372672096741953,-2.2589608403666595,3.365176319563548,6.580471389643011,32.742824441185874
0.14400373764966926,5.438476810638383,-2.225309077171024,3.6926045639754066,5.397608909990737,32.27917071754229
0.19838850575605307,5.49245289973829,-2.18838303153127,4.01539627115083,4.059328607866553,31.615717896796987
0.253313034753436,5.533046185816956,-2.1482290688197616,4.3315534501187996,2.5735668900055484,30.755702821174573
0.3086434966116055,5.558781854717012,-2.1049135343185736,4.6391104783305455,0.9501575607742974,29.7053540463519
