th1 (rad),w1 (rad/s),th2 (rad),w2 (rad/s),a1 (rad/s^2),a2 (rad/s^2)
4.479735486791244,0.3781494659030427,5.3493783059702205,-1.9189968555826353,10.653860303129886,0.8960589186641538
4.483516981450274,0.4846880689343416,5.330188337414394,-1.9100362663959938,10.662892036854089,0.748589538630729
4.488363862139617,0.5913169893028825,5.311087974750434,-1.9025503710096865,10.688305579955848,0.5687094970966234
4.494277032032646,0.6982000451024409,5.292062471040337,-1.8968632760387203,10.731045068457036,0.3567205747555396
4.501259032483671,0.8055104957870113,5.27309383827995,-1.893296070291165,10.791908587043505,0.11306043675190294
4.5093141374415415,0.9134295816574464,5.254160877577038,-1.892165465923646,10.871490439278848,-0.16160071231290185
4.518448433258116,1.022144486050235,5.2352392229178015,-1.893781473046775,10.970101748405103,-0.46622952413094265
4.5286698781186185,1.131845503534286,5.216301408187333,-1.8984437682880844,11.087662494622213,-0.7992551911776091
4.539988333153961,1.2427221284805081,5.197316970504453,-1.9064363201998604,11.223556663554124,-1.1583395932427811
4.552415554438767,1.3549576951160494,5.178252607302454,-1.9180197161322883,11.37644090990189,-1.540078268188522
4.565965131389928,1.4687221042150682,5.159072410141131,-1.9334204988141734,11.543996516996023,-1.93961771987664
4.580652352432078,1.5841620693850285,5.139738205152989,-1.9528166760129397,11.722615344638772,-2.350175973107005
4.596493973125928,1.701388222831416,5.12021003839286,-1.9763184357440098,11.907014401505073,-2.762459087802238
4.613507855354242,1.820458366846467,5.10044685403542,-2.003943026622032,12.089782993716083,-3.1639799190282836
4.6317124390227065,1.9413561967836277,5.080407423769199,-2.035582825812315,12.260884415258001,-3.538311537558202
4.651126000990542,2.063965040936208,5.0600515955110765,-2.070965941187897,12.40716496462808,-3.8643523056985942
4.671765651399904,2.1880366905824884,5.039341936099198,-2.1096094642448833,12.511970484298741,-4.115748085700092
4.69364601830573,2.3131563954254757,5.018245841456749,-2.1507669451018843,12.555035269810569,-4.260710412859615
4.716777582259985,2.4387067481235816,4.99673817200573,-2.1933740492304805,12.512882093940451,-4.2625763466743765
4.74116464974122,2.563835569062986,4.974804431513426,-2.2359998126972243,12.360030407608019,-4.081540734440157
4.76680300543185,2.687435873139066,4.952444433386454,-2.276815220041626,12.07130295567372,-3.677984037753087
4.793677364163241,2.8081489026958035,4.929676281186038,-2.3135950604191566,11.625376493137605,-3.0176148127978766
4.8217588531901985,2.9244026676271795,4.906540330581846,-2.3437712085471354,11.009371801762734,-2.0781471576319417
4.851002879866471,3.0344963856448066,4.883102618496375,-2.3645526801234547,10.223724268489184,-0.8564414772741255
4.881347843722919,3.1367336283296985,4.85945709169514,-2.373117094896196,9.285979769847732,0.625821777703971
4.912715180006216,3.229593426028176,4.835725920746178,-2.366858877119156,8.2318712615448,2.320294888910766
4.945011114266498,3.3119121386436237,4.812057331974986,-2.3436559282300484,7.112445881193761,4.155734401752554
4.978130235652934,3.383036597455561,4.788620772692686,-2.302098584212523,5.987242880049289,6.047451344778874
5.011960601627489,3.442909026256054,4.765599786850561,-2.241624070764734,4.915113041114406,7.910238951315757
5.04638969189005,3.4920601566671983,4.743183546142913,-2.1625216812515764,3.9453355196451314,9.671037140761548
5.081310293456721,3.5315135118636496,4.7215583293303975,-2.0658113098439608,3.1115397846388158,11.27775978810554
5.116625428575358,3.5626289097100377,4.7009002162319575,-1.9530337119629053,2.429670449089492,12.702472675473308
5.152251717672459,3.5869256142009327,4.681369879112329,-1.8260089852081722,1.8996430979380663,13.939347672991326
5.188120973814469,3.6059220451803133,4.663109789260247,-1.686615508478259,1.5092811836060633,14.999329421342937
5.224180194266272,3.621014857016374,4.646243634175464,-1.5366222142648296,1.2389227014576853,15.903764001012647
5.260390342836436,3.6334040840309507,4.630877412032816,-1.377584574254703,1.065510624621252,16.67866589173936
5.296724383676746,3.6440591902771633,4.617101566290269,-1.2107979153373094,0.9656007181576991,17.350442047180216
5.333164975579518,3.65371519745874,4.604993587136896,-1.0372934948655073,0.917219693972788,17.943193332143217
5.369702127554105,3.662887394398468,4.594620652188241,-0.8578615615440751,0.9007803510439976,18.477325905558114
5.40633100149809,3.671895197908908,4.586042036572801,-0.6730883024884939,0.899344116717138,18.96908205648724
5.443049953477179,3.6808886390760795,4.579311153547915,-0.48339748192362153,0.8984957980247968,19.430630849370598
5.47985883986794,3.6898735970563274,4.574477178728679,-0.2890911734299155,0.8860284043019658,19.87044916650813
5.516757575838503,3.698733881099347,4.571586266994379,-0.09038668176483422,0.8515671695417499,20.293817888116326
5.553744914649497,3.7072495527947646,4.570682400176731,0.11255149711632906,0.7862075738678386,20.703332955746866
5.590817410177444,3.715111628533443,4.571807915147895,0.31958482667379773,0.6822050118519448,21.099382590757408
5.627968526462779,3.7219336786519626,4.5750037634146326,0.5305786525813718,0.5327308827735389,21.480573660536137
5.665187863249299,3.727260987479698,4.580309549940447,0.7453843891867332,0.33169704663310745,21.844107743391856
5.702460473124096,3.730577957946029,4.587763393832314,0.9638254666206518,0.07364407140472198,22.18611585139991
5.739766252703556,3.7313143986600763,4.59740164849852,1.185686625134651,-0.24631422378887788,22.501963692711573
5.777079396690157,3.7288512564221876,4.609258514749866,1.4107062620617667,-0.6324985177948556,22.786539188932075
5.814367909254378,3.722526271244239,4.623365577370484,1.6385716539510875,-1.088632939160981,23.034532164927324
5.851593171966821,3.711639941852629,4.6397512939099945,1.8689169756003607,-1.6177842563415743,23.24071353507818
5.888709571385347,3.6954620992892133,4.658440463665998,2.1013241109511425,-2.2222805374338663,23.400218389864076
5.925664192378239,3.673239293914875,4.67945370477551,2.335326294849783,-2.903618851631725,23.508834408785713
5.9623965853173875,3.6442031053985575,4.702806967724007,2.57041463893764,-3.662372032866787,23.563294165676822
5.998838616371373,3.6075793850698896,4.728511114113384,2.8060475805944085,-4.498104974003395,23.561567292937863
6.034914410222072,3.562598335329856,4.756571589919328,3.041663253523787,-5.409311220660936,23.503146270888863
6.070540393575371,3.5085052231232465,4.786988222454566,3.276694716232676,-6.393380621760211,23.38931795056048
6.105625445806603,3.4445714169056445,4.819755169616893,3.5105878957382806,-7.44660830135613,23.22341194407919
6.140071159975659,3.370105333892083,4.854861048574276,3.7428220151790725,-8.564254087102434,23.01101684755803
6.17377221331458,3.2844627930210586,4.892289268726066,3.972932183654653,-9.74065963204021,22.760155969977685
6.206616841244791,3.1870561967006563,4.932018590562612,4.20053374335443,-10.969427695247715,22.481415813633575
6.238487403211797,3.077361919748179,4.974023927996157,4.425347901490765,-12.24366432494338,22.18802283375976
6.269261022409279,2.9549252764987455,5.018277407011065,4.647228129828362,-13.556279935023966,21.895866633014986
6.298810275174267,2.819362477148506,5.064749688309349,4.866186796158512,-14.90033933725597,21.62347004428268
6.327003899945752,2.670359083775946,5.113411556270934,5.082421496601339,-16.269443348319,21.391907376599733
6.353707490783512,2.507664650292756,5.164235771236948,5.296340570367336,-17.658114873347877,21.224669568812473
6.37878413728644,2.3310835015592772,5.217199176940621,5.508587266055461,-19.06214879737602,21.147466060694473
6.402094972302033,2.140462013585517,5.272285049601176,5.720061926662406,-20.478864530961413,21.187932825965532
6.423499592437888,1.9356733682759029,5.329485668867799,5.931941254922061,-21.90716700278151,21.375175809855385
6.442856326120647,1.7166016982480878,5.38880508141702,6.145693013020615,-23.347266210954853,21.739004745528064
6.460022343103128,1.4831290361385392,5.450262011547227,6.363083060475896,-24.79980979292321,22.3085798688458
6.474853633464513,1.235130938209307,5.513892842151986,6.586168859164354,-26.26401860464263,23.109963174585534
6.487204942846606,0.9724907521628807,5.579754530743629,6.817268490910209,-27.73413668758475,24.161672356731785
6.496929850368235,0.6951493852870332,5.647927215652731,7.0588852144775265,-29.193050811622967,25.466686989554617
6.503881344221106,0.4032188771708035,5.718516067797506,7.313552084373073,-30.601236829375942,26.99835219985051
6.507913532992814,0.09720650887704407,5.791651588641237,7.583535606371577,-31.87827044005101,28.676266942122535
6.5088855980815845,-0.22157619552346602,5.867486944704953,7.870298275792803,-32.87338605848561,30.32701791867702
6.50666983612635,-0.5503100561083221,5.946189927462881,8.173568454979574,-33.32250082558618,31.625548565011172
6.501166735565267,-0.8835350643641839,6.027925612012677,8.489823940629686,-32.79602347958459,32.021861121195634
6.492331384921625,-1.2114952991600298,6.112823851418973,8.810042551841642,-30.663571119520373,30.686986353586995
6.480216431930025,-1.5181310103552335,6.20092427693739,9.116912415377511,-26.14808592308109,26.57547296591941
6.465035121826472,-1.7796118695860443,6.292093401091165,9.382667145036706,-18.59394957615581,18.77426550815006
6.447239003130611,-1.9655513653476024,6.385920072541532,9.570409800118206,-8.016956630965707,7.23360947637522
6.427583489477135,-2.0457209316572595,6.481624170542714,9.642745894881958,4.344202469160246,-6.495872308701644
6.407126280160562,-2.0022789069656572,6.578051629491534,9.577787171794942,16.19046525234743,-19.484460030038964
6.3871034910909055,-1.840374254442183,6.673829501209483,9.382942571494553,25.337209482267415,-28.992383848069835
6.368699748546484,-1.587002159619509,6.767658926924429,9.093018733013855,30.890851800871808,-34.00750609397239
6.352829726950289,-1.2780936416107909,6.858589114254567,8.752943672074132,33.29598889371488,-35.251855942990034
6.340048790534182,-0.9451337526736421,6.946118550975308,8.400425112644232,33.56707045081257,-34.12862299008379
6.330597453007445,-0.6094630481655163,7.030122802101751,8.059138882743394,32.63701081649734,-31.86936503000126
6.3245028225257895,-0.28309294000054297,7.110714190929185,7.740445232443381,31.1356139659126,-29.270369497433947
6.321671893125784,0.028263199658583038,7.188118643253619,7.447741537469041,29.421017318668753,-26.758407884602345
6.32195452512237,0.32247337284527056,7.262596058628309,7.180157458623018,27.672966154590984,-24.52651677493339
6.325179258850823,0.5992030343911804,7.334397633214539,6.934892290873684,25.97000359208475,-22.64016398697717
6.331171289194734,0.858903070312028,7.403746556123275,6.708490651003912,24.338260223809595,-21.101781806756563
6.339760319897855,1.102285672550124,7.470831462633314,6.497472832936347,22.778917422886458,-19.88563908323288
6.350783176623356,1.3300748467789885,7.535806190962678,6.298616442104018,21.282740803226844,-18.955379072667196
6.364083925091146,1.542902254811257,7.598792355383718,6.1090626513773465,19.83744625912004,-18.272311211973506
6.379512947639259,1.7412767174024575,7.659882981897491,5.9263395392576115,18.431258924808727,-17.79903119040925
6.396925714813284,1.9255893066505447,7.719146377290067,5.748349227353519,17.05449326546223,-17.500786621792546
6.416181607879789,2.096134239305167,7.776629869563602,5.5733413611355935,15.700117047974173,-17.34581809271972
6.437142950272841,2.2531354097849086,7.832363283174958,5.399883180208397,14.363798519381486,-17.30528263879894
6.459674304370689,2.3967733949787235,7.886362114977042,5.226830353820407,13.043694488572372,-17.353047821009852
6.483642038320476,2.5272103398644474,7.938630418515246,5.053299875610309,11.740112984590573,-17.465483572611976
6.508914141719121,2.644611469710353,7.9891634172713495,4.878645039884189,10.455121278187102,-17.62129888553234
6.535360256416224,2.749162682492224,8.037949867670191,4.7024320510288655,9.192138492833356,-17.801431648571924
6.562851883241146,2.8410840674205575,8.08497418818048,4.524417734543146,7.955536231363854,-17.988982408637273
6.591262723915352,2.920639429734196,8.130218365525911,4.344527910456773,6.7502625304682145,-18.16917624642154
6.620469118212694,2.988142055038878,8.173663644630478,4.162836147992558,5.581499891586525,-18.3293360545865
6.650350538763083,3.0439570539547436,8.215292006110404,3.979542787446693,4.4543650707862605,-18.458852486094976
6.68079010930263,3.0885007046626063,8.25508743398487,3.7949542625857435,3.373655795536456,-18.54913916545178
6.711675116349256,3.1222372626179706,8.293036976610729,3.6094628709312255,2.3436472477731787,-18.59356553691816
6.742897488975435,3.1456737350957025,8.329131605320041,3.4235272155620438,1.3679389368527246,-18.58736342527152
6.774354226326392,3.15935312446423,8.363366877475661,3.2376535813093286,0.4493505386329636,-18.527506681369083
6.805947757571034,3.1638466298505596,8.395743413288754,3.0523785144956377,-0.4101365080097457,-18.412565991661562
6.83758622386954,3.159745264770462,8.42626719843371,2.8682528545790222,-1.2093962942935377,-18.242542963544164
6.8691836765172445,3.1476513018275267,8.4549497269795,2.6858274249435805,-1.948140310622363,-18.018688947073134
6.90066018953552,3.128169898721303,8.481808001228936,2.5056405354728493,-2.6268702030146187,-17.743314761906174
6.931941888522733,3.101901196691157,8.506864406583665,2.3282073878537877,-3.2468079577563222,-17.419597646384407
6.9629609004896444,3.0694331171135936,8.530146480462202,2.1540114113899436,-3.80980993422257,-17.05139143494092
6.993655231660781,3.031335017771368,8.5516865945761,1.9834974970405344,-4.3182707565737655,-16.643045311296053
7.023968581838495,2.98815231020563,8.571521569546507,1.8170670439275738,-4.775022448290327,-16.199235588831225
7.053850104940551,2.940402085722727,8.589692239985782,1.6550746880392615,-5.18323342147664,-15.724813939533412
7.083254125797779,2.8885697515079607,8.606242986866175,1.4978265486439273,-5.5463110836576694,-15.224674420120639
7.112139823312858,2.833106640671384,8.621221252352614,1.345579804442721,-5.867810958520275,-14.703640604018025
7.1404708897195714,2.774428531086181,8.634677050397041,1.1985433984025406,-6.151354383371478,-14.166373179098846
7.168215175030433,2.7129149872524665,8.646662484381066,1.056879666611552,-6.400556082991539,-13.617297554211994
7.195344324902957,2.6489094264225512,8.657231281047181,0.9207066910694321,-6.618962253234115,-13.06055035628146
7.221833419167183,2.58271980389021,8.666438347957875,0.7901011875066175,-6.809999233227894,-12.499943202880045
7.247660617206085,2.514619811557931,8.674339359832942,0.665101755477817,-6.976932407631856,-11.93894179876374
7.2728068153216645,2.444850487481612,8.68099037738772,0.5457123374901797,-7.122834657312533,-11.380658215396164
7.297255320196481,2.3736221409084868,8.686447500762622,0.431905755336218,-7.250563459183903,-10.827854149951348
7.320991541605566,2.3011165063166477,8.690766558315984,0.3236272138367045,-7.36274561079253,-10.282953001016214
7.344002706668732,2.2274890502087223,8.69400283045435,0.22079768382654236,-7.461768507245803,-9.748058717540319
7.36627759717082,2.1528713651362645,8.696210807292616,0.12331709665113916,-7.549776911204565,-9.224979551819581
7.3878063108221825,2.077373596024219,8.697443978259127,0.031067301132943342,-7.628674215266965,-8.715255055238378
7.408580046782425,2.0010868538715494,8.697754651270456,-0.056085249419440444,-7.70012728583425,-8.220184879274997
7.4285909153211405,1.924085581013207,8.697193798776262,-0.13828709821219043,-7.765574085978539,-7.740858169804807
7.4478317711312725,1.8464298401534216,8.69581092779414,-0.2156956799102385,-7.826233391524027,-7.278182559670702
7.466296069532807,1.7681675062381814,8.693653970995038,-0.2884775055069455,-7.883116031228196,-6.832911965944826
7.4839777445951885,1.6893363459258994,8.69076919593997,-0.3568066251663938,-7.937037192345719,-6.405672580359426
7.500871108054447,1.6099659740024421,8.687201129688306,-0.42086335096998806,-7.988629432523774,-5.996986602497055
7.516970767794471,1.5300796796772045,8.682992496178606,-0.4808332169949586,-8.038356125031532,-5.607293405727157
7.532271564591244,1.449696118426889,8.678184164008657,-0.5369061510522302,-8.086525135207376,-5.236967946957717
7.546768525775512,1.3688308670748153,8.672815102498134,-0.5892758305218073,-8.133302581244543,-4.886336335086022
7.56045683444626,1.2874978412623699,8.666922344192916,-0.6381391938726675,-8.178726572451238,-4.555688561830536
7.573331812858884,1.2057105755378574,8.66054095225419,-0.6836960794909729,-8.222720844058047,-4.24528847450752
7.585388918614262,1.123483367097277,8.65370399145928,-0.7261489642360481,-8.265108221227537,-3.9553811349813457
7.596623752285235,1.0408322848850016,8.646442501816919,-0.7657027755858616,-8.305623848321291,-3.686197763622739
7.607032075134085,0.9577760464017886,8.638785474061061,-0.802564753222089,-8.343928115197397,-3.437958512215059
7.616609835598103,0.8743367652498146,8.63075982652884,-0.8369443383442395,-8.379619203040933,-3.210873345366039
7.625353203250601,0.7905405732194053,8.622390383145397,-0.8690530717978999,-8.412245160715985,-3.0051413356981427
7.6332586089827945,0.7064181216122455,8.613699852427418,-0.8991044851548814,-8.441315411512669,-2.820948693251342
7.640322790198917,0.6220049674971188,8.60470880757587,-0.9273139720873949,-8.466311581821161,-2.6584658534759935
7.646542839873889,0.5373418516789071,8.595435667854996,-0.9538986306221547,-8.486697539647995,-2.517843940482661
7.651916258390678,0.45247487628242716,8.585896681548775,-0.9790770700269813,-8.501928533385568,-2.3992109028625497
7.656441007153502,0.3674555909485715,8.576105910848504,-1.0030691790556068,-8.511459330576987,-2.3026675890234714
7.660115563062988,0.2823409976428016,8.566075219057948,-1.0260958549458414,-8.514751272595324,-2.228283988944781
7.662938973039416,0.19719348491684838,8.55581426050849,-1.0483786948352893,-8.511278183489765,-2.1760958216014923
7.664910907888585,0.11208070308195073,8.545330473560137,-1.0701396530513043,-8.500531098434191,-2.146101594733824
7.666031714919404,0.027075392097608814,8.534629077029624,-1.0916006689986426,-8.482021807466364,-2.1382602092842986
7.66630246884038,-0.057744825977054826,8.523713070339637,-1.1129832710914855,-8.455285241463981,-2.152489128034976
7.665725020580609,-0.14229767839169466,8.512583237628721,-1.1345081623718354,-8.419880757441433,-2.1886630800175086
7.664302043796693,-0.226496485966109,8.501238156005003,-1.1563947931720104,-8.375392407297431,-2.246613232036833
7.662037078937032,-0.3102504100390833,8.489674208073284,-1.1788609254923788,-8.321428296484576,-2.3261267284264675
7.658934574836641,-0.3934646930039291,8.47788559881836,-1.2021221927766435,-8.257619155600171,-2.4269464814132786
7.654999927906601,-0.4760408845599308,8.465864376890595,-1.2263916575907763,-8.183616258105403,-2.5487710877746474
7.650239519061002,-0.5578770471409848,8.453600460314687,-1.2518793684685228,-8.099088821385084,-2.691254752460812
7.644660748589592,-0.6388679353548357,8.441081666630001,-1.278791915993131,-8.003721026860031,-2.8540071153246256
7.638272069236044,-0.718905145623436,8.42829374747007,-1.307331987146377,-7.897208789042072,-3.0365929011508817
7.63108301777981,-0.7978772335138568,8.415220427598607,-1.337697916157886,-7.779256394802169,-3.238531343420879
7.623104245444671,-0.8756697974618785,8.401843448437027,-1.3700832295920946,-7.649573124411029,-3.4592953660382832
7.614347547470053,-0.9521655287059887,8.388142616141106,-1.4046761832524775,-7.507869956826678,-3.6983105419045867
7.604825892182993,-1.0272442282742555,8.374095854308582,-1.4416592886715234,-7.353856454822207,-3.9549538802652267
7.594553449900251,-1.1007827928224776,8.359679261421867,-1.4812088274741757,-7.18723792217952,-4.228552523985067
7.583545621972026,-1.1726551720442728,8.344867173147126,-1.5234943527140263,-7.007712926275492,-4.518382461627942
