th1 (rad),w1 (rad/s),th2 (rad),w2 (rad/s)
2.569455463288548,-0.126988052135906,3.561470934774911,-1.7936095080282162
2.568185582767189,-0.18635368439378897,3.543534839694629,-1.7213216468665262
2.566322045923251,-0.24754997953353983,3.526321623225964,-1.6489472087326376
2.5638465461279156,-0.31048455517579643,3.5098321511386374,-1.5765747811891848
2.5607417005761577,-0.37506306476224927,3.4940664033267455,-1.5043044614345895
2.556991069928535,-0.44118971075966695,3.4790233587123995,-1.4322469959766124
2.552579172820938,-0.5087677718773701,3.4647008887526334,-1.3605229637677998
2.5474914951021645,-0.577700123585099,3.4510956591149555,-1.289262026668267
2.5417144938663134,-0.6478897355198013,3.4382030388482727,-1.2186022654833164
2.5352355965111153,-0.7192401346864121,3.4260170161934393,-1.1486896127732855
2.5280431951642512,-0.791655829259545,3.4145301200657063,-1.0796773857448008
2.5201266368716557,-0.8650426937954868,3.4037333462082584,-1.0117259144767679
2.5114762099337007,-0.9393083222704417,3.393616087063491,-0.9450022531982543
2.502083126710996,-1.0143623601054408,3.384166064531508,-0.8796799559642632
2.4919395031099416,-1.0901168298226793,3.3753692649718654,-0.8159388934200187
2.4810383348117147,-1.1664864669029853,3.3672098760376654,-0.7539650848178107
2.469373470142685,-1.2433890826012532,3.3596702251894874,-0.6939505192963711
2.456939579316672,-1.3207459688815588,3.352730719996524,-0.6360929427062924
2.4437321196278567,-1.3984823573495637,3.346369790569461,-0.5805955908261133
2.429747296054361,-1.4765279393122281,3.3405638346612,-0.5276668563335768
2.414982016661239,-1.5548174482265684,3.3352871660978645,-0.4775198848770784
2.399433842178973,-1.633291299246022,3.3305119672490937,-0.4303721043988383
2.383100929186513,-1.7118962738306067,3.3262082462051055,-0.3864447007680676
2.365981966448207,-1.7905862309704297,3.3223437991974247,-0.3459620610287309
2.3480761041385025,-1.8693228209700694,3.3188841785871372,-0.3091512124201791
2.3293828759288018,-1.9480761733705378,3.3157926664629356,-0.2762412901508903
2.3099021141950966,-2.02682552774844,3.313030253561427,-0.2474630692090486
2.2896338589176124,-2.1055597749848327,3.3105556228693365,-0.2230485949900759
2.268578261167764,-2.1842778771314517,3.3083251369194357,-0.20323094414571957
2.2467354823964496,-2.2629891360478185,3.3062928274779786,-0.18824414097216852
2.2241055910359715,-2.3417132842220605,3.3044103860682568,-0.17832324621684076
2.200688458193751,-2.4204803751932706,3.3026271536060885,-0.1737046249095517
2.1764836544418182,-2.4993304552720326,3.300890107356993,-0.17462638831895158
2.151490349889098,-2.578313002304934,3.2991438434738036,-0.18132899302535338
2.1257072198660487,-2.6574861205846703,3.29733055354355,-0.19405596796627625
2.099132358660202,-2.7369154832894944,3.2953899938638873,-0.21305472863072125
2.071763203827307,-2.8166730147801373,3.29325944657758,-0.23857742669630547
2.0435964736795054,-2.8968353045595285,3.2908736723106173,-0.2708817735158637
2.01462812063391,-2.9774817427220204,3.2881648545754585,-0.31023176702553423
1.98485330320669,-3.0586923634314154,3.2850625369052033,-0.356898243816631
1.9542663795723758,-3.140545378642275,3.281493554467037,-0.4111591711804084
1.922860925785953,-3.2231143792981416,3.277381962755233,-0.4732995877856755
1.8906297819929716,-3.306465176081941,3.272648966877376,-0.5436110962279723
1.8575651302321523,-3.390652247024284,3.2672128559150964,-0.6223908060558284
1.8236586077619095,-3.475714755544427,3.260988947854538,-0.7099396222661118
1.7889014602064652,-3.561672100538986,3.253889551631877,-0.8065597721170915
1.7532847392010753,-3.648518960762216,3.245823953910706,-0.9125514631397634
1.7167995495934532,-3.736219799858754,3.2366984392793086,-1.0282085684162676
1.6794373515948655,-3.824702806989166,3.226416353595146,-1.1538132427969365
1.6411903235249738,-3.913853262055032,3.2148782211671767,-1.2896293872552556
1.6020517909044236,-4.0035063351147855,3.201981927294624,-1.4358948997379568
1.5620167275532757,-4.093439357650819,3.1876229782972447,-1.5928126814565657
1.5210823339767674,-4.183363639702382,3.171694851482679,-1.7605404093374264
1.4792486975797436,-4.272915952016068,3.1540894473893046,-1.9391791398029212
1.436519538059583,-4.361649846319731,3.1346976559912756,-2.128760877210801
1.3929030395963857,-4.4490270489826305,3.1134100472191677,-2.32923532237961
1.3484127691065595,-4.534409232238934,3.0901176939953716,-2.5404561118776496
1.3030686767841702,-4.617050540381327,3.0647131328765953,-2.7621669650554415
1.2568981713803569,-4.69609132231893,3.037091463226041,-2.993988269592785
1.2099372581571675,-4.770553591911577,3.0071515805301128,-3.2354047525285003
1.1622317222380516,-4.839338797664599,2.974797533004828,-3.485754995846
1.1138383342614055,-4.901228526754397,2.939939983046368,-3.7442236560417728
1.0648260489938615,-4.954888787069437,2.9024977464859503,-4.009837327241427
1.015277161123167,-4.998878496269021,2.862399373213536,-4.281465038439737
0.9652883761604768,-5.031662749284358,2.8195847228291386,-4.557824388222071
0.9149717486676332,-5.051631324984018,2.774006478946918,-4.837494285615812
0.864455435417793,-5.057122718093117,2.72563153609076,-5.118935173960451
0.8138842082368618,-5.0464537330435935,2.6744421843511557,-5.400517455879702
0.7634196709064258,-5.017954342672476,2.620437009792359,-5.6805586015098894
0.7132401274797011,-4.9700070908483305,2.56363142377726,-5.9573691004197835
0.6635400565712178,-4.901089806388539,2.504057732773062,-6.229307006234836
0.6145291585073325,-4.809819811555842,2.441764662710714,-6.494840328248558
0.5664309603917741,-4.6949971865699025,2.3768162594282285,-6.752615970327543
0.519480988526075,-4.555644049628111,2.309290099724953,-7.0015333534873
0.47392454802979395,-4.391036310314413,2.23927476619008,-7.240820364058303
0.43001418492664983,-4.200724048496131,2.166866562549497,-7.47010895252464
0.38800694444168854,-3.9845366551219072,2.0921654730242505,-7.689507694824894
0.3481615778904695,-3.7425692151232153,2.0152703960760014,-7.899669040155188
0.3107358857392373,-3.4751473351535385,1.9362737056744495,-8.101849894854015
0.27598441238770194,-3.18276867238927,1.8552552067259094,-8.297965650571623
0.24415672566380925,-2.866020694690387,1.7722755502201932,-8.490639676873577
0.2154965187169054,-2.525475564729555,1.6873691534514574,-8.683252453918564
0.19024176306960985,-2.161564431542701,1.6005366289122718,-8.879996531932273
0.16862611875418285,-1.7744350248152907,1.511736663592949,-9.085944682966417
0.15088176850602994,-1.3637990618333713,1.4208772167632848,-9.307137643444284
0.13724377788769623,-0.9287816401663482,1.327805840328842,-9.550691979046618
0.12795596148603275,-0.4677982514572983,1.2322989205383759,-9.824911710148202
0.12327797897145977,0.021483067270551992,1.1340498034368938,-10.139345507696017
0.12349280964416529,0.5419633109112307,1.0326563483599336,-10.504633144892093
0.1289124427532776,1.0964217560109866,0.9276100169110126,-10.931762176360365
0.13987666031338747,1.6856643617466909,0.818292395147409,-11.429872856006188
0.15673330393085438,2.304183237547548,0.7039936665873472,-12.000801733096838
0.17977513630632985,2.9310263929331626,0.5839856492563789,-12.627155401712859
0.20908540023566147,3.5136840504909026,0.4577140952392503,-13.250678640545395
0.2442222407405705,3.950057935830871,0.32520730883379634,-13.747320802392894
0.2837228200988792,4.098369474096296,0.1877341008098674,-13.939080020845369
0.3247065148398422,3.861641373505363,0.04834330060141373,-13.705633607477804
0.36332292857489584,3.2942180224434487,-0.08871303547336432,-13.123787995573561
0.3962651087993303,2.5615808305077405,-0.21995091542909992,-12.408653900277924
0.4218809171044077,1.8015162293946672,-0.34403745443187916,-11.729081814133052
0.4398960793983544,1.0761384867529078,-0.4613282725732097,-11.15071667772806
0.4506574642658835,0.4004489720413791,-0.5728354393504903,-10.678645858246929
0.4546619539862973,-0.22844990515517027,-0.6796218979329596,-10.296888386776832
0.45237745493474557,-0.8176893444356829,-0.7825907818007279,-9.98570297473097
0.4442005614903887,-1.3738739935926123,-0.8824478115480376,-9.726997399301858
0.4304618215544626,-1.9018169883874139,-0.9797177855410563,-9.50537737992387
0.4114436516705885,-2.4044474488990737,-1.074771559340295,-9.307916314724627
0.3873991771815978,-2.8830607133060524,-1.1678507224875412,-9.123686738627958
0.35856857004853726,-3.3376429878108635,-1.2590875898738207,-8.943358373978306
0.32519214017042863,-3.767194180014585,-1.3485211736136038,-8.75892591319494
0.28752019837028275,-4.170032797169335,-1.4361104327455532,-8.563556060960025
0.2458198703985894,-4.544081640531417,-1.5217459933551534,-8.351524015030453
0.20037905399327524,-4.887133326435631,-1.605261233505458,-8.11820699491147
0.15150772072891894,-5.197091435514911,-1.6864433034545727,-7.860105025303753
0.09953680637376983,-5.4721803840262435,-1.7650443537076101,-7.574863720468862
0.04481500253350739,-5.71111630697198,-1.8407929909122989,-7.261279465292868
-0.012296160536212408,-5.913232502232715,-1.9134057855652276,-6.919273713535631
-0.07142848555853956,-6.0785558107981625,-1.9825985227005838,-6.549829550698163
-0.13221404366652117,-6.207833890124015,-2.0480968182075654,-6.154889523861181
-0.19429238256776132,-6.302516850611714,-2.1096457134461772,-5.737218462880784
-0.25731755107387844,-6.364699561815556,-2.167017898074985,-5.300238336581751
-0.320964546692034,-6.3970328151037545,-2.2200202814408025,-4.847844159316152
-0.38493487484307154,-6.402612469565599,-2.268498723033964,-4.384210856931558
-0.44896099953872753,-6.384855892997889,-2.3123408316032794,-3.913601122139452
-0.5128095584687065,-6.347374647157644,-2.351476842824674,-3.4401838348040905
-0.5762833049402829,-6.29385159185541,-2.385878681172715,-2.9678716408637276
-0.639221820858837,-6.22792944757142,-2.4155573975813525,-2.5001847377590685
-0.7015011153345513,-6.153116379402879,-2.4405592449589433,-2.040145799474767
-0.7630322791285801,-6.072712398454067,-2.460960702953691,-1.5902084128684746
-0.8237594031131208,-5.989758445486118,-2.4768627870823754,-1.152218661077042
-0.8836569875679819,-5.907008114791755,-2.4883849736931456,-0.7274069453933893
-0.9427270687158995,-5.826920297833931,-2.4956590431470795,-0.3164051432261213
-1.0009962716942389,-5.7516697333547215,-2.4988230945793406,0.08071698470120264
-1.0585129690277861,-5.683171605981019,-2.4980159247323286,0.4644024877369696
-1.1153446850875963,-5.623115886282534,-2.4933718998549588,0.8355507294051905
-1.1715758439504216,-5.5730068871303216,-2.485016392560907,1.1954579523319993
-1.2273059128217247,-5.534203257673621,-2.473061813037587,1.5457569213774376
-1.282647945398461,-5.5079529764598805,-2.4576042438238126,1.8883545573934069
-1.3377274751630597,-5.49541633029655,-2.4387206982498784,2.225362127889552
-1.3926816384660252,-5.4976666552331155,-2.416467076970983,2.5590061996515123
-1.4476583050183565,-5.515652741042486,-2.3908770149744676,2.8914988685541148
-1.5028148324287813,-5.5500968853835975,-2.3619620262889263,3.2248308846495837
-1.5583158012826173,-5.6012872271164795,-2.3297137174424303,3.560429226532719
-1.614328673553782,-5.668702285315133,-2.294109425177103,3.8985915810025857
-1.6710156964069334,-5.750385967894706,-2.255123509367077,4.237583039409183
-1.7285195560858804,-5.841997377381684,-2.212747678972985,4.57228984567619
-1.7869395298596973,-5.935557053762023,-2.1670247805162233,4.892463262404828
-1.8462951003973176,-6.018224379349327,-2.118100147892175,5.181028162249807
-1.906477344190811,-6.072080193140098,-2.066289866269677,5.413829472931792
-1.9671981461222119,-6.076587080469011,-2.0121515715403593,5.563165509624686
-2.027964016926902,-6.014914224314006,-1.9565199164441125,5.606757390534298
-2.088113159170042,-5.882087073407163,-1.9004523425387696,5.539242763002986
-2.1469340299041137,-5.688895060046378,-1.8450599149087397,5.377617381935662
-2.2038229805045777,-5.457235796258114,-1.7912837410893832,5.154550732015663
-2.258395338467159,-5.210557374655744,-1.7397382337692264,4.904790046463518
-2.3105009122137163,-4.966762482051492,-1.6906903333045913,4.655076498487516
-2.360168537034231,-4.736396053027896,-1.6441395683197162,4.42156140413085
-2.4075324975645103,-4.5241292149384735,-1.5999239542784076,4.2119081551783495
-2.452773789713895,-4.3309740576897955,-1.557804872726624,4.028444888559621
-2.4960835302907927,-4.156024658957072,-1.5175204238410278,3.870655441001442
-2.5376437768803632,-3.997537160694343,-1.4788138694310133,3.736736644350983
-2.5776191484873068,-3.853515556226421,-1.4414465029875034,3.6244537116687483
-2.616154304049571,-3.7219972342568,-1.405201965870816,3.5315667637933514
-2.6533742763921393,-3.601174553032399,-1.3698862982328823,3.4560212385360245
-2.6893860219224632,-3.489433075105007,-1.335326085847522,3.3960167849066676
-2.7242803526735133,-3.3853503427487985,-1.3013659179984554,3.350017374317311
-2.758133856101001,-3.2876778879077975,-1.2678657442552823,3.3167353073739494
-2.791010634980079,-3.195317734252492,-1.2346983911815428,3.295105463208706
-2.822963812322604,-3.1072987112797508,-1.2017473365494558,3.2842575680674218
-2.8540367994354017,-3.022754914129762,-1.1689047608687815,3.2834898631299465
-2.8842643485766994,-2.9409072009967874,-1.136069862237482,3.2922453361941098
-2.9136734205866675,-2.861047975785523,-1.103147408875541,3.310090582071089
-2.9422839003445227,-2.782529269353134,-1.0700465030548303,3.336696811620278
-2.970109193038054,-2.704754110549083,-1.0366795349386275,3.371822246227951
-2.9971567341435446,-2.627171269381895,-1.0029613124763481,3.415294960314744
-3.0234284468373636,-2.5492736104030738,-0.9688083628732007,3.466995090046646
-3.0489211829413945,-2.470600490229462,-0.9341384119727343,3.52683517329422
-3.073627187843689,-2.3907448529133557,-0.8988700602397921,3.5947372112639004
-3.097534636372823,-2.309365901745743,-0.8629226881271531,3.6706048554668147
-3.12062829539028,-2.226208423765291,-0.8262166395724849,3.754288960635883
-3.142890379627933,-2.141129955701482,-0.788673749966126,3.8455446782917018
-3.164301679184948,-2.0541369085836814,-0.750218303183209,3.9439784247270206
-3.1848430482707846,-1.9654303574786014,-0.7107785189359388,4.048983642819393
-3.2044973518455704,-1.8754612301549698,-0.6702886825077449,4.159665577925161
-3.2232519641471202,-1.784992813094336,-0.6286920267284932,4.27475766783056
-3.2411018922780634,-1.695165551965586,-0.5859444500501876,4.392535971667569
-3.2580535477977195,-1.6075549126884547,-0.5420190903335119,4.510743517939144
-3.274129096924604,-1.5242078498399212,-0.4969116551541205,4.626543196715058
-3.2893711754230033,-1.447638250178207,-0.4506462231869699,4.736524493882909
-3.3038475579247852,-1.3807587805189687,-0.4032809782481408,4.836793113793883
-3.317655145729975,-1.326729211725229,-0.354913047110202,4.923169038814391
-3.330922437847227,-1.2887130574513086,-0.3056813567220581,4.9915032671420905
-3.34380956842174,-1.2695567469628426,-0.2557663240506372,5.038094485037458
-3.3565051358913687,-1.2714349560285536,-0.20538537920026262,5.060148999106946
-3.369219485451654,-1.2955318440337107,-0.15478388920919317,5.056193768976702
-3.382174803891991,-1.3418365250995734,-0.10422195151942615,5.02634172356657
-3.395593169142987,-1.4091118921716912,-0.05395853428376045,4.972333719330857
-3.409684288064704,-1.49505150903163,-0.004235197090451878,4.897338848609207
-3.4246348031550204,-1.5965868916541988,0.0447381913956402,4.805561982357434
-3.4406006720715623,-1.7102698766837683,0.09279381121921454,4.701755280284681
-3.4577033708384,-1.8326463434866467,0.13981136402206135,4.590740771824024
-3.4760298342732665,-1.960556777224286,0.18571877174030157,4.477026336028879
-3.4956354020455094,-2.0913323438477183,0.23048903510059038,4.36455512846706
-3.5165487254839864,-2.2228866921167825,0.274134586385261,4.256588527627819
-3.5387775924051543,-2.353724125745668,0.3167004716615392,4.155696881828812
-3.562314833662611,-2.4828924784233513,0.3582574404798273,4.063822656132258
-3.5871437584468446,-2.609907373159781,0.3988956670411499,3.9823826607002446
-3.613242832178442,-2.7346682660132253,0.4387194936481524,3.912383951228064
-3.6405895148385743,-2.8573794686635328,0.47784333316043304,3.854537089194845
-3.6691633095252096,-2.9784832557256093,0.5163887040523815,3.809358190782659
-3.698948142082466,-3.0986078763466742,0.5544822859602081,3.7772567289686108
-3.7299342208459327,-3.2185307103898655,0.5922548532498942,3.758609505437889
-3.762119527949831,-3.3391555337357617,0.6298409483042732,3.753823082917169
-3.795511083287189,-3.4615024476233778,0.6673791791334449,3.763387810293155
-3.830126107763423,-3.586709128129648,0.7050130572363764,3.787926821488232
-3.8659931990447194,-3.7160424118929414,0.7428923254512587,3.8282433397101907
-3.9031536231636488,-3.850919681113398,0.7811747588483606,3.8853694298640598
-3.9416628199747827,-3.9929399096131384,0.8200284531470012,3.9606190437161715
-3.9815922190709143,-4.143924424717997,0.859634643584163,4.055647676605237
-4.023031463318095,-4.305967156013932,0.9001911203502153,4.172519853881424
-4.066091134878234,-4.481492834562461,0.9419163188890296,4.313783215407
-4.110906063223859,-4.6733181322756,0.9850541510430996,4.482542534776596
-4.157639244546615,-4.884702708306686,1.0298795763908655,4.682515209291011
-4.206486271629681,-5.119359650555798,1.0767047284837756,4.918024643934093
-4.25767986813524,-5.38135800757394,1.1258849749231166,5.193835618963066
-4.311493448210979,-5.67477522565073,1.1778233311127473,5.514629734182175
-4.368241200467486,-6.002812886168606,1.232969628454569,5.883715121693863
-4.428269329329172,-6.3658403081299495,1.2918067796715076,6.300213882247945
-4.491927732410471,-6.7575156046337455,1.354808918493987,6.753527506773853
-4.559502888456809,-7.158169339534636,1.4223441935617256,7.2139330329471765
-4.631084581852155,-7.526558595949899,1.4944835238911973,7.620878293989872
-4.706350167811654,-7.79770628826593,1.570692306831096,7.879869545385645
-4.784327230694314,-7.903249793806422,1.6494910022849525,7.89114613827856
-4.8633597286323775,-7.81795749194771,1.728402463667738,7.6153909923012435
-4.9415393035518544,-7.587759519556854,1.8045563735907504,7.113655950569716
-5.017416898747423,-7.295581909543091,1.8756929330964476,6.499794003615464
-5.090372717842854,-7.00827517648726,1.9406908731326022,5.865932413729881
-5.160455469607727,-6.759578128389172,1.999350197269901,5.258202560453999
-5.228051250891618,-6.559954756313874,2.051932222874441,4.690176116747475
-5.293650798454757,-6.408883547558736,2.098833984041916,4.159907392684151
-5.357739633930344,-6.301989766449721,2.1404330579687576,3.6598872845113437
-5.420759531594841,-6.234172581047119,2.1770319308138713,3.1814625377696335
-5.483101257405313,-6.200727559869195,2.208846556191568,2.716486896807863
-5.545108533004004,-6.197623028442041,2.2360114251596466,2.2578128418369863
-5.607084763288425,-6.221455806549186,2.2585895535780165,1.7993567768668586
-5.6692993213539165,-6.269301242496796,2.276583121346685,1.3360390985647514
-5.7319923337788845,-6.338539612541305,2.2899435123323326,0.8637142654207024
-5.795377729904297,-6.426688054444221,2.2985806549865395,0.37912937375241396
-5.85964461044874,-6.531247836991638,2.3023719487240637,-0.12008150802517842
-5.9249570888186565,-6.649571030800935,2.301171133643812,-0.6353732977580577
-5.991452799126666,-6.778750179033336,2.2948174006662314,-1.1672485764990654
-6.059240300917,-6.915535701264358,2.2831449149012406,-1.7152148796141882
-6.1283956579296435,-7.0562866768357395,2.2659927661050987,-2.2777580588918194
-6.198958524698001,-7.1969602983564185,2.2432151855161804,-2.852348556495618
-6.270928127681565,-7.333143109587548,2.2146916999512243,-3.4354940526983606
-6.344259558777441,-7.4601231411879345,2.180336759424241,-4.022845579017806
-6.418860790189321,-7.5729968910118535,2.140108303634063,-4.609355445376486
-6.494590759099439,-7.666800047119868,2.094014749180298,-5.189475861877252
-6.571258759570638,-7.736647521786912,2.0421199905615253,-5.757379339841799
-6.648625234788507,-7.777868114979801,1.9845461971631073,-6.307178241525776
