th1 (rad),w1 (rad/s),th2 (rad),w2 (rad/s)
4.870971296757475,0.7208058940800558,2.8238756123826017,-0.8936087288643361
4.8781793556982755,0.8183172601020464,2.8149395250939584,-0.8748981369217553
4.886362528299296,0.916539865049639,2.8061905437247407,-0.8540053888814371
4.895527926949792,1.0155748446279773,2.7976504898359265,-0.8306353217457639
4.905683675396072,1.115530664369125,2.789344136618469,-0.8044878595608457
4.9168389820397636,1.216522737140303,2.78129925802286,-0.7752579604325439
4.929004209411167,1.318672848837035,2.7735466784185347,-0.7426357657788092
4.942190937899537,1.4221083549158027,2.7661203207607468,-0.7063070161640751
4.956412021448695,1.526961105773449,2.7590572505991062,-0.665953808275725
4.971681632506429,1.6333660544061737,2.752397712516349,-0.6212557780906417
4.98801529305049,1.7414594956780778,2.7461851547354423,-0.5718918054956559
5.005429888007272,1.851376883452184,2.740466236680486,-0.5175423447733377
5.0239436568417934,1.9632501705226242,2.7352908132327527,-0.45789249234136614
5.04357615854702,2.0772046176739485,2.730711888309339,-0.39263590647976515
5.06434820472376,2.1933550234264287,2.726785529244541,-0.3214796916462537
5.086281754958024,2.3118013364308365,2.7235707323280787,-0.2441503501309355
5.109399768322332,2.4326236294956147,2.7211292288267694,-0.16040088368083538
5.133726004617288,2.5558764393014597,2.719525219989961,-0.07001909460586073
5.159284769010303,2.681582510219866,2.718825029043902,0.0271629128651589
5.186100594112502,2.8097260250600624,2.7190966581725537,0.13125809668724714
5.2141978543631025,2.940245459939105,2.720409239139426,0.2423128575088408
5.243600308962494,3.073026263459064,2.7228323677145143,0.3602946897767417
5.274330571597084,3.207893628955274,2.726435314612282,0.4850794755484923
5.306409507886637,3.3446056976996172,2.7312861093677667,0.6164389191390451
5.339855564863633,3.4828475934027012,2.737450498559157,0.754028744508625
5.374684040797661,3.6222267350457757,2.744990786004243,0.8973783848181256
5.410906308148118,3.762269895699116,2.753964569852424,1.0458829679010604
5.448529007105109,3.902422459400657,2.764423399531435,1.198798424414559
5.487553231699116,4.042050268215896,2.7764113837755806,1.3552405005518615
5.527973734381275,4.1804443432531775,2.7899637887810993,1.514188332802912
5.569778177813807,4.316828608810994,2.8051056721091285,1.6744930352776195
5.612946463901917,4.450370557642291,2.8218506024619048,1.8348914689764935
5.65745016947834,4.580194584782034,2.8401995171516696,1.994025028267819
5.70325211532616,4.705397510749656,2.860139767434348,2.1504629254232968
5.750306090433657,4.82506563819809,2.8816443966885807,2.3027291196808948
5.798556746815638,4.938292563510887,2.9046716878853895,2.449331764544695
5.847939672450747,5.044196914309468,2.9291650055308365,2.588793871362312
5.898381641593842,5.141939213000711,2.9550529442444597,2.7196838311373215
5.9498010337238485,5.230737171059308,2.982249782555833,2.8406445050728477
6.002108405434441,5.309878883103207,3.0106562276065616,2.9504197741330427
6.055207194265473,5.3787335901589195,3.040160425347892,3.0478777000211883
6.108994530167062,5.436759890370112,3.070639202348104,3.1320297557550534
6.163362129070763,5.483511466641797,3.1019594999056546,3.202045892382729
6.2181972437371815,5.518640553652716,3.1339799588294817,3.257265482748965
6.2733836492737085,5.5418994686003415,3.1665526136569713,3.297204396691729
6.328802643959712,5.553140576866255,3.1995246576238885,3.3215586000012127
6.384334049728374,5.552315059038493,3.2327402436239008,3.330204729617834
6.439857200318759,5.539470798568391,3.2660422909200792,3.3231980879993213
6.495251908304443,5.514749632222443,3.2992742718000723,3.3007684358557894
6.550399404626667,5.478384112004385,3.33228195615863,3.263313864152181
6.60518324574671,5.430693830481688,3.364915094800152,3.2113929142011344
6.659490184051527,5.372081273072024,3.397029023942163,3.145715008481638
6.713210996782247,5.303027090421056,3.4284861740269794,3.067129171410182
6.766241267686458,5.224084638849334,3.459157465741081,2.976610971637763
6.818482114074951,5.135873621831292,3.488923575457459,2.8752476137990404
6.869840850293263,5.039072682792252,3.517676051595449,2.7642211509246
6.920231577121186,4.934410848410546,3.545318263104695,2.644789876157248
6.9695756856052915,4.822657798113334,3.5717661618662673,2.518268075443149
7.017802263586425,4.704613032301132,3.596948842620699,2.3860044676838803
7.064848393909436,4.581094118831115,3.6208088872975375,2.2493598075595584
7.110659335097747,4.452924302157485,3.643302485373133,2.1096842589150526
7.155188578119322,4.320919849311193,3.6643993279622835,1.9682952438455448
7.198397776612434,4.185877569734513,3.684082280400739,1.8264565184948587
7.240256552309779,4.048562972932715,3.7023468455856876,1.685359211280219
7.280742182039106,3.909699514476828,3.7192004376984897,1.5461054809045673
7.319839177183874,3.769959327872508,3.734661492507535,1.4096953166844017
7.3575387704625985,3.629955753166777,3.748758445674379,1.2770168264537738
7.393838327994266,3.4902378630298996,3.761528613938917,1.1488401568282278
7.428740706624565,3.3512870660002205,3.773017015507199,1.0258149881952898
7.462253577284567,3.213515747589254,3.783275165389152,0.9084713624561465
7.494388734760459,3.077267804452091,3.792359879013713,0.7972234512466909
7.52516141280498,2.9428208432921696,3.80033211352618,0.6923757662494966
7.554589621237902,2.810389759317248,3.807255871188675,0.5941312549890787
7.582693518831075,2.6801313798702355,3.813197183738566,0.5026007130248625
7.609494832629777,2.5521498551185373,3.8182231908688147,0.41781297004758566
7.635016331180963,2.4265024949485348,3.8224013205692904,0.33972536361774763
7.659281356130448,2.303205783837059,3.825798574205468,0.2682340897410752
7.682313413968818,2.1822413475916282,3.8284809151028787,0.2031841042204852
7.704135827444734,2.0635616921117195,3.8305127561450836,0.14437833432516128
7.724771444365851,1.9470955803486432,3.8319565394883353,0.0915860403852943
7.7442424001693375,1.8327529562359886,3.8328723998921883,0.044550237226621665
7.762569929731697,1.7204293615029427,3.8333179022644543,0.0029941436481905823
7.779774223346727,1.6100098219714836,3.833347843700936,-0.033373326223008995
7.7958743215664414,1.5013722039848476,3.833014110438706,-0.06485298235987219
7.8108880436062895,1.3943900593983667,3.8323655806151073,-0.09175161902674722
7.824831944200273,1.2889349898168994,3.83144806442484,-0.11437903217344227
7.837721294098442,1.1848785683911056,3.8303042741031055,-0.13304570424659476
7.849570079782353,1.0820938614329978,3.8289738170606396,-0.14806106597980198
7.860391018396683,0.9804565932746641,3.8274932064008413,-0.15973224807662026
7.87019558432943,0.8798459969648679,3.825895883920075,-0.1683632417372006
7.878994044299079,0.7801453912408299,3.824212251502703,-0.17425439463398473
7.886795498211487,0.681242521259169,3.822469707556363,-0.1777021773918139
7.893607923424079,0.5830296972289308,3.8206926857824453,-0.17899916426474266
7.899438220396368,0.485403761660141,3.8189026941397977,-0.17843418009645431
7.904292258012969,0.38826591263180044,3.817118352338833,-0.1762925735164762
7.908174917139287,0.29152140742960664,3.815355426603668,-0.17285658348203428
7.911090131213583,0.19507916818629187,3.813626860768848,-0.16840577262631964
7.913040922895446,0.09885130881600394,3.8119428030425846,-0.16321750637433588
7.914029435983606,0.002752600579978365,3.8103106279788412,-0.15756746142973396
7.914056961989406,-0.09330010795308014,3.808734953364544,-0.15173015103428347
7.913123960909875,-0.18938850199944907,3.8072176518542014,-0.1459794573812818
7.911230075889881,-0.2855934290234341,3.8057578572803887,-0.14058916375457683
7.908374141599646,-0.3819955314407809,3.804351965642843,-0.13583348039428628
7.904554186285238,-0.47867587068609563,3.8029936308389,-0.13198755878318288
7.899767427578377,-0.5757165297395531,3.8016737552510684,-0.12932798902318193
7.894010262280982,-0.6732011809086281,3.8003804753608366,-0.12813327424298568
7.887278250471895,-0.771215605096331,3.799099142618407,-0.12868427455451703
7.879566094420932,-0.8698481479615244,3.7978122998728616,-0.13126461096312006
7.870867612941317,-0.9691900972910903,3.7964996537632305,-0.13616101684024384
7.861175711968406,-1.0693359645615659,3.795138043594828,-0.14366362109687614
7.850482352322791,-1.1703836520789626,3.793701407383859,-0.154066143070081
7.838778515802002,-1.2724344852709104,3.7921607459531583,-0.16766597438892877
7.826054170949292,-1.3755930877043963,3.7904840862092692,-0.18476411778125346
7.8122982400722485,-1.4799670742811113,3.788636445031457,-0.20566494701848584
7.797498569329437,-1.5856665359228659,3.786579795561272,-0.23067574612461658
7.7816419039702085,-1.692803287050769,3.784273038100026,-0.2601059798199984
7.764713871099701,-1.8014898454916501,3.781671978301826,-0.2942662412446793
7.746698972644785,-1.9118381133913678,3.7787293158893793,-0.33346681773504205
7.727580591510871,-2.0239577276350564,3.775394647712029,-0.3780158113710661
7.707341014234521,-2.1379540496131506,3.7716144895983184,-0.42821674888049943
7.685961473738389,-2.253925767459001,3.7673323221095134,-0.4843656161532975
7.663422216063799,-2.3719620897234273,3.7624886659479806,-0.5467472571152642
7.639702595166565,-2.4921395184958444,3.757021193376828,-0.6156310861958986
7.614781199981606,-2.6145182028833407,3.7508648825148687,-0.6912660793379102
7.588636017952773,-2.7391378910983417,3.74395222172149,-0.77387503164534
7.56124463904179,-2.866013521587462,3.7362134714050366,-0.8636481013899026
7.532584503825915,-2.9951305207577525,3.7275769903911375,-0.9607357008490058
7.502633198618337,-3.126439906559548,3.7179696333826473,-1.0652408443588595
7.471368799552741,-3.2598533324798655,3.7073172249390587,-1.1772111221340589
7.438770266227943,-3.3952382436247466,3.695545113717718,-1.2966305327176035
7.404817883791695,-3.5324133528884896,3.682578808390542,-1.4234114738115364
7.36949375026281,-3.6711446772132574,3.6683446936524264,-1.5573872555490926
7.332782303490678,-3.8111423973919125,3.6527708210969356,-1.6983055553606348
7.294670879516759,-3.9520588151106026,3.6357877655433293,-1.845823271687134
7.255150291365653,-4.093487673434473,3.617329532826458,-1.9995032467143241
7.214215414631308,-4.2349650780002746,3.5973345003593145,-2.158813308465711
7.171865763851305,-4.375972203708239,3.5757463672746574,-2.3231280243466177
7.128106041814223,-4.515939896010728,3.5525150870311912,-2.4917334592052542
7.0829466428541155,-4.654255180237846,3.5275977524391386,-2.663835093273942
7.036404091051737,-4.7902695831584055,3.500959401506399,-2.838568886241319
6.988501395220153,-4.923309057269298,3.472573712643986,-3.0150152855324395
6.9392683046474595,-5.052685191043551,3.442423559788662,-3.19221578604695
6.888741452737024,-5.177707298788669,3.4105014019281925,-3.3691914736710133
6.836964379749138,-5.2976949217411375,3.3768094871914824,-3.5449628439508043
6.7839874305317265,-5.411990244419836,3.3413598587519746,-3.718570095331532
6.729867528087528,-5.51996993976431,3.304174157798659,-3.88909306272245
6.674667828689885,-5.621056001227655,3.2652832271714347,-4.05566998423522
6.618457268677608,-5.714725193539924,3.2247265273290826,-4.21751437690038
6.561310016742209,-5.800516846928881,3.182551383560079,-4.373929424899769
6.50330484827292,-5.878038821288894,3.1388120893110814,-4.524319441049158
6.444524460060031,-5.946971566471693,3.09356889490059,-4.6681981319405255
6.3850547443953145,-6.007070293632221,3.0468869135811847,-4.805193563179391
6.324984041458992,-6.058165344257636,2.998834977949391,-4.935049870288678
6.264402388016416,-6.100160895144364,2.949484479246504,-5.057625883980465
6.203400779064972,-6.133032169124489,2.898908220406699,-5.172890930991806
6.142070457373727,-6.1568213350597185,2.847179311096781,-5.280918133005518
6.08050224402313,-6.171632280274976,2.7943701297667256,-5.381875558983704
6.01878592122038,-6.177624428562012,2.7405513741768885,-5.476015595234025
5.95700967693476,-6.1750057614001905,2.6857912182245482,-5.563662888349128
5.8952596193207585,-6.164025182759446,2.630154589341057,-5.645201194481887
5.8336193674931645,-6.144964351551184,2.573702577396238,-5.721059439333227
5.772169723977653,-6.118129092367762,2.5164919830029056,-5.791697260931479
5.710988433053975,-6.083840485732111,2.4585750103935906,-5.857590275025923
5.650150028196654,-6.0424257342632455,2.3999991076433314,-5.919215273150996
5.589725770854021,-5.994208901268556,2.3408069549118213,-5.977035538027148
5.5297836818413355,-5.9395016235693125,2.28103659953155,-6.031486441543694
5.470388665605642,-5.878593911244916,2.220721735116113,-6.0829614786592305
5.411602726493193,-5.811745164043802,2.1598921203295207,-6.131798887802668
5.353485274852755,-5.739175558237934,2.098574131451494,-6.178269016558736
5.296093519270375,-5.661057989516812,2.0367914412859065,-6.222562612423448
5.239482939375207,-5.577510797712572,1.974565815161672,-6.264780253853756
5.183707831398081,-5.488591547652986,1.9119180126231345,-6.3049231876881136
5.128821915921551,-5.39429219597328,1.8488687807462534,-6.342885904951046
5.074878993961819,-5.294536033103095,1.785439921696743,-6.3784508655977445
5.021933633630788,-5.1891768470543465,1.7216554130407655,-6.4112858682872345
4.970041865160244,-5.07800080188251,1.6575425543578932,-6.440944644004567
4.919261857141419,-4.96073154576262,1.5931331079178475,-6.466871317456792
4.869654541683793,-4.837039044735945,1.5284643947432794,-6.488409407430344
4.8212841512364335,-4.706552558799875,1.463580300668976,-6.504816001760168
4.774218625648435,-4.5688780171610714,1.3985321406513744,-6.515281616721181
4.728529845476824,-4.423619792766566,1.3333793244841625,-6.518956008740004
4.684293647549158,-4.270406515571139,1.2681897643967626,-6.51497983086401
4.641589582393446,-4.108920108385167,1.2030399660881224,-6.502521516654796
4.600500381309595,-3.9389267101589436,1.1380147509215743,-6.4808181548975865
4.561111114208005,-3.7603076272642406,1.0732065693725985,-6.449218446802962
4.523508037935363,-3.5730880067292032,1.008714384904569,-6.407225203643725
4.487777157868071,-3.377460654908873,0.9446421328681317,-6.35453436287943
4.4540025513189825,-3.1738024263922417,0.8810967892393374,-6.291067297371249
4.42226452705506,-2.962680949236837,0.818186116265625,-6.216993366677842
4.392637717562692,-2.74485014926951,0.7560161825988465,-6.132740260597775
4.3651892160699965,-2.5212340333859506,0.6946887799928687,-6.038990684593308
4.339976875736137,-2.292899363353753,0.6342988731469357,-5.936665220138245
4.3170478821025995,-2.0610190194827864,0.5749322209455532,-5.826892575003431
4.296437691907772,-1.8268288249919071,0.5166632951955189,-5.710969699881368
4.278169403657853,-1.5915812149143653,0.4595535981967052,-5.590315185753551
4.262253591508709,-1.3564992954581585,0.4036504463391697,-5.466419832197809
4.248688598554128,-1.1227345480111408,0.3489862480171916,-5.340798245580019
4.2374612530740166,-0.8913307685166527,0.2955782655613914,-5.214944840537652
4.22854794538885,-0.6631959383713029,0.24342881715601486,-5.090296806863063
4.221915986005136,-0.43908275867485286,0.19252584908738424,-4.9682056332530635
4.217525158418388,-0.21957769093548574,0.1428437927548536,-4.8499178131466225
4.215329381509033,-0.005097637772067287,0.09434461462338736,-4.736564525424181
4.215278405131312,0.20410708182952764,0.04697896936914555,-4.629159462706028
4.2173194759496075,0.40794505361497174,0.0006873747420852727,-4.52860359913837
4.221398926485757,0.606473021072027,-0.044598661249298434,-4.435695532926955
4.227463656696478,0.7998836019906712,-0.08895561657856799,-4.351146065101289
4.235462492716384,0.9884928048983329,-0.13246707722958087,-4.275595832630605
4.245347420765367,1.1727284465701193,-0.17522303555588692,-4.2096350495380745
4.2570747052310685,1.3531203370556117,-0.21731938605126766,-4.153824680796435
4.270605908601625,1.5302928912055551,-0.258857632859232,-4.1087186484446825
4.285908837513681,1.7049606598981455,-0.29994481934367884,-4.074886926133601
4.3029584441126625,1.8779271535890754,-0.34069368860501487,-4.052939603566334
4.3217377156485535,2.0500872495087714,-0.3812230846406782,-4.0435521855452095
4.342238588143641,2.2224334161656056,-0.4216586064961303,-4.047492517607587
4.3644629223052975,2.396065926114873,-0.46213353167220617,-4.06564977439335
4.388423581566446,2.572207109840496,-0.5027900294161397,-4.099065851801122
4.414145652664851,2.752219439889187,-0.5437806879341509,-4.148969156783935
4.4416678470637425,2.937626659993879,-0.5852703795019902,-4.216809969028415
4.471044113663681,3.130135982478052,-0.6274384791922744,-4.304294835230076
4.502345473488462,3.331656998026837,-0.6704814275445751,-4.413414053109773
4.53566204346873,3.5443083166042677,-0.7146155680756728,-4.5464497238881645
4.571105126634773,3.770394154478299,-0.7600800653145545,-4.705939380957175
4.608809068179556,4.012316690069297,-0.8071394591241263,-4.894547037551789
4.648932235080249,4.27236043729954,-0.8560849294996442,-5.114751753565888
4.691655839453245,4.552234432924209,-0.907232447035303,-5.368192635264016
4.737178183782487,4.852181353578568,-0.9609143733879432,-5.654400937089924
4.785699997318273,5.169376766457128,-1.0174583827588424,-5.968528378745875
4.837393764982844,5.49534783599057,-1.0771436665463012,-6.2976881717828395
4.8923472433427495,5.812557001932239,-1.1401205482641297,-6.616109102952222
4.950472813362072,6.091742054800049,-1.206281639293652,-6.881336638212754
5.011390233910073,6.2942908860558076,-1.2750950056757795,-7.037500420176109
5.074333142770631,6.384905816948763,-1.3454700098775405,-7.033060885123761
5.138182200940118,6.351816975128966,-1.4158006187287782,-6.849235736503871
5.201700370691408,6.217173243232986,-1.4842929760938168,-6.514749102413998
5.263872103123738,6.024234325155163,-1.549440467117957,-6.088096758263898
5.324114446375289,5.814529867683945,-1.6103214347005959,-5.625693138609305
5.382259745052129,5.615425052508551,-1.6665783660866889,-5.164473941243928
5.438413995577214,5.440413748372169,-1.7182231054991282,-4.722226083619596
5.492818133060936,5.294081724701179,-1.765445366335324,-4.304432706124078
5.545758950307948,5.176461782154218,-1.8084896933965648,-3.910291634817438
5.59752356812949,5.085656904239908,-1.8475926097447393,-3.5363449552968373
5.648380137171889,5.0191647328751845,-1.8829560592977077,-3.1783199602958097
5.698571784500642,4.97446750092572,-1.9147392589006658,-2.831962559222466
5.748316459509899,4.949254880167774,-1.9430588844928904,-2.4933713951576766
5.797809008311576,4.94147643707636,-1.9679925984444673,-2.1591044592406603
5.84722377268234,4.94932025471974,-1.9895836430368739,-1.8261914460007826
5.896716975229538,4.971162873126554,-2.0078455574968816,-1.4921138625095323
5.946428603960803,5.005510891349636,-2.022766696121977,-1.1547802562408453
5.9964837128743,5.050943082871292,-2.034314498684385,-0.812507466762475
6.046993143703013,5.106056809531497,-2.0424395733520098,-0.46401102157324564
6.098053711798328,5.169420487287731,-2.047079683567742,-0.1084040545526403
6.149747916671205,5.239533213996544,-2.0481637241132686,0.254797749074433
6.20214324881117,5.314792602415199,-2.0456157466225244,0.625668659006876
6.255291174835322,5.393471949047134,-2.0393590600324556,1.0038668130202062
6.3092258943257935,5.473707876562609,-2.0293203919022536,1.3886335744531029
6.36396297309142,5.55349938109273,-2.0154340561577224,1.77880204386107
6.419497966902347,5.6307187366382,-1.9976460357191117,2.172817660884511
6.47580515426873,5.703133970103059,-1.9759178591102666,2.568772619355876
6.53283649396976,5.768441709220791,-1.9502301329167078,2.9644542607716495
6.590520911061968,5.824308275013925,-1.9205855903089912,3.357405905389966
6.648763993812107,5.868416132531578,-1.8870115312550915,3.7449970053113137
6.707448155137423,5.8985124142184,-1.8495615612019782,4.124498364868614
6.766433279279608,5.912456315229008,-1.8083165775532921,4.493157722568283
6.8255578424318974,5.90826275028246,-1.7633850003276093,4.8482713475345784
6.884640469934722,5.884140654077479,-1.7149022868522634,5.187248415194362
