th1 (rad),w1 (rad/s),th2 (rad),w2 (rad/s)
3.675981894560993,-2.4146331731745145,0.9582539987873425,-1.1115180558394766
3.651835562829248,-2.377413655331828,0.9471388182289477,-1.1337948969483562
3.6280614262759294,-2.343593499596556,0.9358008692594642,-1.1587871235264315
3.604625491279964,-2.313120745811696,0.9242129980241999,-1.1863793221469185
3.5814942838218466,-2.285944021368482,0.9123492048027307,-1.2164500689096096
3.5586348436081616,-2.262013555241147,0.9001847041136346,-1.2488737510314516
3.5360147080557502,-2.2412819402693334,0.8876959666033201,-1.283521991291819
3.513601888653057,-2.223704677335733,0.8748607466904019,-1.320264729344789
3.4913648418796996,-2.2092405318504413,0.861658099396954,-1.358971008595731
3.4692724365611953,-2.1978517296145625,0.8480683893109967,-1.3995095118900507
3.4472939192650496,-2.1895040158470938,0.8340732941920962,-1.441748883930158
3.4253988791065786,-2.1841665980267426,0.8196558053527946,-1.485557873292886
3.403557213126311,-2.181811990292259,0.8048002266198657,-1.5308053222699938
3.3817390932233886,-2.182415774500333,0.7894921733971658,-1.5773600285570104
3.3599149354783853,-2.185956290676784,0.7737185731115958,-1.625090499092896
3.3380553725716173,-2.1924142675167095,0.7574676681206668,-1.6738646131019768
3.3161312298964503,-2.201772401783754,0.7407290219896471,-1.7235492085904134
3.2941135058786126,-2.214014893911886,0.7234935299037429,-1.774009604171284
3.271973356939494,-2.2291269458049063,0.70575343386203,-1.8251090660981495
3.2496820874814447,-2.247094225737061,0.6875023432010485,-1.8767082287369488
3.227211145224074,-2.267902304359623,0.6687352609136791,-1.9286644753601663
3.204532122180478,-2.291536065090636,0.6494486161600774,-1.980831285066926
3.181616761529572,-2.3179790915869973,0.6296403033094081,-2.033057550782478
3.158436970613702,-2.3472130345505775,0.6093097278015833,-2.0851868726389813
3.134964840268196,-2.37921695978671,0.5884578590751935,-2.1370568305602298
3.111172670670329,-2.4139666792012324,0.5670872907695913,-2.1884982395457953
3.0870330038783167,-2.4514340662826,0.5452023083741333,-2.2393343909620143
3.062518663215491,-2.4915863575651462,0.5228089644645132,-2.289380283093978
3.0376027996398394,-2.534385441611409,0.4999151616335734,-2.3384418442997337
3.012258945223725,-2.5797871371967154,0.4765307431905761,-2.3863151523525206
2.986461073851758,-2.6277404626484184,0.4526675916670509,-2.432785653989367
2.9601836692252737,-2.6781868987170796,0.42833973512715723,-2.477627389349952
2.933401800238103,-2.7310596479819296,0.4035634612336577,-2.520602226949249
2.9060912037582836,-2.786282894676869,0.37835743896416524,-2.561459116158635
2.8782283748115147,-2.8437710700398062,0.3527428478025789,-2.5999333659660797
2.849790664111117,-2.9034281299261346,0.32674351414291813,-2.635745961153572
2.8207563828118554,-2.965146853589196,0.3003860545313824,-2.6686029300846936
2.791104914275963,-3.0288081753296905,0.27370002523053544,-2.69819478215388
2.760816832522666,-3.0942805642697206,0.24671807740899665,-2.7241960377168786
2.729874026879969,-3.1614194719282973,0.21947611703182787,-2.746264879076568
2.698259832160686,-3.230066872658125,0.1920134682410622,-2.764042957865187
2.6659591634341044,-3.3000509284059794,0.16437303866241032,-2.7771554018871405
2.6329586541500447,-3.3711858166776363,0.1366014846435389,-2.7852110729904878
2.599246795983268,-3.4432717689290175,0.10874937391363404,-2.7878031364814158
2.564814078293978,-3.5160953756478954,0.08087134254881988,-2.7845100114332686
2.529653124537499,-3.5894302237505173,0.05302624243448719,-2.7748967791558647
2.493758822299994,-3.6630379410065173,0.025277274642928543,-2.758517132958784
2.4571284428899287,-3.73666973019774,-0.0023078966866592956,-2.7349159547007025
2.419761745587951,-3.8100684815285146,-0.02965705623366632,-2.7036326006580023
2.3816610607726663,-3.8829715540995124,-0.056693382240246344,-2.6642049688587637
2.342831345231671,-3.9551143144877634,-0.08333543192883398,-2.616174399904009
2.3032802020867935,-4.026234510983458,-0.10949717592787407,-2.559091431121028
2.263017856976959,-4.0960775442193045,-0.13508809023908436,-2.4925223776341885
2.2220570815347656,-4.164402667498045,-0.16001331401542623,-2.416056652253615
2.1804130548597853,-4.230990112425474,-0.18417388053796238,-2.3293146588079834
2.1381031537355306,-4.29564908787204,-0.2074670271260422,-2.2319560022413736
2.09514666285681,-4.35822654464815,-0.22978658714845593,-2.123687657237205
2.0515643974103286,-4.41861653823243,-0.25102346372082796,-2.0042716316711875
2.0073782320280045,-4.476769963109042,-0.27106618003753985,-1.8735315607577665
1.962610532396914,-4.532704382388158,-0.28980149564511754,-1.7313575833732497
1.9172834885730325,-4.586513644581341,-0.30711507147885003,-1.5777087957478277
1.8714183521272192,-4.638376975541339,-0.3228921594363283,-1.4126125607855458
1.8250345823718057,-4.688567266944737,-0.3370182850441838,-1.2361599818780027
1.7781489097023584,-4.737458360529934,-0.34937988486296384,-1.0484969307591898
1.730774326097059,-4.785531253346085,-0.35986485417055575,-0.8498101442767942
1.682919013563598,-4.833379322782073,-0.3683629556133237,-0.6403080600536959
1.6345852203357774,-4.8817128857445,-0.3747660362138607,-0.42019622144893765
1.5857680914783323,-4.931363654956236,-0.37896799842835005,-0.1896472155821379
1.53645445492877,-4.983289926245274,-0.38086447058417144,0.051234822750816755
1.4866215556663172,-5.038583614449543,-0.38035212235666327,0.3024551413176097
1.4362357195218216,-5.098480547002852,-0.3773275709434872,0.5641749029405285
1.385250914051793,-5.164375724446321,-0.3716858219140819,0.8367638154543704
1.3336071568073298,-5.237845572546908,-0.36331818375953817,1.1208598494621924
1.2812287010818606,-5.320679547043337,-0.35210958526491626,1.4174376819082746
1.2280219056114272,-5.414923796592183,-0.3379352084458335,1.7278882429047338
1.1738726676455054,-5.522939870568042,-0.3206563260167862,2.0541124171165417
1.118643268939825,-5.647481453871834,-0.30011520184562074,2.3986321840723788
1.0621684544011065,-5.791791242661947,-0.27612888000489694,2.7647213976530325
1.004250541974487,-5.959716942686852,-0.2484816660283666,3.156553974804118
0.9446533725476184,-6.155836691285113,-0.21691612628032542,3.5793548148570853
0.8830950056347673,-6.3855623916346635,-0.18112257813175456,4.0395075969397265
0.8192393817184207,-6.655137227588071,-0.1407275021623573,4.544499397112139
0.75268800944254,-6.971322630466985,-0.0952825081912359,5.102410950667962
0.6829747831378702,-7.34030016833738,-0.044258398684556284,5.720281161776524
0.6095717814544964,-7.764755036250696,0.012944412933208957,6.399889076176952
0.5319242310919895,-8.237147794964377,0.07694330369497848,7.128151293165378
0.4495527531423457,-8.726423835060025,0.14822481662663228,7.858286196201667
0.36228851479174545,-9.158790624598224,0.22680767858864898,8.482704929880708
0.2707006085457632,-9.41126441875258,0.31163472788745605,8.82412675522055
0.17658796435823743,-9.365649221474126,0.39987599543966157,8.71225549357524
0.08293147214349617,-9.022224875577258,0.48699855037541395,8.144970470429165
-0.007290776612276423,-8.518992067911453,0.5684482550797056,7.316366314285392
-0.09248069729139095,-8.003305324595205,0.6416119182225596,6.435929064046067
-0.17251375053734302,-7.549330349550604,0.7059712088630202,5.6111294265747
-0.24800705403284906,-7.174693286356262,0.7620825031287672,4.869700188040814
-0.31975398689641166,-6.873768067101264,0.8107795050091754,4.206069050596797
-0.3884916675674243,-6.63504757032374,0.8528401955151433,3.605868637306789
-0.45484214327066175,-6.447256228907607,0.8888988818882112,3.0547417726594146
-0.5193147055597378,-6.300885866093732,0.9194462996148054,2.5407050599248007
-0.5823235642206751,-6.188242296747141,0.9448533502140534,2.0543831980885088
-0.6442059871881465,-6.103109430886361,0.9653971821949384,1.5886714686783137
-0.7052370814970101,-6.040380402743375,0.9812838968817216,1.1383232110687922
-0.7656408855244439,-5.995748962371452,0.9926671289924095,0.6995963592156812
-0.8255983751481584,-5.965474396319284,0.9996630925845663,0.2699777123212451
-0.8852531191113512,-5.946211619798836,1.0023628697077787,-0.15202880893776893
-0.9447152353093395,-5.934894562171139,1.000842581618401,-0.5670693643212463
-1.0040641809310509,-5.9286622260181945,0.9951718879751885,-0.9750799697292007
-1.0633508031912329,-5.924818637994369,0.9854210882778965,-1.3754116188908148
-1.1225989895711765,-5.920819209693971,0.9716669720889884,-1.7669489967146839
-1.1818071816681162,-5.914276709700687,0.9539974821218417,-2.1482268810601144
-1.240949948765123,-5.902980368690295,0.9325152133112405,-2.517544809637577
-1.299979752452026,-5.884921922622861,0.9073397652148648,-2.8730779085489417
-1.3588289716782547,-5.858322916448136,0.8786089861293754,-3.2129801239713607
-1.4174122008427361,-5.821658492895542,0.8464791848896618,-3.535475561593099
-1.4756287857716917,-5.77367417825141,0.8111244292737307,-3.838934156016158
-1.5333655275542057,-5.713393712598025,0.7727350877135691,-4.121929226884029
-1.590499464680186,-5.640117531780984,0.7315157954447289,-4.383276260447163
-1.6469006399979957,-5.553412852439826,0.6876830328402572,-4.622054069306974
-1.702434768522394,-5.453097251919124,0.6414624921471875,-4.837610965467802
-1.756965741041585,-5.339218079872497,0.5930863824925096,-5.029559495106317
-1.81035792184031,-5.212030002177544,0.5427907875414464,-5.19776354752945
-1.8624782218620854,-5.071972561298817,0.4908131520661519,-5.342321329137877
-1.9131979474750735,-4.91964899126354,0.4373899387747731,-5.463546948404995
-1.962394437387709,-4.75580681125975,0.38275446929072315,-5.561952396167472
-2.0099525055003062,-4.58132007984474,0.3271349453290484,-5.638230727540269
-2.0557657062987538,-4.397172722046009,0.2707526380536457,-5.693240418539646
-2.099737433519214,-4.204442097041815,0.21382023386824922,-5.727990286332779
-2.1417818544896323,-4.00428196169991,0.15654033100492143,-5.7436240712946764
-2.1818246741066316,-3.7979041737643224,0.09910409029197467,-5.741403772312255
-2.2198037158442747,-3.5865588090012883,0.04169005256885212,-5.722691052540038
-2.2556693039342877,-3.3715127650758245,-0.015536857956548258,-5.688926412222934
-2.289384431585046,-3.154027315125414,-0.0724261220787776,-5.641606267879473
-2.3209247047363,-2.9353353897421806,-0.12884218475757234,-5.582258496511779
-2.350278058633722,-2.7166195608187556,-0.18466476972269014,-5.512417329789875
-2.37744425424191,-2.4989917530657495,-0.2397889430205889,-5.433598672176541
-2.4024341717725672,-2.2834756233093465,-0.2941249297423543,-5.347276953608555
-2.4252689280056607,-2.070992349811532,-0.34759769927843986,-5.254864523482622
-2.445978851503776,-1.8623503036314493,-0.4001463445132661,-5.15769438049783
-2.464602354540091,-1.6582387761539326,-0.4517232883182444,-5.057006755732971
-2.48118474230163,-1.4592256525694325,-0.5022933558755741,-4.9539397692707015
-2.4957769988273246,-1.2657586819914899,-0.5518327535682811,-4.849524102805085
-2.5084345856472394,-1.0781698202061465,-0.6003279945963319,-4.744681400208658
-2.519216283849301,-0.8966820173256596,-0.6477748085984185,-4.640225940619581
-2.5281831040225575,-0.7214177859546477,-0.6941770680046143,-4.536869028164294
-2.535397281882104,-0.5524089047819658,-0.7395457582862572,-4.435225503767594
-2.5409213709299237,-0.38960667303322155,-0.7838980133239332,-4.335821796608778
-2.5448174376602557,-0.23289221756435186,-0.8272562312900209,-4.2391049820026865
-2.5471463598358994,-0.08208645268464951,-0.8696472811100477,-4.145452385063198
-2.547967224362746,0.0630406080186478,-0.9111018049606797,-4.055181353298492
-2.5473368182825595,0.2027613963913865,-0.9516536184936646,-3.9685589066445446
-2.5453092043186456,0.33738331908248553,-0.9913392075601101,-3.8858110534457246
-2.5419353711278205,0.46724233322922726,-1.0301973180945674,-3.8071316311238803
-2.5372629477955284,0.5926975777567258,-1.068268634405806,-3.7326905883528343
-2.531335972017961,0.7141270300947559,-1.1055955402893345,-3.6626416705360634
-2.5241947017170134,0.8319241293217304,-1.1422219569946952,-3.597129502202071
-2.5158754604237963,0.9464952859408451,-1.178193252016716,-3.5362960788495754
-2.5064105075643877,1.0582581826127386,-1.2135562128052118,-3.480286686916013
-2.49582792573826,1.1676407558486352,-1.248359079674372,-3.4292552634516227
-2.4841515181797735,1.275080732150873,-1.2826516323088881,-3.383369185287502
-2.4714007108582647,1.3810255689882407,-1.3164853241617631,-3.3428134380264916
-2.4575904551683823,1.485932615917467,-1.349913458542028,-3.307794053028687
-2.4427311290092075,1.590269257179997,-1.3829913990723148,-3.2785406078904247
-2.4268284364374075,1.6945127150855714,-1.4157768051512192,-3.255307451246723
-2.4098833092865517,1.799149071368938,-1.4483298796636863,-3.238373119950382
-2.391891818572862,1.9046708858189705,-1.4807136108631902,-3.2280371442335714
-2.3728451097146723,2.0115725385164605,-1.5129939823055258,-3.2246130573017617
-2.352729384329508,2.120342072507559,-1.5452401128785436,-3.228415909646162
-2.3315259636044323,2.2314478492349386,-1.577524271975005,-3.239741909050893
-2.309211485112083,2.3453177469579556,-1.609921691065514,-3.2588369611254713
-2.2857583076425034,2.4623079734639677,-1.6425100606767689,-3.2858499300333306
-2.2611352279078636,2.5826579655958364,-1.6753685599771022,-3.320765569396084
-2.2353086482519053,2.7064276340982363,-1.708576215671063,-3.363311750060808
-2.208244371910923,2.83341403080214,-1.7422093331716713,-3.4128367546072202
-2.1799102316029018,2.963047485917959,-1.7763377007177434,-3.4681566093788274
-2.150279756743722,3.094274005332616,-1.8110192668115317,-3.527381987422168
-2.119337016690396,3.2254429138994682,-1.8462930866857534,-3.5877515437767444
-2.0870825875514014,3.3542366270734307,-1.882170602123521,-3.6455240238055246
-2.053540221280667,3.4776987612460886,-1.9186258423615763,-3.6960091265219597
-2.018763233668206,3.5924250197625125,-1.955585933626796,-3.733829218732209
-1.9828389834705809,3.6949578128590272,-1.992924225814118,-3.75347140355365
-1.9458894053419906,3.782354051529148,-2.0304589398496544,-3.750088830090703
-1.908065864826699,3.8527903018057166,-2.0679598281505616,-3.720361259690833
-1.8695379618086418,3.905993027329947,-2.1051634407474697,-3.6631156818036925
-1.8304780315353424,3.9433118656362636,-2.141794597565507,-3.5794482708296314
-1.7910449128789798,3.9674027418085904,-2.177589080273803,-3.472297012204196
-1.7513708854608938,3.9816620336497386,-2.212312050395845,-3.3456597957546688
-1.7115542651243965,3.989632574069414,-2.245768648353392,-3.203766329522151
-1.6716579393837023,3.9945537712518746,-2.2778063116486136,-3.0504462193841833
-1.6317124016711835,3.99911778503696,-2.3083107738424555,-2.8887820669046036
-1.5917212238208138,4.005403494589748,-2.3371985945115017,-2.7210102247121615
-1.5516671888749163,4.014922920077254,-2.3644086967586233,-2.5485794800625254
-1.5115179596741437,4.0287186320589905,-2.3898944915592484,-2.372282751755452
-1.471230773353554,4.047470869587641,-2.413617319076803,-2.192404650314075
-1.4307560646576776,4.071592962482864,-2.435541365579944,-2.0088552642969573
-1.3900401350328488,4.101307219692894,-2.4556299182229133,-1.8212793831598073
-1.34902706283592,4.136700792815061,-2.4738427120545112,-1.6291406191058821
-1.3076600549077695,4.1777641528560805,-2.49013411824557,-1.4317842963185554
-1.2658824133792086,4.224415630284067,-2.5044519612087557,-1.2284841589555904
-1.223638257076368,4.2765152278335075,-2.5167368027983117,-1.0184776539803668
-1.180873104798033,4.333870319124146,-2.5269215793381155,-0.8009937295527411
-1.1375344016067914,4.396235224132264,-2.534931516633643,-0.5752762036037218
-1.0935720493654688,4.4633061351169285,-2.54068427866968,-0.34060497135183093
-1.0489389880142996,4.534712488063144,-2.544090328383198,-0.09631667218950513
-1.0035918631336682,4.6100056293648715,-2.545053495105093,0.15817409229976598
-0.9574918068400196,4.6886454962309765,-2.5434717541820957,0.4233523409630319
-0.9106053518777097,4.769985990528187,-2.5392382307724652,0.6995788402723673
-0.8629054919724278,4.853259758553786,-2.5322424423697414,0.9870648865458261
-0.81437289438689,4.9375631732593375,-2.5223717935042833,1.2858462093230056
-0.7649972626542966,5.021842429924758,-2.5095133314110534,1.5957568097787216
-0.714778838355049,5.104881788937167,-2.493555763313266,1.916403879101119
-0.6637300204656773,5.185295106287237,-2.474391724522255,2.247145236901088
-0.611877069402805,5.261521859248337,-2.451920272153244,2.587070962222653
-0.5592618508103215,5.331828878792509,-2.4260495625310172,2.9349910299268456
-0.5059435620223964,5.394318923836517,-2.396699652231749,3.289430786678926
-0.45200037278403127,5.44694706559386,-2.36380534436496,3.648635986936442
-0.39753090212809267,5.487545593187437,-2.3273189844955953,4.010588859050699
-0.3426554461962183,5.513857813577163,-2.2872130959050883,4.373036301189547
-0.2875168680604467,5.523580714613108,-2.243482732893193,4.73353084702347
-0.2322810609143156,5.514416003522574,-2.1961474244229584,5.089484528476098
-0.17713690087908987,5.484128530229547,-2.1452525791381976,5.43823522705557
-0.1222956155767944,5.430610549226698,-2.090870226867642,5.7771245574501995
-0.06798951008452742,5.351949649414,-2.03309898129314,6.10358575443192
-0.01447001359038741,5.246497475280578,-1.9720631237488206,6.415239407105917
0.03799496116241837,5.112935585718086,-1.9079107296777615,6.7099941784014545
0.08912431701959923,4.950334007176607,-1.840810787893747,6.986148874806351
0.1386276570913653,4.758197358920524,-1.7709492991456834,7.242491473738388
0.18620963068057053,4.536493044077275,-1.6985243844082996,7.478390142218506
0.23157456112134328,4.285656123373151,-1.6237404829861144,7.693871131927298
0.2744311223550748,4.006566296645836,-1.5468017716668414,7.889678974317089
0.31449678532153313,3.7004939751751533,-1.4679049819236705,8.067315825943215
0.3515017250732847,3.3690146212658565,-1.3872318236642383,8.229059180491111
0.3851918712859433,3.0138930461293554,-1.3049412318593272,8.377960315044627
0.41533080174723686,2.636941727554989,-1.221161628708881,8.517829412250666
0.4417002190227867,2.2398589395236184,-1.1359833345863741,8.653216792284645
0.4640988084180229,1.824053223775967,-1.0494511666635278,8.789402543152109
0.4823393406557826,1.3904604673584697,-0.9615571412320066,8.932408491019205
0.4962439453293673,0.9393591471567246,-0.8722330563218146,9.089046197269138
0.5056375368009345,0.47018968950289614,-0.7813425943491232,9.26701113140187
0.5103394336959635,-0.01861129401932643,-0.6886724830351045,9.475022968071762
0.5101533207557702,-0.5297346851580027,-0.5939222533543869,9.722986591406283
0.5048559739041902,-1.0670091453559962,-0.49669238744032407,10.022087125994961
0.4941858824506303,-1.635118979931306,-0.39647151618037446,10.384586334295632
0.4778346926513172,-2.238600640059838,-0.29262565283741815,10.822747804350998
0.4554486862507188,-2.8791431718880087,-0.1843981747939082,11.345566806123214
0.4266572545318387,-3.5491744920903487,-0.07094250673267605,11.9505202677302
0.3911655096109352,-4.218427502860457,0.04856269594462595,12.605686012547666
0.34898123458233066,-4.81183200535287,0.17461955607010263,13.219627551263205
0.300862914528802,-5.193331615090071,0.3068158315827347,13.618483758751225
0.24892959837790127,-5.209170769000341,0.44300066917024694,13.603118677446577
0.19683789068789787,-4.822406120363524,0.5790318559447127,13.129274606307701
0.14861382948426263,-4.177336436544107,0.7103246020077898,12.390387236524761
0.10684046511882156,-3.4595381596795707,0.8342284743730374,11.626032797299558
0.07224508352202585,-2.772008645245977,0.950488802346033,10.96033085363454
0.044524997069566086,-2.1445804759862925,1.0600921108823784,10.420835267694171
0.02307919230970316,-1.575659002678301,1.1643004635593202,9.996356555400562
0.00732260228292015,-1.0550861732446108,1.2642640291133258,9.666960564738329
-0.003228259449525959,-0.5723140145213659,1.360933634760709,9.41389544691033
-0.008951399594739617,-0.11860618651843574,1.4550725892298124,9.221753940492647
