th1 (rad),w1 (rad/s),th2 (rad),w2 (rad/s),a1 (rad/s^2),a2 (rad/s^2)
3.7886320285912376,-2.9849451954628825,2.238666952476854,-0.6417002345473632,5.690453510963447,1.0950404593371876
3.7587825766366088,-2.928040660353248,2.2322499501313806,-0.6307498299539913,5.4599221252829375,0.5902456566390089
3.729502170033076,-2.8734414391004184,2.2259424518318407,-0.6248473733876012,5.236657517893049,0.11518238240173866
3.700767755642072,-2.821074863921488,2.2196939780979648,-0.6236955495635839,5.019909503231958,-0.3314978328670861
3.6725570070028573,-2.7708757688891685,2.213457022602329,-0.6270105278922548,4.8088899798617994,-0.7510498872572855
3.6448482493139656,-2.7227868690905503,2.207186917323406,-0.6345210267648276,4.602787836785378,-1.1446319119612098
3.6176203806230602,-2.6767589907226967,2.200841707055758,-0.6459673458844397,4.40078156463257,-1.5133050213768964
3.590852790715833,-2.632751175076371,2.1943820335969138,-0.6611003960982087,4.202049933069249,-1.8580353652059693
3.5645252789650694,-2.5907306757456787,2.1877710296359316,-0.6796807497502684,4.005781037624409,-2.179697923293643
3.5386179722076125,-2.550672865369435,2.180974222138429,-0.7014777289832048,3.811179965744601,-2.4790815592485362
3.5131112435539182,-2.512561065711989,2.173959444848597,-0.7262685445756902,3.6174752844168636,-2.756894915605271
3.487985632896798,-2.4763863128678203,2.16669675940284,-0.7538374937317429,3.4239245107663203,-3.0137727923952755
3.46322176976812,-2.442147067760157,2.1591583844655227,-0.7839752216556957,3.2298186928373744,-3.250282703609456
3.438800299090518,-2.4098488808317833,2.151318632248966,-0.8164780486917902,3.0344862001934567,-3.466931353321509
3.4147018102822004,-2.3795040188298486,2.143153851762048,-0.8511473622250053,2.8372958026551856,-3.6641708162276316
3.3909067700939017,-2.3511310608032967,2.1346423781397976,-0.8877890703872816,2.637659099879853,-3.842404246887886
3.3673954594858686,-2.324754469804498,2.1257644874359247,-0.9262131128561605,2.435032353855289,-4.0019909786321355
3.3441479147878237,-2.300404146265945,2.1165023563073633,-0.9662330226424818,2.228917769919269,-4.143250907286417
3.3211438733251644,-2.2781149685667526,2.1068400260809383,-1.007665531715346,2.018864268736007,-4.266468086732071
3.298362723639497,-2.2579263258793927,2.0967633707637847,-1.0503302125826668,1.8044677908530482,-4.371893492801591
3.275783460380703,-2.2398816479708623,2.086260068637958,-1.0940491475106826,1.5853711761298581,-4.459746938989427
3.2533846439009944,-2.2240279362095636,2.075319577162851,-1.138646616900577,1.3612636616329912,-4.530218151695313
3.2311443645388986,-2.2104152995932336,2.0639331109938452,-1.18394879841753,1.1318800427791775,-4.583467033997156
3.209040211542966,-2.199096499165442,2.05209362300967,-1.2297834687575016,0.8969995429393751,-4.619623165088082
3.187049246551312,-2.1901265037360482,2.039795788322095,-1.2759797004083824,0.6564444358898022,-4.638784597408427
3.165147981513951,-2.18356205937715,2.027035991318011,-1.3223675463824667,0.41007846304683715,-4.641016025166194
3.14331236092018,-2.1794612747466817,2.013812315854186,-1.3687777066341287,0.15780508312791786,-4.626346406493456
3.121517748172713,-2.1778832239154027,2.0001245387878446,-1.4150411706990633,-0.1004344143558577,-4.594766127168158
3.099738915933559,-2.178887568058961,1.985974127080854,-1.460988831970745,-0.3646629085341639,-4.546223796970183
3.0779500402529694,-2.182534197144303,1.9713642387611465,-1.5064510699404468,-0.6348695462919905,-4.480622770732864
3.0561246982815264,-2.188882892607223,1.956299728061742,-1.5512572976477754,-0.9110119394834633,-4.3978174854219
3.034235869355454,-2.1979930120020574,1.9407871550852642,-1.5952354725019944,-1.1930184718117423,-4.297609702542542
3.0122559392354336,-2.2099231967201747,1.9248348003602442,-1.6382115695274198,-1.4807907413689283,-4.179744742221457
2.990156707268232,-2.224731104133864,1.90845268466497,-1.6800090169496342,-1.7742061803429428,-4.043907791736861
2.967909396226893,-2.2424731659372936,1.8916525944954738,-1.720448094867003,-2.073120909820391,-3.889720367288004
2.94548466456752,-2.2632043750354973,1.8744481135468039,-1.759345298539883,-2.377372904791155,-3.716737003498384
2.922852620817165,-2.286978104083409,1.856854660561405,-1.796512668574867,-2.686785562253805,-3.524442240513077
2.8999828397763308,-2.313845959705947,1.8388895338756563,-1.8317570909799976,-3.0011717835980214,-3.3122479734429975
2.8768443801792714,-2.343857677541927,1.8205719629658563,-1.8648795707144277,-3.320338701052741,-3.079491223094833
2.8534058034038523,-2.3770610645524544,1.8019231672587122,-1.895674482945376,-3.644093196745831,-2.825432380107525
2.8296351927583276,-2.4135019965199125,1.7829664224292583,-1.9239288067464513,-3.972248381553334,-2.5492539664800344
2.8055001727931286,-2.4532244803354457,1.7637271343617937,-1.9494213464112515,-4.304631219030563,-2.250059948761496
2.7809679279897743,-2.4962707925257512,1.7442329208976812,-1.9719219458988664,-4.6410914967380466,-1.9268756257805977
2.756005220064517,-2.5426817074931316,1.7245137014386926,-1.9911907021566724,-4.981512362366954,-1.5786481009156623
2.7305784029895857,-2.5924968311168013,1.704601794417126,-2.006977183165829,-5.325822654029217,-1.2042473352620537
2.7046534346784177,-2.6457550576570936,1.6845320225854676,-2.0190196565184495,-5.674011261184985,-0.8024677651641222
2.678195884101847,-2.7024951702689433,1.6643418260202831,-2.027044334170091,-6.026143752468356,-0.3720304582215718
2.6511709323991575,-2.762756607793627,1.6440713826785822,-2.0307646387523066,-6.382381495594006,0.08841421928280464
2.623543366321221,-2.8265804227495672,1.623763736291059,-2.0298804965594788,-6.743003467440395,0.5802834360773611
2.5952775620937256,-2.8940104574239713,1.6034649313254643,-2.0240776621987053,-7.108430901789128,1.10505820142498
2.5663374575194857,-2.9650947664418625,1.5832241547034773,-2.0130270801844556,-7.479254836948975,1.6642790261837384
2.536686509855067,-3.0398873148113523,1.5630938839016328,-1.9963842899226183,-7.856266489065167,2.2595406639698425
2.5062876367069533,-3.118449979702004,1.5431300410024067,-1.9737888832829198,-8.240490164485434,2.8924853851698336
2.4751031369099334,-3.2008548813468582,1.5233921521695775,-1.9448640294312214,-8.633218098656998,3.5647937914272374
2.4430945880964647,-3.287187062333428,1.5039435118752653,-1.909216091516949,-9.036046112889592,4.278171469298002
2.4102227174731303,-3.377547523462324,1.4848513509600958,-1.8664343768239688,-9.45090822771791,5.034328674080218
2.3764472422385072,-3.4720566057395033,1.4661870071918561,-1.8160910900831666,-9.880107231537558,5.834948527325431
2.3417266761811124,-3.5708576780548786,1.4480260962910245,-1.7577416048099124,-10.326336476956746,6.681636605145541
2.3060180994005637,-3.674121042824446,1.4304486802429255,-1.690925238758457,-10.792685564640765,7.575840845598874
2.2692768889723194,-3.7820478984708537,1.4135394278553408,-1.6151668303024682,-11.28261862483578,8.518724758372283
2.2314564099876106,-3.8948740847192114,1.397387759552316,-1.5299795827187455,-11.799907952231427,9.510968025394323
2.1925076691404186,-4.012873164241526,1.3820879637251287,-1.4348699024648022,-12.348496818364538,10.552455372928012
2.1523789374980034,-4.136358132425172,1.3677392647004807,-1.329345348735522,-12.932252006243074,11.641795184796223
2.1110153561737515,-4.265680652487602,1.3544458112131255,-1.2129273968875598,-13.554547150515626,12.775581243712889
2.0683585496488757,-4.401226123992759,1.3423165372442498,-1.0851715844504308,-14.217590107825679,13.94727136063397
2.0243462884089483,-4.543402025071015,1.3314648213997455,-0.9456988708440911,-14.921369228835353,15.145503016560466
1.978912268158238,-4.692615717359368,1.3220078326913047,-0.7942438406784864,-15.662044110223398,16.35159878293893
1.9319861109846443,-4.849236158461602,1.31406539428452,-0.6307278528490972,-16.429551208493468,17.535941928866563
1.8834937494000283,-5.013531670546537,1.307758115756029,-0.45536843356043155,-17.204152595500087,18.65285480382278
1.833358432694563,-5.1855731965015375,1.3032044314204247,-0.2688398855222037,-17.951676883156424,19.633663866402642
1.7815027007295474,-5.365089965333102,1.3005160325652028,-0.0725032468581773,-18.6173941663853,20.377946079441294
1.7278518010762165,-5.5512639069969545,1.299791000096621,0.13127621393623565,-19.119037293755966,20.743819639194573
1.6723391620062469,-5.742454279934514,1.3011037622359833,0.3387144103281814,-19.34074305731535,20.540015281523697
1.6149146192069017,-5.935861710507668,1.3044909063392651,0.5441145631434183,-19.131933029923086,19.52575095877525
1.555556002101825,-6.1271810408068985,1.3099320519706994,0.7393720727311708,-18.31815407905987,17.428765502262205
1.4942841916937561,-6.310362581597497,1.3173257726980112,0.9136597277537928,-16.732776168419175,13.994486513086855
1.4311805658777812,-6.477690343281688,1.3264623699755491,1.0536045928846614,-14.274490030222792,9.073366919887883
1.3664036624449643,-6.620435243583916,1.3369984159043957,1.1443382620835403,-10.979863263734433,2.7303909911052124
1.3001993100091251,-6.73023387622126,1.348441798525231,1.1716421719945924,-7.074716442508974,-4.676594135063577
1.2328969712469124,-6.80098104064635,1.360158220245177,1.1248762306439566,-2.954682743532897,-12.52299124229981
1.164887160840449,-6.8305278680816786,1.3714069825516166,0.9996463182209585,0.9241624487060726,-20.077429233415636
1.0965818821596323,-6.821286243594618,1.3814034457338262,0.7988720258868022,4.195440518475044,-26.725450294289093
1.028369019723686,-6.779331838409868,1.3893921659926942,0.5316175229439113,6.684751085584029,-32.12731139696595
0.9605757013395875,-6.712484327554027,1.3947083412221333,0.21034440897425177,8.414760827315499,-36.23485312291379
0.8934508580640472,-6.628336719280872,1.3968117853118758,-0.15200412225488613,9.537926628618305,-39.1999042237041
0.8271674908712385,-6.532957452994689,1.3952917440893269,-0.5440031644919272,10.254674650593278,-41.257047390903374
0.7618379163412916,-6.430410706488757,1.3898517124444076,-0.9565736384009609,10.755715490589205,-42.63832099202913
0.6975338092764041,-6.322853551582864,1.380285976060398,-1.3829568483212522,11.195549079759742,-43.53228838593985
0.6343052737605754,-6.210898060785267,1.3664564075771855,-1.8182797321806508,11.687499915625052,-44.07499343834836
0.5721962931527228,-6.0940230616290165,1.348273610255379,-2.2590296665641345,12.30884559150084,-44.356789460603174
0.5112560625364326,-5.9709346057140085,1.3256833135897377,-2.7025975611701663,13.108634545167876,-44.43424474379454
0.45154671647929256,-5.83984826026233,1.298657337978036,-3.1469400086081114,14.114796375204495,-44.34186682350232
0.39314823387666925,-5.698700296510285,1.2671879378919548,-3.5903586768431346,15.339549992670444,-44.10180733959182
0.3361612309115664,-5.545304796583581,1.2312843511235234,-4.031376750239053,16.78319437142646,-43.73129466835275
0.2807081829457306,-5.3774728528693165,1.1909705836211328,-4.4686896969225804,18.43671125325284,-43.24808510016971
0.2269334544170374,-5.193105740336788,1.146283686651907,-4.901170547924277,20.2836263588372,-42.67430100257327
0.17500239701366954,-4.990269476748416,1.0972719811726643,-5.327913557950009,22.301471690521286,-42.038938730689814
0.12509970224618538,-4.767254759843204,1.0439928455931642,-5.748302945256907,24.463049233434283,-41.37920716021783
0.07742715464775335,-4.522624267508861,0.9865098161405951,-6.162095016859086,26.737537549872584,-40.74073462617593
0.03220091197266474,-4.255248892010135,0.9248888659720043,-6.5695023631208445,29.09130057537553,-40.17654508685487
-0.01035157694743661,-3.9643358862563796,0.8591938423407958,-6.971267813989393,31.488028186281888,-39.74450936769746
-0.049994935810000404,-3.6494556043935606,0.7894811642009019,-7.368712907666368,33.88751810998173,-39.50264828569622
-0.086489491853936,-3.3105804232937435,0.7157940351242382,-7.76373939052333,36.24193011504008,-39.50108443193257
-0.11959529608687344,-2.948161122143343,0.638156641219005,-8.158750234842657,38.48760971736988,-39.76844665980688
-0.14907690730830686,-2.563285024969644,0.5565691388705784,-8.556434701440725,40.52949983796761,-40.28896111948286
-0.1747097575580033,-2.157990026589968,0.4710047918561711,-8.959324312635554,42.21382051660714,-40.96436562853396
-0.19628965782390298,-1.7358518214238965,0.3814115487298156,-9.368967968920893,43.28392737328635,-41.55318240518397
-0.21364817603814196,-1.303012547691033,0.28772186904060665,-9.784499792972733,43.31715890572009,-41.582855781483104
-0.22667830151505228,-0.869840958633832,0.1898768711108793,-10.200328350787565,41.655499062105875,-40.24923322908236
-0.2353767111013906,-0.45328596801277327,0.08787358760300365,-10.602820683078388,37.38614816866647,-36.37516398961745
-0.23990957078151834,-0.07942448632610855,-0.018154619227780236,-10.966572322974562,29.509043381767174,-28.60993633612751
-0.2407038156447794,0.2156659474915632,-0.12782034245752585,-11.252671686335837,17.477789819697968,-16.122559163740537
-0.23854715616986377,0.39044384568854285,-0.24034705932088424,-11.413897277973243,2.0637544653767983,0.2693125613718361
-0.23464271771297834,0.41108139034231084,-0.3544860321006167,-11.411204152359526,-14.20549795628295,17.525473269084486
-0.23053190380955524,0.2690264107794813,-0.46859807362421196,-11.23594941966868,-28.051209398840374,31.70314834199706
-0.2278416397017604,-0.01148568320892246,-0.5809575678208988,-10.91891793624871,-37.379191388901994,40.451411662103794
-0.22795649653384964,-0.3852775970979424,-0.6901467471833859,-10.51440381962767,-42.13334668748785,44.017995089798546
-0.23180927250482905,-0.8066110639728209,-0.7952907853796626,-10.074223868729685,-43.50433767547846,44.12397208223562
-0.23987538314455725,-1.2416544407276056,-0.8960330240669594,-9.63298414790733,-42.824604059573446,42.52467789217227
-0.25229192755183333,-1.66990048132334,-0.9923628655460327,-9.207737368985606,-41.05725700531546,40.40371017873874
-0.2689909323650667,-2.0804730513764946,-1.0844402392358887,-8.803700267198218,-38.768456223670924,38.392188495595114
-0.2897956628788317,-2.468157613613204,-1.1724772419078708,-8.419778382242267,-36.25345792137742,36.76230058304447
-0.3144772390149637,-2.8306921928269784,-1.2566750257302934,-8.052155376411822,-33.654460608123415,35.59087461302097
-0.3427841609432335,-3.1672367989082124,-1.3371965794944116,-7.696246630281612,-31.03649017873037,34.85928457029647
-0.3744565289323156,-3.477601700695516,-1.4141590457972277,-7.347653784578648,-28.429615642234563,34.50681133028088
-0.4092325459392708,-3.761897857117862,-1.4876355836430142,-7.002585671275838,-25.850592213753956,34.45733282309095
-0.4468515245104494,-4.0204037792554015,-1.5576614403557725,-6.658012343044929,-23.313143517425864,34.63227006686504
-0.4870555623030034,-4.25353521442966,-1.6242415637862218,-6.311689642376279,-20.832232897684758,34.95684613395057
-0.5295909144473,-4.4618575434065075,-1.6873584602099845,-5.962121181036773,-18.425228897619142,35.36319644382889
-0.5742094898813651,-4.646109832382699,-1.7469796720203523,-5.608489216598484,-16.111520403898755,35.79199852332443
-0.620670588205192,-4.807225036421686,-1.8030645641863372,-5.2505692313652395,-13.911428678002334,36.19335370352854
-0.668742838569409,-4.946339323201709,-1.8555702564999896,-4.888635694329954,-11.844893343770243,36.527208622364014
-0.7182062318014261,-5.064788256639411,-1.9044566134432892,-4.523363608106314,-9.930208493729143,36.76341001519485
-0.7688541143678201,-5.164090341576703,-1.9496902495243524,-4.155729507954366,-8.182966727214422,36.88141662345556
-0.8204950177835871,-5.245920008848847,-1.9912475446038962,-3.7869153417198103,-6.615291218590862,36.86968162700854
-0.8729542178720756,-5.312072921034756,-2.0291166980210944,-3.418218525449725,-5.235379887145787,36.72473277309231
-0.9260749470824232,-5.364426719906214,-2.063298883275592,-3.050971197718802,-4.047343574230042,36.44999615575358
-0.9797192142814853,-5.404900155648514,-2.09380859525278,-2.686471236161266,-3.051288825010816,36.05442302737001
-1.0337682158379704,-5.435413043898622,-2.1206733076143927,-2.325927005887566,-2.2435739949250135,35.55098205554655
-1.0881223462769567,-5.457848783847872,-2.1439325776732683,-1.9704171853321006,-1.6171535601458646,34.955070450201795
-1.1427008341154354,-5.47402031944933,-2.163636749526589,-1.6208664808300828,-1.161917795140363,34.282876958631476
-1.1974410373099287,-5.485639497400734,-2.1798454143348898,-1.278037711243768,-0.8649310282907505,33.54969983142046
-1.252297432283936,-5.494288807683642,-2.1926257914473273,-0.9425407129295633,-0.7104692148888561,32.768186487634296
-1.3072403203607723,-5.50139349983253,-2.202051198576623,-0.6148588480532203,-0.6797553793122437,31.946423137392316
-1.3622542553590977,-5.508191053625652,-2.2081997870571555,-0.2953946166792972,-0.7502912277293896,31.0857695264769
-1.4173361658953543,-5.515693965902947,-2.2111537332239486,0.015463078585471801,-0.8946924936930449,30.178320700896098
-1.4724931055543837,-5.524640890839877,-2.2109991024380937,0.3172462855944328,-1.0789730262971349,29.20391285219861
-1.5277395144627826,-5.535430621102848,-2.2078266395821493,0.6092854141164189,-1.2603257986201237,28.126727644164163
-1.583093820673811,-5.54803387908905,-2.201733785440985,0.8905526905580605,-1.3846827681011769,26.891879753327075
-1.6385741594647014,-5.5618807067700615,-2.1928282585354046,1.1594714880913313,-1.384791692602829,25.423022603867153
-1.694192966532402,-5.57572862369609,-2.1812335436544914,1.4137017141300028,-1.1803085648153346,23.62308726575328
-1.749950252769363,-5.587531709344243,-2.167096526513191,1.6499325867875356,-0.6824119278127079,21.381687130889322
-1.8058255698628054,-5.59435582862237,-2.150597200645316,1.863749458096429,0.19378143319526536,18.593778534708495
-1.8617691281490292,-5.592418014290417,-2.1319597060643516,2.049687243443514,1.5064538451762202,15.193045670910323
-1.9176933082919334,-5.577353475838655,-2.1114628336299166,2.201617700152617,3.2556400656875013,11.197388501099475
-1.97346684305032,-5.54479707518178,-2.0894466566283905,2.3135915851636115,5.3533498303592895,6.751591506748805
-2.0289148138021376,-5.491263576878187,-2.0663107407767543,2.3811075002310997,7.614498007952204,2.1394961640138628
-2.0838274495709195,-5.415118596798665,-2.0424996657744434,2.4025024618712383,9.786635788393475,-2.260013321969084
-2.1379786355389063,-5.3172522389147305,-2.018474641155731,2.3799023286515473,11.616570931019334,-6.0701864489733275
-2.191151157928054,-5.201086529604537,-1.9946756178692155,2.319200464161814,12.923812116763836,-9.023254383089562
-2.243162023224099,-5.071848408436899,-1.9714836132275975,2.228967920330918,13.641862728082396,-11.020637866313814
-2.293880507308468,-4.935429781156075,-1.9491939340242883,2.11876154166778,13.811010338839022,-12.122707170233005
-2.3432348051200287,-4.7973196777676845,-1.9280063186076104,1.99753446996545,13.538123816004735,-12.490261705632088
-2.3912080018977053,-4.6619384396076375,-1.908030973907956,1.8726318529091293,12.951429960096766,-12.318146899287559
-2.437827386293782,-4.53242414000667,-1.8893046553788646,1.7494503839162536,12.168820979445757,-11.788119410368445
-2.4831516276938483,-4.410735930212213,-1.871810151539702,1.6315691898125693,11.28334326600964,-11.046617285300163
-2.5272589869959705,-4.2979024975521165,-1.8554944596415763,1.5211030169595676,10.36102211676735,-10.200674609990417
-2.5702380119714916,-4.194292276384443,-1.8402834294719808,1.4190962708596635,9.444805601637963,-9.323052888287632
-2.612180934735336,-4.099844220368063,-1.8260924667633842,1.3258657419767872,8.560283922695145,-8.46025068949752
-2.6531793769390166,-4.014241381141112,-1.8128338093436163,1.241263235081812,7.721008150180592,-7.640147676877423
-2.693321790750428,-3.937031299639306,-1.8004211769927982,1.1648617583130378,6.93266300171922,-6.878116117464175
-2.732692103746821,-3.8677046696221136,-1.788772559409668,1.096080597138396,6.196052980942258,-6.181476537885951
-2.771369150443042,-3.805744139812691,-1.777811753438284,1.0342658317595366,5.509118308975885,-5.552570215030127
