th1 (rad),w1 (rad/s),th2 (rad),w2 (rad/s),a1 (rad/s^2),a2 (rad/s^2)
2.95069385926423,-2.30868852512411,2.3011814408291036,2.195212594766354,-2.4798402801183683,-2.101699458730896
2.927606974012989,-2.3334869279252937,2.323133566776767,2.1741956001790452,-2.6515131072377818,-1.8786071501210424
2.904272104733736,-2.3600020589976713,2.344875522778558,2.155409528677835,-2.8393714390170604,-1.6454038819564223
2.880672084143759,-2.388395773387842,2.3664296180653364,2.1389554898582706,-3.042209532248867,-1.4037406543793751
2.8567881264098807,-2.4188178687103306,2.387819172963919,2.1249180833144767,-3.2580989976708854,-1.1564195558357713
2.8325999477227772,-2.4513988586870394,2.409068353797064,2.113353887756119,-3.4842429743742054,-0.9076086971417668
2.808085959135907,-2.4862412884307816,2.430201892674625,2.1042778007847014,-3.7168511976851577,-0.6630284663140457
2.783223546251599,-2.523409800407633,2.451244670682472,2.097647516121561,-3.95106308842471,-0.4300698993365049
2.757989448247523,-2.56292043129188,2.472221145843688,2.0933468171281957,-4.180953882100956,-0.21779452376098363
2.732360243934604,-2.6047299701128894,2.49315461401497,2.0911688718905856,-4.399663755682055,-0.03675778983385199
2.706312944233475,-2.64872660766971,2.514066302733876,2.0908012939922473,-4.5996879809011775,0.10139923540622692
2.679825678156778,-2.6947234874787216,2.5349743156737983,2.0918152863463098,-4.773352717726324,0.18462624850592996
2.652878443281991,-2.742457014655985,2.5558924685372615,2.0936615488313692,-4.913472477331847,0.20140378060353795
2.6254538731354313,-2.791591739429303,2.576829084025575,2.095675586637405,-5.014141557898664,0.14188007934601057
2.597537955741138,-2.84173315500829,2.597785839891949,2.097094387430865,-5.0715597508511765,-0.0009366566617657623
2.569120624191055,-2.8924487525168017,2.6187567837662575,2.097085020864247,-5.084747519079731,-0.23013722719254548
2.540196136665887,-2.943296227707599,2.6397276339749,2.0947836485923217,-5.055988406258238,-0.5442540956592758
2.510763174388811,-2.9938561117701816,2.660675470460823,2.089341107635729,-4.990864576748939,-0.9371814983581782
2.480824613271109,-3.043764757537671,2.6815688815371805,2.079969292652147,-4.897828769532789,-1.398757563551
2.4503869656957322,-3.092743045232999,2.702368574463702,2.065981717016637,-4.787364342921431,-1.9159390263909524
2.4194595352434023,-3.1406166886622136,2.7230283916338682,2.0468223267527277,-4.670888004511959,-2.4743519575848536
2.38805336835678,-3.187325568707333,2.7434966149013955,2.022078807176879,-4.559608595246737,-3.059916607668774
2.3561801126697066,-3.2329216546598007,2.7637174029731644,1.9914796411001914,-4.46354896795297,-3.66025122060386
2.323850896123109,-3.2775571443393305,2.7836321993841664,1.9548771288941529,-4.390873887650117,-4.265648710486426
2.2910753246797153,-3.321465883215832,2.803180970673108,1.9122206417892886,-4.347574792440338,-4.869549607221622
2.257860665847557,-3.364941631140235,2.8223031770910008,1.8635251457170725,-4.33747728960148,-5.46855502596938
2.224211249536155,-3.40831640403625,2.8409384285481716,1.8088395954573786,-4.362483306412725,-6.062100543620898
2.1901280854957923,-3.4519412371003773,2.8590268245027453,1.7482185900211695,-4.422942857062908,-6.651936904874911
2.1556086731247883,-3.4961706656710065,2.876509010402957,1.6816992209724204,-4.518062208486267,-7.241547696136245
2.1206469664680783,-3.541351287755869,2.8933260026126812,1.609283744011058,-4.646281856423762,-7.835597064317836
2.0852334535905195,-3.5878141063201068,2.909418840052792,1.5309277733678794,-4.805586688885458,-8.43945979418447
2.0493553125273185,-3.6358699732089614,2.924728117786471,1.4465331754260347,-4.993734436290685,-9.05885236328468
2.012996612795229,-3.6858073175718684,2.9391934495407313,1.355944651793188,-5.208404281822914,-9.69956089364245
1.9761385396195104,-3.7378913603900976,2.952752896058663,1.2589490428567633,-5.4472758547809175,-10.367249584255893
1.9387596260156095,-3.7923641189379067,2.965342386487231,1.1552765470142043,-5.708051705023955,-11.067328573782799
1.9008359848262304,-3.8494446359881462,2.9768951519573728,1.0446032612763763,-5.988435894207719,-11.804860304382455
1.8623415384663489,-3.9093289949302235,2.9873411845701363,0.9265546582325517,-6.286079258688428,-12.584485969868531
1.8232482485170467,-3.9721897875171077,2.996606731152462,0.8007097985338664,-6.5984993512309655,-13.410356971260635
1.7835263506418757,-4.038174781029418,3.0046138291378006,0.66660622882126,-6.922980714870669,-14.286059611810627
1.7431446028315816,-4.107404588178125,3.011279891426013,0.5237456327031537,-7.256459301226645,-15.2145241850231
1.7020705569498003,-4.179969181190391,3.0165173477530445,0.3716003908529226,-7.595393632980253,-16.19791209629501
1.6602708651378963,-4.255923117520194,3.020233351661574,0.2096212698899725,-7.935624739930075,-17.23747683137954
1.6177116339626945,-4.3352793649194945,3.0223295643604735,0.03724650157617712,-8.27222694348345,-18.33339663622357
1.5743588403134996,-4.418001634354329,3.0227020293762354,-0.14608746478605858,-8.599352188973095,-19.48457891319165
1.5301788239699563,-4.50399515624406,3.021241154728375,-0.34093325391797513,-8.910071790207207,-20.688438760706266
1.4851388724075156,-4.593095874146132,3.017831822189195,-0.5478176415250378,-9.196221109467826,-21.940656935552784
1.4392079136660543,-4.685058085240811,3.0123536457739446,-0.7672242108805656,-9.448254778808742,-23.23492587972449
1.3923573328136463,-4.779540633028898,3.004681403665139,-0.9995734696778105,-9.655122462069277,-24.5626963115726
1.3445619264833573,-4.87609185764959,2.9946856689683607,-1.2452004327935364,-9.804177685841656,-25.91294109557499
1.2958010079068614,-4.974133634508007,2.9822336646404253,-1.5043298437492862,-9.881134678726758,-27.271957390434874
1.2460596715617813,-5.072944981295275,2.9671903662029324,-1.777049417653635,-9.870090118732476,-28.623231988934087
1.1953302217488286,-5.1716458824826,2.949419872026396,-2.063281737542976,-9.753627802487655,-29.947397723317287
1.1436137629240026,-5.2691821605074765,2.9287870546509667,-2.362755714776149,-9.513024099015674,-31.22231015355817
1.090921941318928,-5.364312401497633,2.905159497503205,-2.6749788163117305,-9.128570261663768,-32.42327284174903
1.0372788173039516,-5.455598104114271,2.878409709340088,-2.9992115447292207,-8.580023998199561,-33.52343587059877
0.9827228362628089,-5.541398344096267,2.848417593892796,-3.3344459034352085,-7.847197099440642,-34.49438574064549
0.9273088528218462,-5.619870315090673,2.815073134858444,-3.6793897608416635,-6.910678602808307,-35.306935682100296
0.8711101496709395,-5.688977101118756,2.778279237250027,-4.0324591176626665,-5.752684327194832,-35.93211451732794
0.8142203786597519,-5.746503944390705,2.7379546460734003,-4.391780262835946,-4.358014138106871,-36.342340612730375
0.7567553392158449,-5.790084085771774,2.694036843445041,-4.755203668963249,-2.7150883125819543,-36.512756271825765
0.6988544983581272,-5.817234968897593,2.6464848067554083,-5.120331231681507,-0.8170238025807491,-36.4226878013651
0.6406821486691513,-5.825405206923401,2.595281494438593,-5.484558109695158,1.3373005492292351,-36.05718720938599
0.5824280965999173,-5.8120322014311085,2.5404359133416414,-5.845129981789017,3.742254673588776,-35.408601815537025
0.5243077745856063,-5.774609654695221,2.481984613523751,-6.199215999944387,6.384625464159553,-34.47810605135849
0.46656167803865406,-5.710763400053625,2.419992453524307,-6.543997060457972,9.24304351911362,-33.27711384299705
0.4094540440381178,-5.618332964862489,2.3545524829197273,-6.876768198887943,12.287788769195162,-31.828470560782392
0.3532707143894929,-5.495455077170537,2.285784800930848,-7.195052904495767,15.481108823797728,-30.16730446900823
0.29831616361778757,-5.34064398893256,2.21383427188589,-7.496725949185849,18.778182915080396,-28.34140714315231
0.24490972372846198,-5.152862159781756,2.1388670123940314,-7.780140020617372,22.128839196172795,-26.4110221633321
0.1933811021306444,-4.931573767820027,2.061065612187858,-8.044250242250692,25.48007661813924,-24.447963672961833
0.14406536445244414,-4.676773001638635,1.980623109765351,-8.28872987898031,28.779354513555678,-22.534068664006973
0.0972976344360578,-4.388979456503078,1.897735810975548,-8.514070565620381,31.97850409939511,-20.75910674410838
0.05340783987102701,-4.069194415509127,1.812595105319344,-8.721661633061466,35.03800871917638,-19.218413124760453
0.01271589571593574,-3.718814328317363,1.7253784889887294,-8.91384576430907,37.93132333092083,-18.010647159671926
-0.02447224756723789,-3.339501095008155,1.6362400313456387,-9.093952235905789,40.64888564024846,-17.236176720357307
-0.05786725851731944,-2.9330122386056705,1.5453005089865808,-9.266314003109361,43.201523209077116,-16.99661751221989
-0.08719738090337614,-2.500997006514899,1.4526373689554872,-9.43628017823156,45.623066340078665,-17.39599261010588
-0.11220735096852513,-2.0447663431141123,1.3582745671731717,-9.610240104332618,47.97207799370243,-18.54379449453505
-0.13265501439966626,-1.565045563177088,1.2621721661298455,-9.795678049277969,50.332590549301514,-20.559860274831873
-0.14830547003143715,-1.061719657684073,1.1642153856370658,-10.001276652026288,52.813361460910826,-23.58019847403954
-0.1589226666082779,-0.5335860430749648,1.064202619116803,-10.237078636766684,55.543931220816646,-27.761145836432384
-0.16425852703902755,0.021853269133201625,0.9618318327491362,-10.514690095131009,58.66255649270415,-33.274980562960856
-0.16403999434769553,0.6084788340602432,0.8566849317978261,-10.847439900760618,62.28324509719534,-40.27969850538816
-0.1579552060070931,1.2313112850321966,0.74821053279022,-11.2502368858145,66.41063355692698,-48.82060918702566
-0.14564209315677112,1.8954176206014663,0.635708163932075,-11.738442977684757,70.73061518806432,-58.56491863205822
-0.12668791695075646,2.6027237724821095,0.5183237341552274,-12.32409216400534,74.12975373407718,-68.16439629503385
-0.10066067922593536,3.3440213098228813,0.39508281251517396,-13.005736126955679,73.74210617018844,-73.95589890742109
-0.06722046612770655,4.081442371524766,0.26502545124561716,-13.74529511602989,63.72380209765983,-68.2391830650441
-0.02640604241245889,4.718680392501364,0.12757250008531826,-14.427686946680332,36.19802335501622,-40.43152199076469
0.02078076151255475,5.080660626051526,-0.016704369381485062,-14.832002166587978,-9.768195082497643,10.892409585971285
0.07158736777307001,4.9829786752265495,-0.16502439104736485,-14.723078070728265,-56.34218101087875,62.20269377693537
0.1214171545253355,4.419556865117762,-0.3122551717546475,-14.101051132958911,-81.68411857605909,85.34079746132234
0.16561272317651313,3.6027156793571713,-0.45326568308423665,-13.247643158345689,-85.7970589486559,81.70543163531312
0.20163987997008484,2.7447450898706123,-0.5857421146676935,-12.430588841992558,-80.55597999305645,67.6038164459939
0.22908733086879096,1.9391852899400477,-0.7100480030876192,-11.754550677532619,-73.59209975107754,52.87829226245267
0.24847918376819145,1.2032642924292722,-0.8275935098629453,-11.225767754908091,-67.48627392343175,40.53174144549102
0.2605118266924842,0.5284015531949547,-0.9398511874120262,-10.820450340453181,-62.68143299544747,30.865372804602465
0.26579584222443375,-0.09841277675951998,-1.0480556908165581,-10.511796612407156,-58.99446020184795,23.492693348226734
0.26481171445683854,-0.6883573787779995,-1.1531736569406297,-10.27686967892489,-56.124202351789535,17.969114348928475
0.25792814066905856,-1.2495994022958947,-1.2559423537298786,-10.097178535435605,-53.79018667624346,13.937614703721458
0.2454321466460996,-1.7875012690583292,-1.3569141390842347,-9.95780238839839,-51.759736091185395,11.137523851760427
0.22755713395551633,-2.305098629970183,-1.4564921629682186,-9.846427149880785,-49.84622409825511,9.382316321485405
0.20450614765581449,-2.8035608709527344,-1.5549564344670264,-9.752603986665932,-47.90260012291642,8.535167253789965
0.17647053894628714,-3.2825868721818985,-1.6524824743336857,-9.667252314128032,-45.81628596476453,8.488785947591927
0.14364467022446814,-3.7407497318295437,-1.749154997474966,-9.582364454652112,-43.50619383736942,9.150239670563856
0.10623717290617271,-4.175811670203238,-1.844978642021487,-9.490862057946472,-40.92113088544548,10.430299613652105
0.06447905620414032,-4.585022979057693,-1.9398872626009518,-9.386559061809951,-38.038567755886895,12.236789875625973
0.018628826413563393,-4.965408656616562,-2.033752853219051,-9.264191163053692,-34.86287591920278,14.471492927703205
-0.03102526015260223,-5.31403741580859,-2.126394764849588,-9.119476233776659,-31.422447595127448,17.030116276969395
-0.08416563431068813,-5.628261891759864,-2.2175895271873545,-8.949175071006966,-27.76550617420369,19.804661160695833
-0.14044825322828677,-5.905916953501901,-2.3070812778974243,-8.751128459400007,-23.95480981136713,22.68734823030887
-0.1995074227633058,-6.145465051615572,-2.3945925624914244,-8.524254977096918,-20.061758505754383,25.57515350685859
-0.2609620732794615,-6.346082636673116,-2.4798351122623936,-8.268503442028333,-16.160566026256014,28.37406090257964
-0.3244228996461927,-6.507688296935676,-2.562520146682677,-7.984762833002536,-12.323128220371553,31.00235244541515
-0.38949978261554946,-6.630919579139391,-2.642367775012702,-7.674739308548385,-8.615039341355473,33.39257857166349
-0.45580897840694334,-6.717069972552946,-2.719115168098186,-7.34081352283175,-5.092949993379427,35.492187706957594
-0.5229796781324728,-6.76799947248674,-2.7925233033265036,-6.985891645762174,-1.8032074306983492,37.26305963925651
-0.5906596728573402,-6.786031546793724,-2.8623822197841253,-6.6132610493696085,1.2184640281883274,38.680328498188004
-0.6585199883252775,-6.7738469065118405,-2.9285148302778214,-6.226457764387728,3.946568568477162,39.73089228124871
-0.7262584573903959,-6.734381220827069,-2.990779407921699,-5.8291488415752415,6.36504750045384,40.41191837106058
-0.7936022695986665,-6.67073074582253,-3.0490708963374513,-5.425029657864636,8.46633572745058,40.7295184566186
-0.8603095770568918,-6.586067388548024,-3.1033211929160975,-5.01773447329845,10.250412650335893,40.697630838063354
-0.926170250942372,-6.483563262044665,-3.153498537649082,-4.610758164917817,11.723902336297392,40.33704843365333
-0.9910058835628187,-6.366324238681691,-3.1996061192982603,-4.2073876805812835,12.89921304407665,39.674483195517816
-1.0546691259496357,-6.237332108240924,-3.241679996104073,-3.8106428486261055,13.793675922836076,38.74156085384043
-1.117042447032045,-6.099395349012563,-3.279786424590334,-3.423227240087701,14.428643441637865,37.57368028045399
-1.1780364005221706,-5.955108914596185,-3.3140186969912113,-3.047490437283161,14.828529588703077,36.20872960984175
-1.2375874896681325,-5.806823618709154,-3.344493601364043,-2.6854031411847434,15.019803421894295,34.68570704456289
-1.295655725855224,-5.656625584490211,-3.3713476327758904,-2.3385460707391146,15.029973847619843,33.04333335663911
-1.352221981700126,-5.506325846014012,-3.3947330934832816,-2.0081127371727234,14.886619116929245,31.318758265786148
-1.407285240160266,-5.357459654844719,-3.4148142208550087,-1.6949251545148618,14.616516785454547,29.546454484680204
-1.460859836708713,-5.211294486990174,-3.4317634724001573,-1.3994606096680597,14.244920314856355,27.7573673199335
-1.512972781578615,-5.06884528384161,-3.445758078496838,-1.1218869364687247,13.795011280411774,25.97835311093363
-1.563661234417031,-4.930895171037492,-3.4569769478615253,-0.8621034053593885,13.287536306139085,24.231905125316725
-1.612970186127406,-4.798019807976101,-3.4655979819151193,-0.6197843541062212,12.740619713333457,22.53613724224662
-1.660950384207167,-4.670613610842767,-3.4717958254561814,-0.394422981683755,12.169729248545307,20.90497719875602
-1.7076565203155947,-4.548916318357314,-3.475740055273019,-0.1853732096961948,11.587764256161151,19.34851282713495
-1.7531456834991679,-4.433038675795703,-3.477593787369981,0.008111918575154697,11.005232991670201,17.873435010754125
-1.7974760702571249,-4.322986345879,-3.477512668184229,0.18684626868269597,10.430487293208667,16.483527454343523
-1.8407059337159148,-4.218681472946914,-3.475644205497402,0.3516815432261312,9.869987077740104,15.180163081621213
-1.882892748445384,-4.119981602169513,-3.472127390065141,0.5034831740423433,9.328572714265023,13.962777637895682
-1.924092564467079,-4.026695875026863,-3.4670925583247176,0.6431109504213002,8.80972915396153,12.829301257865337
-1.9643595232173476,-3.9385985834872472,-3.4606614488205047,0.7714039629999536,8.315831035239109,11.77653741310901
-2.0037455090522203,-3.8554402731348563,-3.452947409190505,0.8891693371310437,7.848362435717257,10.800485395540534
-2.042299911783569,-3.776956648777684,-3.4440557158191947,0.9971741910864491,7.408108377717963,9.896607329708022
-2.0800694782713456,-3.7028755650005043,-3.43408397390833,1.0961402643835294,6.9953176449679715,9.060043873968835
-2.1170982339213507,-3.6329223885508246,-3.423122571264495,1.1867407031232178,6.609838066419002,8.285784604196456
-2.153427457806859,-3.5668240078866345,-3.4112551642332627,1.2695985491651824,6.251226336670503,7.568799923289065
-2.1890956978857252,-3.504311744519929,-3.398559178741611,1.3452865483980732,5.918834840928073,6.904141518358506
-2.2241388153309245,-3.4451233961106484,-3.38510631325763,1.4143279635816581,5.611877987042638,6.287018148469562
-2.2585900492920308,-3.389004616240222,-3.3709630336218135,1.4771981450663538,5.329480343845289,5.712853076958864
-2.292480095454433,-3.335709812801769,-3.35619105217115,1.5343266758359424,5.070708544996181,5.177328888991045
-2.325837193582451,-3.285002727351807,-3.3408477854127905,1.586099964725853,4.834588522963937,4.676424826470925
-2.358687220855969,-3.236656842122168,-3.3249867857655317,1.6328642129905622,4.620109259059744,4.206451148747037
-2.3910537892771906,-3.1904557495315706,-3.308658143635626,1.6749287244780326,4.42621393989534,3.764084364579728
-2.422958346772506,-3.146193610132617,-3.2919088563908456,1.71256956812383,4.251779269540373,3.346406414353709
-2.454420282873832,-3.1036758174372134,-3.274783160709607,1.746033632267367,4.095583780184163,2.9509499119199987
-2.485457041048204,-3.062719979635372,-3.2573228243869337,1.775543131386567,3.956266400837282,2.575750257134735
-2.516084240844558,-3.023157315626999,-3.239567393073068,1.8013006339579145,3.8322773713760596,2.2194036706238895
-2.546315814000828,-2.9848345419132385,-3.2215543867334886,1.8234946706641535,3.7218248929409383,1.8811278778610887
-2.5761641594199602,-2.947616292983829,-3.203319440026847,1.8423059494427645,3.622822688324965,1.5608192634146614
-2.6056403223497986,-2.9113880661005798,-3.1848963805324195,1.8579141420769112,3.5328457925255408,1.2590969791223874
-2.634754203010804,-2.8760596081753245,-3.1663172391116503,1.870505111868135,3.4491041059351386,0.9773211337345339
-2.6635147990925576,-2.841568567115973,-3.147612187992969,1.8802783232054805,3.3684449869790454,0.7175695630815897
-2.6919304847637173,-2.8078841172461826,-3.128809404760914,1.8874540188362965,3.287396667097979,0.48255686176102003
-2.720009325936179,-2.775010150575203,-3.1099348645725513,1.8922795874539067,3.202262632971947,0.27548162410918065
-2.747759427441931,-2.7429875242454833,-3.0910120686980123,1.8950344036949984,3.1092725413862587,0.09979431295625135
-2.7751893026843857,-2.711894798831621,-3.0720617246610624,1.896032346824561,3.0047874031564805,-0.041110727686425576
-2.8023082506727017,-2.6818469248000563,-3.0531014011928166,1.8956212395476968,2.8855462978049817,-0.1442607473133719
-2.829126719920702,-2.6529914618220065,-3.0341451887973396,1.894178632074563,2.7489305411651386,-0.20749311718851218
-2.855656634538922,-2.6255021564103553,-3.015203402476594,1.892103700902678,2.593211846495824,-0.22981921901188948
-2.881911656103026,-2.599570037945397,-2.996282365467567,1.8898055087125591,2.417746774245304,-0.2117100649912402
-2.9079073564824798,-2.575392570202944,-2.9773843103804416,1.8876884080626468,2.2230830613961836,-0.15525482128113285
