th1 (rad),w1 (rad/s),th2 (rad),w2 (rad/s),a1 (rad/s^2),a2 (rad/s^2)
5.995905220020951,-2.4254419451328513,4.715828912843864,2.7150761789262874,-3.093755019034246,16.322656808186046
5.9716508005696225,-2.4563794953231937,4.742979674633126,2.878302747008148,-3.703372922529865,16.721963276250676
5.947087005616391,-2.493413224548492,4.771762702103207,3.0455223797706545,-4.360620790531642,17.199874433617733
5.922152873370906,-2.5370194324538087,4.802217925900914,3.217521124106832,-5.0669575583202615,17.76165335357632
5.8967826790463675,-2.587689008037011,4.834393137141983,3.395137657642595,-5.822316968536108,18.410592330170836
5.870905788965997,-2.6459121777223724,4.868344513718409,3.5792435809443033,-6.6237793309331385,19.146300710554936
5.844446667188773,-2.7121499710317036,4.904136949527852,3.7707065880498525,-7.463457747752407,19.961927604193804
5.817325167478456,-2.7867845485092277,4.941844015408351,3.9703258640917904,-8.325197809693574,20.839763692958524
5.789457321993364,-2.8700365266061634,4.981547274049269,4.178723501021375,-9.1795515120942,21.744469536533263
5.7607569567273025,-2.9618320417271056,5.023334509059483,4.396168196386708,-9.976402092582362,22.613050849458432
5.731138636310032,-3.0615960626529293,5.06729619102335,4.622298704881293,-10.634782148472974,23.340912578731057
5.700522675683502,-3.167943884137659,5.1135191780721625,4.855707830668603,-11.030297836782621,23.764502363691875
5.668843236842125,-3.278246862505485,5.162076256378849,5.093352854305522,-10.983016825481503,23.644408487318756
5.636060768217071,-3.3880770307603,5.213009784921904,5.329796939178709,-10.253880071089313,22.659960969171763
5.6021799979094675,-3.4906158314711933,5.266307754313691,5.556396548870427,-8.565900017527872,20.437757890248925
5.567273839594756,-3.576274831646472,5.321871719802395,5.760774127772916,-5.672962687529819,16.645674440880775
5.531511091278291,-3.63300445852177,5.379479461080124,5.927230872181724,-1.4885464361206762,11.169404846526794
5.495181046693073,-3.647889922882977,5.438751769801941,6.038924920646992,3.7625042081602,4.3204273623253675
5.458702147464243,-3.610264880801375,5.499141019008411,6.082129194270246,9.482187668900284,-3.0811144859702617
5.422599498656229,-3.515443004112372,5.559962310951113,6.051318049410543,14.848709286478297,-9.91540327023385
5.387445068615105,-3.3669559112475893,5.620475491445219,5.952164016708205,19.14229648478599,-15.213278268913847
5.353775509502629,-3.1755329463997293,5.679997131612301,5.800031234019067,22.019183706776026,-18.53022017094134
5.322020180038632,-2.955341109331969,5.737997443952492,5.614729032309653,23.54343384029202,-19.98290874050444
5.292466768945313,-2.719906770929049,5.794144734275588,5.414899944904609,24.021690518701703,-20.01545456604058
5.265267701236023,-2.479689865742032,5.848293733724634,5.214745399244203,23.812807539698113,-19.135356772627635
5.240470802578602,-2.2415617903450507,5.900441187717076,5.023391831517927,23.216587771962654,-17.76191357575962
5.218055184675151,-2.009395912625424,5.950675106032255,4.84577269576033,22.442494959900632,-16.18589513882187
5.197961225548897,-1.784970963026418,5.999132832989859,4.683913744372112,21.620369340931074,-14.586627092754988
5.180111515918633,-1.568767269617107,6.0459719704335795,4.538047473444562,20.822932456478817,-13.064449179704082
5.164423843222462,-1.360537945052319,6.091352445168025,4.407402981647522,20.086229508822388,-11.66961870628913
5.150818463771938,-1.159675649964095,6.1354264749845,4.29070679458463,19.424381833985407,-10.42292728784032
5.139221707272298,-0.965431831624241,6.178333542930345,4.186477521706227,18.839132023076864,-9.328902839251432
5.129567388956056,-0.7770405113934723,6.220198318147408,4.093188493313712,18.32564614968751,-8.383740012132906
5.1217969838421205,-0.5937840498965972,6.261130203080545,4.009351093192383,17.87589767464255,-7.579850040636942
5.115859143343155,-0.4150250731501717,6.301223714012469,3.9335525927860138,17.480576185983573,-6.908360362311954
5.111708892611653,-0.24021931129033594,6.340559239940329,3.8644689891628943,17.130127982119625,-6.360412867229556
5.10930669949875,-0.06891803146913969,6.379203929831958,3.8008648604905986,16.815299406857932,-5.927775624455501
5.108617519184058,0.09923496259943962,6.417212578436864,3.7415871042460433,16.52740295222133,-5.603071434931878
5.109609868810052,0.2645089921216529,6.4546284494793245,3.6855563898967247,16.25843412962482,-5.3797987294413385
5.112254958731269,0.4270933334179011,6.491484013378292,3.6317584026023115,16.001112372899726,-5.252245071277664
5.1165258920654475,0.5871044571468984,6.5278015974043155,3.579235951889535,15.74888710052243,-5.215349940063353
5.122396936636917,0.7445933281521226,6.563593956923211,3.5270824524889015,15.49593132286928,-5.2645485480380225
5.129842869918438,0.8995526413808155,6.5988647814481,3.474436967008521,15.237134285247931,-5.395614360384633
5.138838396332246,1.0519239842332948,6.633609151118185,3.4204808234046746,14.968098316446534,-5.60451015570033
5.149357636174579,1.2016049673977602,6.667813959352232,3.3644357218476713,14.685141399041266,-5.887253186120262
5.161373685848557,1.348456381388173,6.701458316570709,3.3055631899864686,14.385304889631833,-6.239797717139757
5.174858249662439,1.4923094302844913,6.734513948470574,3.243165212815071,14.066364661278609,-6.657937037870205
5.189781343965284,1.6329730768972774,6.766945600598724,3.1765858424363693,13.726843354561863,-7.137226407781599
5.206111074734257,1.7702415104428961,6.798711459023088,3.1052135783585535,13.366021201171069,-7.672928043714321
5.223813489838686,1.9039017224546069,6.829763594806673,3.0284842979214104,12.9839429060203,-8.25997898067359
5.242852507063232,2.03374115151481,6.8600484377858875,2.9458845081146743,12.581418270665939,-8.892982369736488
5.26318991857838,2.1595553342214693,6.889507282867034,2.8569546844173095,12.160014568813406,-9.56622246137471
5.2847854719205944,2.281155479909603,6.9180768297112065,2.7612924598035624,11.722039114473795,-10.27370314569737
5.307597026719691,2.3983758710543412,6.945689754309242,2.6585554283465886,11.2705109727793,-11.009209482033922
5.331580785430234,2.5110809807821344,6.9722753085927085,2.548463333526249,10.809121334508083,-11.766391157896894
5.356691595238056,2.619172194127215,6.997759941927971,2.43079942194728,10.342182692143298,-12.538866286480145
5.382883317179328,2.722594021048648,7.022067936147443,2.305410759082479,9.874567602853128,-13.320343401720503
5.410109257389815,2.8213396970771796,7.045122043738267,2.1722073250652736,9.411638486675836,-14.104758964597906
5.4383226543605865,2.915456081943938,7.0668441169889205,2.0311597354192945,8.959170568724891,-14.886427183632279
5.4674772151800255,3.005047787631187,7.087155714343114,1.8822954635829716,8.523270710549571,-15.660198512977846
5.4975276930563375,3.090280494736683,7.105978668978944,1.7256934784531932,8.110295460270487,-16.421622865671303
5.528430498003704,3.171383449339388,7.123235603763476,1.5614772497964802,7.726772149420412,-17.16711341280141
5.5601443324970985,3.248651170833592,7.13885037626144,1.389806115668466,7.379327235535382,-17.894106872985855
5.592630844205434,3.322444443188946,7.152748437418125,1.2108650469386075,7.074626286449575,-18.60121645707846
5.625855288637323,3.3931907060534416,7.164857087887511,1.024852882367823,6.819329972254217,-19.288374116985022
5.659787195697858,3.461384005775984,7.175105616711189,0.8319691411979727,6.620070113330756,-19.95695940149156
5.694401035755617,3.5275847069092916,7.1834253081231685,0.6323995471830571,6.483449150753683,-20.609912917083758
5.72967688282471,3.5924191984168283,7.189749303594999,0.4263004180122195,6.416065245413916,-21.251832887574736
5.765601074808878,3.6565798508709677,7.194012307775121,0.21378208913647215,6.424563385357079,-21.889053197544637
5.802166873317588,3.7208254847245383,7.196150128666486,-0.005108442838974242,6.5157100502248655,-22.529699931783338
5.839375128164833,3.7859825852267868,7.196099044238096,-0.2304054421568076,6.696484537548428,-23.18371971885278
5.8772349540171005,3.852947430602271,7.193794989816528,-0.46224263934533544,6.974172901544724,-23.862865404759578
5.915764428323123,3.9226891596177182,7.1891725634230745,-0.7008712933929312,7.356438645614193,-24.58060981856686
5.9549913199193005,3.99625354607386,7.182163850489145,-0.9466773915785998,7.851324438962754,-25.351931755507923
5.994953855380039,4.074766790463488,7.172697076573359,-1.200196709133679,8.467105307752647,-26.1928715111244
6.035701523284675,4.159437843541014,7.160695109482022,-1.462125424244923,9.211855950601464,-27.119672366593118
6.077295901720085,4.251556403047029,7.146073855239573,-1.7333221479108543,10.092496322063877,-28.14718611083207
6.119811465750555,4.352481366267668,7.128740633760464,-2.014794009019175,11.112913573238211,-29.285987731364784
6.163336279413231,4.46361050200005,7.108592693670272,-2.307653886332823,12.270484875954338,-30.537261404772188
6.207972384433232,4.586315350759593,7.085516154806944,-2.6130265003805446,13.549894654176201,-31.88391786852857
6.2538355379408275,4.721814297301355,7.0593858898031385,-2.9318656790658304,14.912519503424427,-33.27553927779964
6.301053680913841,4.8709394923356,7.03006723301248,-3.264621071843827,16.27893701654292,-34.603754357739284
6.349763075837197,5.033728862501029,6.997421022294042,-3.6106586154212197,17.501829528295264,-35.66427093253154
6.400100364462207,5.208747157783981,6.96131443613983,-3.967301324746535,18.328418675326176,-36.10445423467048
6.452187836040047,5.392031344537243,6.921641422892365,-4.3283458670932395,18.359822110929684,-35.36699968327335
6.50610814948542,5.57562956564654,6.878357964221433,-4.682015863925973,17.036749917785226,-32.67126607044873
6.561864445141885,5.745997064824393,6.831537805582173,-5.0087285246304605,13.720324736157282,-27.129147301386997
6.619324415790129,5.8832003121859655,6.781450520335869,-5.28001999764433,7.963356942858237,-18.129337045351157
6.678156418911989,5.962833881614548,6.728650320359426,-5.461313368097842,-0.02676296638977838,-5.9904386722545695
6.737784757728135,5.96256625195065,6.674037186678448,-5.521217754820388,-9.045901406313929,7.558792312441966
6.797410420247641,5.872107237887511,6.618825009130244,-5.4456298316959675,-17.21632373045802,19.839895331568616
6.856131492626516,5.699944000582931,6.564368710813285,-5.2472308783802815,-22.988884519868346,28.64317737327541
6.913130932632345,5.470055155384248,6.511896402029482,-4.960799104647528,-25.917017607570877,33.322793449914315
6.9678314841861875,5.210884979308539,6.462288410983007,-4.627571170148385,-26.522794745057542,34.6091422533652
7.019940333979273,4.945657031857964,6.416012699281523,-4.281479747614733,-25.66649797535127,33.718574199058715
7.069396904297852,4.688992052104451,6.3731979018053755,-3.944294005624146,-24.08504047084787,31.699331023324003
7.116286824818896,4.448141647395973,6.333754961749134,-3.6273006953909057,-22.25777502219925,29.238929320999034
7.160768241292856,4.225563897173981,6.297481954795225,-3.334911402180915,-20.447247516133803,26.719237710704743
7.203023880264595,4.021091422012643,6.264132840773416,-3.0677190250738677,-18.776933131826127,24.32488778684113
7.243234794484722,3.8333220906943817,6.233455650522678,-2.8244701472054565,-17.292757219804972,22.12964625293099
7.281568015391666,3.660394518496332,6.205210949050623,-2.603173684676147,-16.001383917772067,20.15045893807088
7.318171960576629,3.500380679318611,6.179179212203862,-2.4016690952954383,-14.891491694999566,18.37767643214343
7.353175767369815,3.3514657623686155,6.155162521250908,-2.2178923309740037,-13.944809066518284,16.790877548705772
7.3866904249935015,3.2120176717034328,6.132983597941168,-2.049983555486946,-13.141515432040636,15.366726014214183
7.418810601710536,3.0806025173830265,6.112483762386298,-1.896316295344804,-12.462693542496451,14.082629434220044
7.449616626884366,2.9559755819580618,6.09352059943285,-1.7554900010026036,-11.891295720268298,12.918260289686865
7.4791763827039475,2.837062624755379,6.075965699422824,-1.626307398105735,-11.412390700274042,11.856024808791885
7.5075470089515015,2.7229387177526387,6.0597026254417665,-1.5077471500178161,-11.013083572963847,10.881039332572449
7.534776396129028,2.612807882023,6.044625153941588,-1.3989367566920916,-10.682305063888915,9.980896860670724
7.560904474949258,2.505984831384111,6.030635786374668,-1.2991277880853844,-10.410565144094978,9.145362891507752
7.5859643232630996,2.4018791799431614,6.017644508493814,-1.2076741591703068,-10.189714425363906,8.366066104229072
7.609983115062531,2.2999820356895224,6.005567766902111,-1.124013498128016,-10.012730993827901,7.636212268018192
7.632982935419426,2.1998547257512433,5.9943276319208305,-1.0476513754478343,-9.873537772592096,6.950331420221669
7.654981482676938,2.1011193480253225,5.983851118166352,-0.9781480612456176,-9.766849693131558,6.304059669078176
7.675992676157191,2.003450851094007,5.974069637553896,-0.9151074645548358,-9.688047541855733,5.693953189451871
7.6960271846681305,1.9065703756754495,5.964918562908347,-0.8581679326603171,-9.63307460298786,5.117330621844689
7.715092888424885,1.810239629645571,5.956336883581744,-0.8069946264418703,-9.598352255810957,4.572139881646827
7.733195284721341,1.7142561070874613,5.948266937317325,-0.761273227625402,-9.580711055026226,4.056845686268917
7.750337845792216,1.618448996537199,5.940654205041072,-0.7207047707627128,-9.577334305678084,3.5703345872840555
7.766522335757588,1.5226756534804182,5.933447157333444,-0.6850014248898723,-9.585711633640587,3.111834797255567
7.781749092292392,1.4268185371440123,5.926597143084545,-0.6538830769173166,-9.603600503092245,2.680848558197102
7.796017277663832,1.33078253211309,5.920058312315372,-0.6270745913353456,-9.628994027195482,2.2770951864705578
7.809325102984963,1.2344925918411351,5.913787566402019,-0.60430363947064,-9.660093754815204,1.9004632447446774
7.821670028903374,1.1378916542929831,5.907744530007312,-0.5852990070231933,-9.695286398204155,1.5509705424283324
7.833048945446304,1.0409387903109415,5.90189153993708,-0.56978930159891,-9.733123700099597,1.2287308623143618
7.843458333349414,0.9436075533099455,5.896193646921091,-0.5575019929757663,-9.77230483003542,0.933926464067219
7.852894408882514,0.8458845050095913,5.890618626991333,-0.5481627283350942,-9.811660854975994,0.6667855347666116
7.861353253932609,0.7477678964598314,5.885136999707982,-0.541494872987428,-9.850140954113932,0.4275638515706195
7.8688309328972075,0.6492664869186922,5.879722050978108,-0.5372192344717218,-9.886800146671764,0.21652999863313724
7.8753235977663945,0.5503984854519746,5.874349858633391,-0.5350539344853904,-9.920788379006945,0.03395354510244943
7.880827582620914,0.4511906016619051,5.868999319288537,-0.5347143990343659,-9.951340876876069,-0.11990435260510725
7.885339488637533,0.3516771928931444,5.863652175298193,-0.535913442560417,-9.977769713497775,-0.24479841007126565
7.888856260566465,0.25189949575816667,5.858293040872589,-0.5383614266611296,-9.999456576741203,-0.3405051737945353
7.891375255524046,0.15190492999075464,5.852909426605978,-0.541766478399075,-10.015846741616947,-0.40682787201138837
7.892894304823954,0.051746462574585164,5.847491761821987,-0.5458347571191888,-10.026444269134062,-0.4436005046342215
7.8934117694497,-0.048517980116755455,5.842033414250794,-0.5502707621655311,-10.03080846102308,-0.4506914745757466
7.892926589648533,-0.14882606472698626,5.836530706629139,-0.5547776769112885,-10.028551602990346,-0.42800701728706764
7.891438329001263,-0.24911158075688972,5.830982929860026,-0.5590577470841592,-10.019338027938893,-0.37549463886356377
7.888947213193694,-0.34930496103627867,5.825392352389184,-0.5628126934727948,-10.002884525570058,-0.2931467250356614
7.885454163583331,-0.4493338062919793,5.819764225454456,-0.5657441607231515,-9.978962116346727,-0.18100443320439172
7.880960825520411,-0.5491234274554465,5.814106783847224,-0.5675542050551954,-9.947399196155628,-0.03916192683276299
7.8754695912458565,-0.6485974194170028,5.808431241796672,-0.567945824323523,-9.908086043240091,0.13222904458772877
7.868983617051686,-0.7476782798494037,5.802751783553437,-0.5666235338776457,-9.860980661131892,0.33295427657832394
7.861506834253192,-0.8462880864607226,5.79708554821466,-0.5632939911118625,-9.80611591047724,0.5627320721200628
7.8530439533885845,-0.944349245565495,5.791452608303541,-0.5576666703906619,-9.743607859046731,0.8212082237722871
7.8436004609329295,-1.0417853241559625,5.785875941599635,-0.549454588152939,-9.673665253295137,1.1079512753161531
7.83318260769137,-1.1385219766889139,5.780381395718106,-0.5383750753997775,-9.596599987384995,1.4224483972801776
7.821797387924481,-1.2344879765627639,5.774997644964108,-0.5241505914269757,-9.512838417838534,1.7641022867557026
7.809452508158853,-1.3296163607411493,5.769756139049838,-0.5065095685594188,-9.422933345697263,2.1322295775241265
7.7961563445514415,-1.423845694198122,5.764691043364245,-0.4851872727841775,-9.32757646560964,2.526061319089976
7.781917887609461,-1.5171214588542183,5.759839170636403,-0.4599266595932777,-9.227611065633265,2.9447461495938807
7.7667466730209185,-1.609397569510551,5.7552399040404705,-0.4304791980973389,-9.124044756351857,3.387356844237858
7.750652697325813,-1.7006380170740694,5.750935112059497,-0.3966056296549603,-9.018062017343588,3.852900964169235
7.733646317155072,-1.7908186372475052,5.746969055762947,-0.35807662001326795,-8.911036377684248,4.340336357429066
7.715738130782597,-1.8799290010243477,5.743388289562814,-0.3146732564389773,-8.80454209981445,4.84859227111156
7.696938840772353,-1.9679744220224922,5.740241556998424,-0.26618733372786174,-8.700365317460578,5.376596821316091
7.677259096552128,-2.054978075197098,5.737579683661146,-0.21242136551470084,-8.600514692697248,5.923311535990793
7.656709315800158,-2.1409832221240706,5.7354554700059985,-0.1531882501547929,-8.507231808271564,6.487773639418212
7.635299483578917,-2.226055540206786,5.73392358750445,-0.08831051376061078,-8.4230017015391,7.069146693389728
7.61303892817685,-2.310285557222177,5.733040482366844,-0.017619046826713503,-8.350564177077713,7.666780160409828
7.589936072604628,-2.3937911989929543,5.732864291898577,0.059048754777384777,-8.292926806123603,8.280278423793957
7.565998160614698,-2.4767204670541902,5.73345477944635,0.14185153901532435,-8.253380830832208,8.909579806905757
7.541230955944156,-2.5592542753625125,5.734873294836503,0.23094733708438192,-8.235521536943876,9.555046199867531
7.515638413190532,-2.6416094907319514,5.737182768207347,0.3264977990830572,-8.24327503500135,10.217564047745556
7.489222318283212,-2.724042241081965,5.7404477461981775,0.42867343956051274,-8.280933790660166,10.898657696715583
7.461981895872392,-2.8068515789885664,5.744734480593783,0.5376600165276686,-8.353203657166668,11.600616441743604
7.433913380082506,-2.890383615560233,5.750111080759059,0.6536661809451046,-8.465265566764616,12.326637059167545
7.405009543926904,-2.975036271227879,5.756647742568511,0.7769325515367801,-8.622855392479734,13.0809840924378
7.375259181214625,-3.0612648251526764,5.764417068083879,0.9077423924611581,-8.8323657188413,13.869170576049445
7.3446465329630986,-3.1495884823410893,5.77349449200849,1.0464340982216525,-9.100973206185781,14.698162000615405
7.313150648139688,-3.2405982144029473,5.783958832990707,1.1934157182278065,-9.436794602109883,15.576605697532171
7.280744665995658,-3.334966160424046,5.795892990172985,1.349181775203128,-9.84907268110777,16.515085623705843
7.247395004391418,-3.4334568872351237,5.809384807925016,1.5143326314401866,-10.348389415088151,17.526397213922507
7.213060435519067,-3.536940781386005,5.824528134239419,1.6895966035794117,-10.94689549943988,18.62582569009263
7.177691027705206,-3.646409736380404,5.841424100275213,1.875854860480338,-11.658529261198638,19.831388699919618
7.141226930341403,-3.7629950289923904,5.860182648880016,2.074168747479534,-12.49916703181727,21.16396063952707
7.103596980051479,-3.887986699310563,5.880924336354812,2.285808353874805,-13.486588415055268,22.64711342175348
