th1 (rad),w1 (rad/s),th2 (rad),w2 (rad/s)
1.8453739926466812,-1.5084947195743625,1.624786017855396,1.7333203427235697
1.8302890454509375,-1.608319469070408,1.6421192212826317,1.737848024524146
1.8142058507602334,-1.7086249447998512,1.6594977015278731,1.7434707865471322
1.797119601312235,-1.8091404361837433,1.6769324093933444,1.7496696047486224
1.7790281969503976,-1.9095199061230004,1.6944291054408307,1.755800668925425
1.7599329978891676,-2.0093439457676046,1.711987112130085,1.7610967454604312
1.7398395584314916,-2.108127720957532,1.7295980795846893,1.7646772412169762
1.7187582812219162,-2.205335982548388,1.747244851996859,1.7655686362034064
1.6967049213964323,-2.300405468076411,1.7649005383588932,1.7627359077114613
1.673700866715668,-2.3927738934017473,1.7825278974360077,1.755123963113472
1.6497731277816505,-2.4819133705929723,1.8000791370671425,1.7417061403855996
1.6249539940757207,-2.5673647962817276,1.8174961984709985,1.721534953317647
1.5992803461129035,-2.648768930326597,1.834711548004175,1.6937890187295328
1.5727926568096375,-2.725889881809147,1.8516494381914703,1.6578100174669688
1.545533757991546,-2.798627682715193,1.86822753836614,1.6131248299378307
1.517547481164394,-2.8670183876825845,1.8843587866655183,1.5594504247434435
1.4888772972875683,-2.931222233345823,1.8999532909129526,1.4966820304912454
1.45956507495411,-2.9915022501171924,1.914920111217865,1.4248677788317643
1.429650052452938,-3.0481968812160254,1.9291687890061828,1.344174711205123
1.3991680836407778,-3.101690440503281,1.942610536118234,1.2548515121303767
1.368151179235745,-3.152384740571979,1.9551590512395378,1.1571927041236787
1.3366273318300252,-3.20067424741458,1.9667309782807747,1.0515077258966243
1.3046205893558795,-3.2469260122368575,1.9772460555397409,0.9380967949722046
1.272151329233511,-3.2914646622044494,1.986627023489463,0.8172341046640029
1.2392366826114665,-3.334562040663396,1.994799364536103,0.6891579250314599
1.2058910622048324,-3.3764306983318444,2.001690943786418,0.554066607891985
1.172126755221514,-3.417220300964266,2.0072316098653378,0.41211927297168205
1.1379545522118713,-3.457016057545162,2.0113528025950544,0.26343996891693977
1.1033843916364197,-3.495838409745654,2.013987202284224,0.10812425361635461
1.068426007538963,-3.533643399255639,2.0150684448203875,-0.053752659125825386
1.0330895735464067,-3.570323306683483,2.0145309182291293,-0.22212683870343303
0.9973863404795719,-3.605707313769624,2.012309649842095,-0.396936144664111
0.9613292673418756,-3.639562071894149,2.0083402883954538,-0.578110655593143
0.9249336466229341,-3.671592163813245,2.0025591818395223,-0.7655632887581455
0.8882177249848017,-3.701440525262497,1.9949035489519409,-0.9591808317723126
0.8512033197321767,-3.7286889525283904,1.9853117406342178,-1.158815590268397
0.8139164302068927,-3.752858864902242,1.9737235847315338,-1.3642778607486283
0.7763878415578703,-3.773412519607958,1.9600808061240476,-1.5753294578492545
0.7386537163617908,-3.789754892595419,1.944327511545555,-1.7916785532886492
0.7007561674358366,-3.8012364416086446,1.9264107260126684,-2.0129761133988113
0.6627438030197501,-3.80715695734377,1.9062809648786803,-2.2388142475254473
0.6246722334463124,-3.8067706828867482,1.8838928224034257,-2.468726795352825
0.5866045266174449,-3.7992928393414718,1.8592055544498975,-2.702192482544696
0.5486115982240302,-3.7839076352280165,1.8321836296244507,-2.938640956909754
0.51077252187175,-3.759777758131973,1.8027972200553533,-3.1774619785617206
0.4731747442904303,-3.7260552496528065,1.771022600269736,-3.4180179756443883
0.4359141917939023,-3.6818935509669712,1.7368424205132922,-3.6596600923749967
0.3990952562842326,-3.626460380329955,1.7002458195895422,-3.901747750897159
0.36283065248093305,-3.5589509719486174,1.6612283420805707,-4.1436716276701615
0.3272411427614469,-3.4786010767242317,1.6197916258038692,-4.384879816253773
0.2924551319942046,-3.384699010810509,1.5759428276413314,-4.624906820799627
0.2586081418860995,-3.2765959516512724,1.529693759433335,-4.863404908717487
0.22584218236958675,-3.15371363952552,1.4810597103461602,-5.100177256214022
0.19430504597433157,-3.0155486648081666,1.43005793778402,-5.335212251720405
0.16414955932624992,-2.8616726304992297,1.376705815266816,-5.568718274937179
0.13553283302125763,-2.69172770715561,1.321018632517444,-5.80115822034311
0.10861555594970153,-2.5054174897488912,1.263007050314013,-6.033282928318591
0.08356138105221261,-2.302493700655447,1.202674221030827,-6.266162413770972
0.06053644404565814,-2.0827402971955196,1.1400125968931172,-6.501213135013801
0.03970904107370295,-1.8459581847280626,1.0750004655429792,-6.7402181528215594
0.02124945922642232,-1.5919564581794214,1.0075982840147637,-6.985334231261172
0.005329894644628106,-1.3205607007967655,0.937744941702152,-7.239074570563398
-0.00787571236333955,-1.0316567558096554,0.865354195996518,-7.504245943555435
-0.018192279921436103,-0.7253018640747131,0.7903117365609637,-7.783801222562802
-0.025445298562183236,-0.40195759573916967,0.7124737243353356,-8.08053758458293
-0.029464874519574934,-0.06293468160024235,0.6316683484895064,-8.396520835224303
-0.03009422133557736,0.2888103242610976,0.5477031401372634,-8.732044623668491
-0.027206118092966382,0.6473381380633321,0.4603826939005785,-9.08385869283501
-0.020732736712333062,1.0016831533607886,0.3695441069722284,-9.442413871208036
-0.010715905178725177,1.333225973510229,0.27511996826014806,-9.788239838590664
0.002616354556377114,1.6135367860100989,0.1772375698742414,-10.088812126834785
0.0187517224164781,1.805533685586298,0.07634944860589356,-10.299690900682412
0.03680705927234108,1.872042238240509,-0.026647460400930564,-10.375440761765494
0.05552748165474618,1.7920647522424815,-0.1304018680185855,-10.290790795050821
0.073448129177171,1.574496568834601,-0.2333097759690937,-10.058292460773629
0.08919309486551702,1.2550097450136874,-0.33389270057682996,-9.723576617697825
0.1017431923156539,0.877770471508593,-0.4311284667538082,-9.34101626276694
0.11052089703073983,0.47889423434698813,-0.5245386293814777,-8.952575552411892
0.11530983937420972,0.08117275980715133,-0.6140643849055966,-8.581955048624547
0.11612156697228122,-0.3034910406528671,-0.699883935391842,-8.23864203309797
0.11308665656575255,-0.6699061013979639,-0.7822703557228217,-7.92380221479557
0.1063875955517729,-1.0163823002905872,-0.8615083778707774,-7.634589596872995
0.09622377254886703,-1.3428168578825728,-0.9378542738395074,-7.366616183333454
0.0827956039700413,-1.6496944077099118,-1.011520435672842,-7.11519135847753
0.06629865989294219,-1.9376136868921106,-1.0826723492576174,-6.875883677651432
0.046922523024021084,-2.2070911183259265,-1.1514311860341317,-6.6447449718934815
0.02485161184076182,-2.4585023764273126,-1.2178786357530667,-6.41837759741921
0.000266588076488692,-2.6920893799240755,-1.2820624117272588,-6.193933991555081
-0.026654305722752063,-2.9079957902538265,-1.3440017516428096,-5.969090014067666
-0.055734263625290326,-3.1063123519490823,-1.4036926517834862,-5.742010016322889
-0.08679738714478115,-3.287122591529193,-1.461112751946715,-5.511310414113687
-0.11966861306007308,-3.450544011177688,-1.5162258560878519,-5.276023521740108
-0.15417405317184996,-3.596762297467581,-1.568986091305253,-5.035561396477664
-0.19014167614652577,-3.7260573743662775,-1.6193417052700296,-4.789678883702627
-0.22740224989018853,-3.838820927653705,-1.667238494107056,-4.5384351646221095
-0.2657904591667256,-3.935565577214098,-1.712622845753277,-4.282153494618298
-0.30514611493886656,-4.016926286990921,-1.75544438069946,-4.021379274039029
-0.34531537780877575,-4.083654920482508,-1.7956581734398502,-3.756837005432767
-0.38615192701360085,-4.136609082036077,-1.833226543494178,-3.4893870056063925
-0.4275180178339616,-4.176736530171691,-1.8681204135502418,-3.2199829333359675
-0.4692853831356785,-4.2050565081628415,-1.9003202428836015,-2.9496312608345665
-0.511335948217307,-4.222639313061728,-1.929816555491947,-2.679353770179783
-0.5535623413479243,-4.23058532677169,-1.956610093193745,-2.4101540153432484
-0.5958681946156411,-4.23000457585592,-1.9807116333471775,-2.142988482413227
-0.6381682403742003,-4.221997687793067,-2.00214151817131,-1.878742933536219
-0.680388217252131,-4.207638888673381,-2.020928947506672,-1.6182141619297812
-0.7224646061388648,-4.187961458368001,-2.0371110891259696,-1.362097141009289
-0.7643442207225448,-4.163945839075776,-2.0507320605360624,-1.1109773405289425
-0.8059836791133026,-4.136510393378432,-2.061841833941352,-0.8653278212704073
-0.8473487830470869,-4.10650463585742,-2.070495112154056,-0.6255106158575351
-0.8884138294056612,-4.07470462099616,-2.076750218312631,-0.39178185981064856
-0.9291608756156228,-4.041810058626702,-2.0806680369107378,-0.16430015244625382
-0.9695789762018898,-4.00844264250116,-2.0823110384352,0.05686230322998778
-1.0096634026269014,-3.97514501144045,-2.0817424154029003,0.27170611597024774
-1.0494148527413059,-3.942379708850049,-2.079025354243198,0.4802888563224641
-1.0888386498298064,-3.910527458891443,-2.0742224656799735,0.6827069365944105
-1.1279439244187208,-3.879884032910388,-2.0673953963140295,0.8790750156475137
-1.1667427647478248,-3.8506549405785266,-2.0586046461575545,1.069502524594728
-1.20524931415361,-3.822947160105711,-2.047909620911607,1.2540667421519058
-1.2434787857546672,-3.796757152133595,-2.0353689534900883,1.432781763957935
-1.281446357276003,-3.7719545415704743,-2.021041135850509,1.605562795552763
-1.3191659026917077,-3.7482611997552207,-2.004985507894981,1.7721855938058892
-1.35664851468926,-3.7252261660791075,-1.9872636519569222,1.9322417949624635
-1.393900776350051,-3.702198113888674,-1.9679412340072977,2.085092575098696
-1.4309227574889378,-3.6782991049240503,-1.9470903082563107,2.2298258837347773
-1.4677057485381784,-3.652406308318026,-1.924792049418963,2.3652265284918337
-1.5042298116213586,-3.623151971731761,-1.9011397841340447,2.4897733554382686
-1.5404613313386761,-3.5889553039142377,-1.876242050579662,2.601682361229165
-1.5763508843778185,-3.548101039493832,-1.8502252269673702,2.6990159462836982
-1.6118318947727568,-3.4988751936052505,-1.8232350675045332,2.7798723143471076
-1.6468206467088093,-3.4397558114039324,-1.7954363443610621,2.842650993043324
-1.6812182048228486,-3.369635178043805,-1.7670098344306289,2.886360419763538
-1.7149145566032866,-3.288026143327892,-1.7381462302329935,2.910900302910965
-1.7477948180365654,-3.195192035871642,-1.7090372272038838,2.9172335295517486
-1.7797467383952819,-3.092150662663867,-1.6798648919083663,2.907378742440821
-1.8106682450219205,-2.980540196599864,-1.650791104483958,2.884207996775051
-1.840473646987919,-2.862382208165666,-1.6219490245162076,2.8511010542643755
-1.8690974690695756,-2.739809166179281,-1.5934380139735638,2.811552742961623
-1.8964955607313685,-2.6148246448557013,-1.5653224865439475,2.7688303231930815
-1.9226438071799254,-2.489139138534366,-1.5376341833120166,2.7257412189368244
-1.9475351985652691,-2.3640912047049047,-1.5103767711226483,2.6845240632131078
-1.9711761106123182,-2.2406390937388005,-1.4835315304905172,2.6468411075561016
-1.9935825015497062,-2.1193979037772452,-1.4570631194149561,2.6138358176657324
-2.0147764805874786,-2.0006985339258097,-1.430924761238299,2.586221429734978
-2.0347834659267368,-1.8846512810830938,-1.4050625469409492,2.5643757638270332
-2.053629978737568,-1.7712041334218842,-1.3794187893026788,2.5484279761373636
-2.0713420200717865,-1.660191396910687,-1.3539345095413051,2.538330966587067
-2.087943934040893,-1.5513717946947791,-1.3285511998754345,2.5339182007877845
-2.103457651987841,-1.4444569922015977,-1.3032120178675566,2.534946318515443
-2.117902221909857,-1.3391322087934574,-1.277862554682402,2.541125924618786
-2.1312935439977916,-1.2350706711358883,-1.2524512954362141,2.552143097970594
-2.1436442507091504,-1.1319434727660613,-1.2269298644565083,2.5676738815396787
-2.154963685436811,-1.0294261178397714,-1.2012531256411114,2.5873936041748573
-2.1652579466152084,-0.9272027397036288,-1.1753791895993628,2.610982469423367
-2.174529974012245,-0.824968736441753,-1.149269364905129,2.638128486355239
-2.1827796613766624,-0.7224323665631014,-1.1228880800415768,2.6685285279003557
-2.1900039850422934,-0.6193156958642854,-1.0962027947625732,2.7018880803003085
-2.196197142000936,-0.5153551736104451,-1.06918391395957,2.7379200823836682
-2.2013506937370404,-0.4103020340324882,-1.0418047131357333,2.776343133601071
-2.205453714077365,-0.3039226600940902,-1.0140412817997226,2.8168792643786134
-2.208492940678306,-0.19599900427146805,-0.9858724891559365,2.8592514026033196
-2.210452930721021,-0.08632913083917135,-0.9572799751299033,2.9031806291745266
-2.2113162220294127,0.025272077813745505,-0.928248168838158,2.948383288489719
-2.2110635012512754,0.13897202473059683,-0.8987643359532608,2.994568002799416
-2.2096737810039695,0.2549192985620007,-0.8688186559252666,3.041432629916464
-2.2071245880183494,0.37324236792270993,-0.838404329626102,3.0886611999116833
-2.2033921643391223,0.4940480772512474,-0.8075177176269852,3.1359208668181315
-2.19845168356661,0.6174199609969016,-0.7761585089588039,3.1828589150128175
-2.192277483956641,0.7434164027221045,-0.7443299198086757,3.229099866093076
-2.1848433199294197,0.8720686760623613,-0.7120389211477449,3.274242740091942
-2.176122633168796,1.0033789155934387,-0.6792964937468255,3.3178585342131894
-2.1660888440128616,1.1373180775223164,-0.6461179084046936,3.359487992336095
-2.1547156632376385,1.273823962596773,-0.6125230284813327,3.398639748714858
-2.141977423611671,1.41279938641716,-0.5785366309941841,3.434788938867889
-2.1278494297474992,1.5541105949788,-0.5441887416055051,3.467376378807813
-2.1123083237977114,1.697586035173337,-0.509514977817427,3.495808419590846
-2.095332463445978,1.84301560039813,-0.4745568936215186,3.5194575866600117
-2.0769023074419968,1.9901504795229505,-0.43936231775491846,3.537664111552602
-2.057000802646767,2.1387037423324444,-0.40398567663939244,3.549738456149352
-2.035613765223443,2.2883517952735093,-0.3684882920778989,3.5549649157060337
-2.012730247270708,2.4387368370069753,-0.3329386429208386,3.5526063654714837
-1.988342878900638,2.58947043312722,-0.29741257926612374,3.541910185971974
-1.9624481745693658,2.7401383128961037,-0.261993477406404,3.522115363481333
-1.9350467914404048,2.8903064676252694,-0.22677232377159068,3.492460714555488
-1.9061437267641521,3.039528600448019,-0.19184771662603578,3.452194126912242
-1.8757484407596718,3.1873549410515722,-0.15732577535691336,3.400582643932096
-1.843874891349156,3.333342397340748,-0.1233199489175924,3.3369231476835512
-1.8105414673757485,3.4770659703291087,-0.08995071744075689,3.2605533172390344
-1.7757708076724574,3.618131310735439,-0.057345184268366545,3.170862457395639
-1.7395894945651031,3.75618824840055,-0.02563655969441015,3.067301710735328
-1.7020276120810975,3.8909450820962217,0.005036457412943129,2.949393087042103
-1.6631181612601353,4.022183381795468,0.03453038828336416,2.8167366730249954
-1.6228963274421806,4.149773033128644,0.06269775501361412,2.669015327306023
-1.5813985971108941,4.2736872505086945,0.08938790828667435,2.5059961262200576
-1.5386617246058072,4.394017307799217,0.11444786954887493,2.3275278102430628
-1.494721551527815,4.510986790048674,0.13772314765130556,2.1335334925775857
-1.4496116836273283,4.624965262693555,0.1590584825770814,1.9239979318722606
-1.4033620310003927,4.736481390019247,0.178298461895804,1.6989487380314334
-1.3559972171002002,4.8462357138269585,0.19528794927611834,1.4584309674386782
-1.3075348599619305,4.9551135227723435,0.20987225895050513,1.2024746624996094
-1.2579837247342072,5.064198492241823,0.2218970055755012,0.9310549914205346
-1.207341739811789,5.174788032337647,0.23120755548970656,0.6440447469837498
-1.1555938594884125,5.288411506899345,0.23764800295954405,0.34115909082066037
-1.1027097444194192,5.406852603065942,0.24105959386775067,0.02189265856207878
-1.0486412183887597,5.532176991185865,0.24127852045337145,-0.3145503427914193
-0.993319448476901,5.666765726573321,0.23813301702545725,-0.6693312049317475
-0.9366517912111678,5.813353018085463,0.23143970497613978,-1.044052368226311
-0.8785182610303132,5.975062825458193,0.22099918129387666,-1.4408230550097496
-0.8187676327757313,6.1554298138298025,0.20659095074377917,-1.8622915383286678
-0.7572133346374332,6.358371593705033,0.1879680353604925,-2.3115942578090127
-0.6936296187003829,6.588041301058391,0.16485209278240237,-2.792118327490959
-0.627749205689799,6.848414626534879,0.1369309095074928,-3.3068681629415018
-0.5592650594244502,7.14232474148227,0.10386222787807778,-3.8570291970382917
-0.48784181200962745,7.469423790284901,0.06529193590769486,-4.438993519593037
-0.41314757410677844,7.8222689872552635,0.02090200071176449,-5.038725635572789
-0.3349248842342258,8.179818553535075,-0.029485255643963405,-5.622492571214115
-0.25312669869887505,8.499531685712212,-0.08571018135610456,-6.125723608547271
-0.1681313818417529,8.715572446786958,-0.14696741744157726,-6.450735406757515
-0.08097565737388333,8.758881654375868,-0.2114747715091524,-6.495759103027154
0.006613159169875343,8.603086886738497,-0.27643236253942394,-6.220886248650748
0.09264402803726031,8.29368127042221,-0.3386412250259314,-5.690340675436411
0.17558084074148242,7.915487464540142,-0.39554463178029553,-5.026673656857747
0.25473571538688383,7.538199616975106,-0.445811368348873,-4.332803922548607
0.3301177115566349,7.197164369409261,-0.4891394075743591,-3.6635184858366845
0.40208935525072753,6.902844586226413,-0.525774592432726,-3.0380556965221905
0.4711178011129917,6.653719253501742,-0.5561551493979479,-2.458152679828332
0.5376549936480091,6.443973799676653,-0.5807366761962311,-1.91902490961674
0.6020947316447756,6.266930256620514,-0.5999269252923985,-1.4143937908671256
0.6647640342109807,6.116309992336841,-0.6140708632010698,-0.9384303792232151
0.7259271341343492,5.986579654666454,-0.623455166993302,-0.4863610825921794
0.7857929306810137,5.872955577014395,-0.6283187778192237,-0.05454921234118576
0.8445224864511577,5.771303721236739,-0.6288642699426356,0.3596068248411159
0.9022355236635251,5.678025611040676,-0.6252682016942244,0.7578253399986965
0.9590157797739318,5.589960993512646,-0.6176899482942374,1.1410952082288377
1.0149153897090584,5.504314656172619,-0.606278996211949,1.5098173197414853
1.0699585362707846,5.418606222871189,-0.5911808230145342,1.8639314481891334
1.1241445984994964,5.330638934859876,-0.5725415085326429,2.2030300565216487
1.1774509878480952,5.238482814309283,-0.5505112079674264,2.5264610147512276
1.229835815991188,5.1404678073276475,-0.5252465978199141,2.833420583134927
1.2812404940644644,5.035182987605582,-0.49691239198856485,3.1230372095819425
1.3315923239405203,4.921478484275914,-0.46568201989274544,3.394446047981748
1.3808071087832794,4.79846741304195,-0.43173755941292796,3.6468537314343203
1.428791782913699,4.665525708120803,-0.3952690220985848,3.879592827475022
1.475447039994907,4.522288350884401,-0.3564730938238346,4.092165507290567
1.5206699235037509,4.368641047549702,-0.3155514387509289,4.284276205674994
1.564356333979248,4.204706905263069,-0.272708676694179,4.455853363329425
1.6064034030318786,4.030828083101212,-0.2281501430608847,4.60706067242856
1.6467116838628906,3.847542749445937,-0.18207953633659912,4.738298553389951
1.68518711135735,3.6555579631552817,-0.1346965508026996,4.850196856282417
1.7217426909889029,3.4557193181159183,-0.08619458223987543,4.943599997350362
1.756299884170062,3.2489783526135816,-0.03675858226637181,5.01954590843034
1.7887896676961978,3.036358826489198,0.013436876817931584,5.079240293604766
1.81915325596109,2.8189230072602802,0.06422927975397924,5.124027749969695
1.8473424860336927,2.5977390777585545,0.11546955725367619,5.155361312683327
1.8733198768112782,2.3738506816183493,0.16702317038050946,5.1747719239602965
1.8970583836274617,2.148249463978579,0.21877088962011243,5.1838392007002705
1.9185408782672475,1.9218512547319935,0.2706092816271151,5.184164691564647
1.9377593908145674,1.695476298491512,0.3224509285427616,5.177348584014233
1.9547141537994825,1.469833680997786,0.37422441438290394,5.164970563131169
