th1 (rad),w1 (rad/s),th2 (rad),w2 (rad/s)
0.9944713403572897,-0.08114034964332825,6.239453478531244,2.801017936373928
0.9936599368608564,-0.21553290763908403,6.267463657894983,2.8735993876049992
0.9915046077844656,-0.35254111449863035,6.296199651771033,2.948474303812356
0.9879791966394793,-0.49233175089369274,6.325684394809157,3.0262717948394338
0.9830558791305424,-0.6350949967077933,6.355947112757551,3.107640379290076
0.9767049291634644,-0.7810401922747412,6.387023516550452,3.193240524654975
0.968894527240717,-0.9303876052568003,6.418955921797002,3.2837320468230757
0.959590651188149,-1.0833542579422135,6.451793242265232,3.3797536341324252
0.9487571086087269,-1.2401310135094843,6.485590778606556,3.481890546371277
0.936355798473632,-1.4008469807898416,6.520409684070269,3.5906249194924285
0.9223473286657337,-1.5655158904081885,6.556315933265193,3.7062610966473177
0.9066921697616518,-1.7339575973651005,6.593378544231666,3.8288162425058343
0.8893525937880008,-1.905686820656766,6.631666706656724,3.9578649296631414
0.8702957255814331,-2.0797619171759565,6.6712453559533555,4.092327187413581
0.8494981064096735,-2.2545914446096185,6.7121686278274915,4.23019622102204
0.8269521919635773,-2.4277097574582327,6.7544705900377116,4.368220623478499
0.802675094388995,-2.595560380135727,6.798152796272497,4.5015941502206145
0.7767194905876377,-2.753370523472894,6.843168737774703,4.623768533623079
0.7491857853529087,-2.895252985806059,6.889406423110934,4.726579249156954
0.7202332554948481,-3.014697015417076,6.936672215602504,4.800910851451609
0.6900862853406773,-3.105540338672633,6.98468132411702,4.838033621400989
0.659030881953951,-3.163295000383169,7.03306166033103,4.831438753844516
0.6273979319501193,-3.1863922047566953,7.081376047869475,4.778571087745848
0.5955340099025523,-3.1767579422799406,7.129161758746934,4.681643176005813
0.563766430479753,-3.139374656879755,7.175978190506992,4.54705074369788
0.5323726839109554,-3.0810278487551415,7.221448697943971,4.38366297181762
0.5015624054234039,-3.0088395144111235,7.265285327662147,4.200818817160163
0.4714740102792927,-2.929148475568512,7.307293515833749,4.006801299818968
0.4421825255236076,-2.846955897793215,7.3473615288319385,3.8080883093979643
0.41371296654567546,-2.7658458449859507,7.3854424119259185,3.609253262849453
0.386054508095816,-2.6881747651681938,7.421534944554413,3.4132308727788074
0.35917276044413404,-2.6153530993327565,7.455667253282201,3.2217053426537805
0.3330192294508065,-2.548116627045075,7.487884306708739,3.0354815690009316
0.3075380631803557,-2.486746426364941,7.518239122398748,2.854784235992968
0.2826705989167063,-2.43123108020247,7.546786964758678,2.679477118270529
0.25835828811468164,-2.381379389943315,7.573581735941383,2.509214597612178
0.2345444942152485,-2.33689550644798,7.598673881917505,2.343542082523914
0.2111755391507687,-2.2974273713213234,7.622109302742744,2.1819604055473256
0.18820126543755547,-2.262596972085992,7.643928906798217,2.0239658672827066
0.16557529571669555,-2.232018547646865,7.664168565471044,1.869074282886846
0.1432551102402269,-2.2053089789940343,7.682859308299912,1.7168347500209582
0.12120202045028657,-2.182093209841732,7.700027655800122,1.5668369419259358
0.09938108835186925,-2.1620065755466094,7.715696025219382,1.4187144052632632
0.07776102259640316,-2.1446952665052517,7.729883169272014,1.2721454533129122
0.056314069931350644,-2.129815720001393,7.742604623805144,1.1268526587970733
0.03501591273133671,-2.1170334512231963,7.753873150393114,0.9826015684362914
0.013845578219104746,-2.106021649885547,7.763699166077477,0.8391990143668933
-0.007214638279750725,-2.0964597495352564,7.772091156221146,0.6964912391430041
-0.028179235775103288,-2.0880320994927706,7.779056068612576,0.5543619503514995
-0.049059556770030995,-2.0804268195379803,7.78459968811609,0.4127303576987895
-0.0698638249654108,-2.073334885096089,7.788726991693078,0.27154920667545146
-0.0905971738163717,-2.066449469451334,7.791442483759833,0.1308028000853353
-0.11126166851088504,-2.0594655552813403,7.792750511760686,-0.009495013646422773
-0.13185632406369843,-2.0520798179013524,7.792655561624222,-0.14930291195494966
-0.15237712224271197,-2.0439907753375417,7.791162532504672,-0.2885542568930761
-0.1728170299960874,-2.034899194647661,7.788276989935741,-0.4271593665431389
-0.193166021942564,-2.0245087391278114,7.7840053962703095,-0.5650079203703081
-0.2134111093338421,-2.0125268368115035,7.778355317066606,-0.7019715144576686
-0.23353637770195715,-1.9986657467835063,7.771335601922029,-0.8379063764880655
-0.2535230351697922,-1.982643796209204,7.762956538157148,-0.9726562439304447
-0.27334947313188424,-1.964186757599077,7.753229975717844,-1.1060554024550564
-0.292991340707875,-1.9430293327014216,7.742169421693293,-1.2379318753816635
-0.31242163403488926,-1.9189167065733606,7.729790102939477,-1.368110749143871
-0.33161080110062285,-1.891606132852524,7.716108995448038,-1.4964176144731065
-0.3505268624291481,-1.8608685090691661,7.701144819303307,-1.622682098374351
-0.3691355475198398,-1.8264898990281007,7.6849179983195635,-1.746741458063223
-0.3874004465101208,-1.7882729578797758,7.6674505837389315,-1.8684442049267616
-0.40528317608891856,-1.746038214524008,7.648766141689664,-1.9876537243231343
-0.42274355823415866,-1.69962516549319,7.6288896044464325,-2.10425185572515
-0.43973980988909056,-1.6488931345025106,7.607847085889181,-2.21814239743889
-0.45622874123411566,-1.5937218525034909,7.585665661914792,-2.329254501022815
-0.47216595975915054,-1.5340117144103675,7.562373116904563,-2.4375459227578524
-0.4875060769032542,-1.4696836707567464,7.537997657676985,-2.5430061032657862
-0.5022029136108217,-1.4006787154292784,7.512567596644327,-2.6456590518464855
-0.5162097007651145,-1.3269569343188823,7.486111006125862,-2.745566019503269
-0.5294792701083033,-1.2484960841664023,7.458655345930829,-2.8428279541194263
-0.5419642309499674,-1.165289675913866,7.430227066389635,-2.937587742951193
-0.553617127709106,-1.077344542266434,7.4008511889601225,-3.0300322615468334
-0.5643905731317703,-0.9846778745923359,7.370550866344654,-3.120394264320844
-0.5742373518776936,-0.8873137193304153,7.339346923701446,-3.2089541701237394
-0.5831104890709978,-0.7852789282883149,7.307257382000208,-3.296041815940005
-0.590963278353881,-0.678598560169546,7.274296963840809,-3.3820382728626366
-0.5977492639555764,-0.5672907320473173,7.2404765811121825,-3.4673778400941133
-0.6034221712760496,-0.451360919237346,7.205802802711242,-3.552550354012051
-0.607935780468423,-0.330795700490372,7.170277299171121,-3.6381039689899346
-0.6112437374733267,-0.20555594376395475,7.133896259481222,-3.724648582614919
-0.6132992969109663,-0.0755694284217219,7.0966497736550735,-3.812860086810837
-0.6140549911951835,0.059277093038024836,7.058521172786965,-3.9034856224227537
-0.6134622202648032,0.19914636893117868,7.0194863165627375,-3.9973499881837427
-0.6114707565754914,0.3442595837330283,6.9795128166809,-4.095363288591475
-0.6080281607381611,0.49490558051879296,6.938559183794986,-4.198529769523651
-0.6030791049329732,0.6514500070853708,6.896573886099749,-4.307957534395829
-0.5965646048621195,0.8143436787937681,6.853494310755791,-4.424868369499097
-0.5884211680741818,0.9841288426222807,6.8092456270608,-4.550606084357369
-0.578579879647959,1.1614409669873214,6.763739566217227,-4.686640335270447
-0.5669654699780857,1.3470018592635369,6.716873162864522,-4.834560416087883
-0.5534954513854503,1.541596817247916,6.668527558703643,-4.996049256892945
-0.5380794832129712,1.7460233451055243,6.618567066134714,-5.172820733108338
-0.5206192497619159,1.9609905217057517,6.566838858803631,-5.366491668513775
-0.5010093445448583,2.1869349186208598,6.513173942118493,-5.578341476374265
-0.47913999535864976,2.423699989888971,6.45739052735475,-5.808885620494578
-0.45490299545976004,2.6700031787904988,6.3993016711498045,-6.057156594423477
-0.42820296367185506,2.9226012513095396,6.33873010520557,-6.319565029174538
-0.39897695115875964,3.175099291298845,6.275534454913824,-6.588258532848556
-0.3672259582457712,3.416523904037274,6.209651869585339,-6.849134034019794
-0.3330607192053985,3.6302369255576945,6.141160529245141,-7.0802873414387255
-0.29675834994982153,3.794527703770819,6.070357655830754,-7.252740716950267
-0.25881307291211336,3.886693164787729,5.997830248661251,-7.335952263418174
-0.21994614126423606,3.8909861099196106,5.924470726027069,-7.3086478124281875
-0.18103628016503995,3.8066601445885446,5.8513842479027875,-7.169785650052866
-0.1429696787191545,3.6495018797586893,5.779686391402259,-6.940571291173751
-0.1064746599215676,3.4447642722092398,5.710280678490522,-6.654726990653471
-0.0720270171994752,3.2173256454503507,5.643733408583987,-6.345096860399211
-0.03985376074497169,2.98571809907601,5.580282439979995,-6.035669271850415
-0.009996579754211591,2.7611904777950493,5.519925747261491,-5.740493259585043
0.017615325023738904,2.549383765847414,5.46252081466564,-5.466092016909624
0.04310916268221304,2.352410617583988,5.407859894496544,-5.214348623578714
0.06663326885805293,2.1704405450959072,5.355716408260757,-4.984666532936034
0.088337674309012,2.0026948809755685,5.305869742931397,-4.775302722743478
0.10836462311876768,1.84800805684423,5.258116715703962,-4.584104200125404
0.12684470368721,1.7051212178495208,5.212275673702708,-4.40888194761399
0.1438959158657052,1.5728244162958278,5.168186854226568,-4.247583244596411
0.15962416002866348,1.450017590075636,5.125711021780604,-4.098358189499595
0.17412433592941984,1.3357298375103313,5.084727439885608,-3.959573580318506
0.18748163430452314,1.2291183630738605,5.045131704082423,-3.8298024269872033
0.19977281793526175,1.1294583400654892,5.0068336798125515,-3.7078036475285208
0.21106740133591664,1.0361294460533992,4.969755643337266,-3.592499164650841
0.22142869579645064,0.9486019053423297,4.933830651690758,-3.482951780618729
0.23091471484987394,0.8664233424293957,4.89900113388457,-3.378345240212997
0.2395789482741679,0.7892069646067535,4.865217681482441,-3.2779669107771867
0.24747101792023543,0.7166212010091972,4.832438012374669,-3.1811930424017065
0.2546372299303274,0.6483807420123822,4.800626081950652,-3.087476369993128
0.2611210373504512,0.5842388468023765,4.76975131825072,-2.9963357505701143
0.266963425818475,0.5239807648434851,4.739787960745019,-2.9073475247636074
0.27220323346690983,0.46741812066384997,4.710714485497383,-2.820138315617368
0.2768774146735483,0.4143841261135924,4.682513102341209,-2.7343790124057232
0.28102125593468424,0.3647295024937397,4.6551693122171525,-2.649779723560127
0.2846685509596216,0.3183190130179699,4.628671514981551,-2.566085516971194
0.2878517410898013,0.2750285223006969,4.603010659811839,-2.4830727963929187
0.2906020263128083,0.2347425133712483,4.57817993184791,-2.400546189097644
0.2929494514465208,0.19735200403744277,4.5541744699569335,-2.3183358425307317
0.2949229714868952,0.16275281346113568,4.530991111531626,-2.236295046914905
0.2965504996215066,0.13084413686969662,4.508628161062477,-2.1542981170184485
0.29785894099020355,0.1015273917486695,4.487085179892293,-2.0722384800572344
0.2988742149076902,0.07470530297224395,4.466362795091721,-1.990026928314036
0.29962126793741267,0.050281197433284235,4.44646252580858,-1.9075900048297219
0.3001240799117455,0.02815848110191446,4.427386625760283,-1.8248684986902264
0.30040566472276464,0.008240273300799697,4.40913794077338,-1.7418160331933459
0.30048806745577267,-0.009570825473241631,4.391719780441447,-1.6583977356872976
0.30039235920104024,-0.02537285447568369,4.375135803084574,-1.5745889822607917
0.3001386306562834,-0.03926452335697725,4.359389913261967,-1.4903742138487892
0.2997459854227136,-0.051345172131048875,4.344486171123479,-1.405745822807079
0.29923253370140307,-0.06171467863617063,4.330428712895408,-1.3207031107060843
0.29861538691504136,-0.07047333010141,4.3172216817883475,-1.2352513191020853
0.29791065361402724,-0.07772167376400338,4.304869168597326,-1.1494007354636024
0.2971334368763872,-0.08356035971347776,4.2933751612426905,-1.063165876362067
0.2962978332792524,-0.08808998729248939,4.28274350247907,-0.9765647495764133
0.2954169334063275,-0.09141096449550676,4.2729778549833055,-0.889618196003712
0.29450282376137243,-0.09362338791204329,4.264081673023268,-0.8023493112988314
0.293566589882252,-0.09482694889919406,4.25605817991028,-0.7147829460635946
0.29261832039326,-0.0951208698747297,4.248910350449644,-0.6269452822387245
0.2916671116945127,-0.09460387292887448,4.242640897627257,-0.5388634821783516
0.290721072965224,-0.09337418138675767,4.237252262805473,-0.45056540575470644
0.2897873311513564,-0.0915295535351027,4.232746608747926,-0.3620793897871125
0.2888720356160054,-0.08916734647084097,4.229125814850056,-0.2734340831421774
0.28798036215129696,-0.08638460694541332,4.226391474018634,-0.18465833003025486
0.28711651608184285,-0.08327818517132371,4.224544890718331,-0.09578109333871299
0.2862837342301296,-0.07994486682816575,4.223587079784944,-0.0068314093014901905
0.28548428556184796,-0.07648151795239866,4.223518765691929,0.0821616355912002
0.284719470382324,-0.07298523701560633,4.224340382047841,0.17116891479029095
0.28398961801216793,-0.06955350828617347,4.226052071195744,0.2601612684489951
0.2832940829293062,-0.06628435052566424,4.228653683880234,0.34910951617524266
0.28263123942404955,-0.06327645519061258,4.232144779041986,0.4379844850394648
0.2819984748721434,-0.060629308590577774,4.236524623892381,0.5267570618074569
0.28139218178623765,-0.05844329289247453,4.241792194510455,0.6153982779468268
0.2808077488573129,-0.05681976145797462,4.247946177289923,0.7038794354117345
0.28023955124273314,-0.05586108475359057,4.25498497164404,0.7921722805497091
0.27968094039519725,-0.05567066397935331,4.262906694449537,0.8802492327037408
0.27912423375540374,-0.05635291061748702,4.271709186776574,0.9680836732130189
0.2785607046492289,-0.058013191300271265,4.281390023508704,1.0556502995611334
0.2779805727362262,-0.060757738726082706,4.291946526504316,1.1429255484008523
0.27737299534896537,-0.06469353080013718,4.303375781988325,1.2298880901253464
0.276726060040964,-0.06992814172304028,4.315674662889578,1.316519396589251
0.2760267786237336,-0.07656957037281642,4.3288398568554705,1.4028043825486736
0.27526108292000545,-0.08472605299752572,4.342867900680957,1.4887321204337962
0.2744138223900302,-0.09450586892564905,4.357755221885295,1.5742966272445564
0.2734687637007737,-0.10601714967811895,4.373498188157741,1.6594977217286568
0.27240859220399255,-0.11936770349732875,4.390093165375027,1.7443419496265524
0.27121491516901924,-0.13466486886529638,4.407536584871292,1.828843574718578
0.26986826648036627,-0.15201541204127494,4.425825020618478,1.9130256337557536
0.26834811235995354,-0.17152548499265005,4.444955276956036,1.9969210541696665
0.266632857510027,-0.19330066131752127,4.464924487497733,2.080573834809436
0.26469985089685183,-0.21744606887300014,4.485730225845827,2.164040291915259
0.2625253902081218,-0.24406663885736696,4.5073706287649795,2.2473903751773134
0.26008472381954817,-0.27326749209389295,4.529844532516752,2.330709062114199
0.25735204889860924,-0.30515448429781766,4.553151623137894,2.414097843205951
0.2543005040556311,-0.33983493326629965,4.577292601569954,2.4976763153057964
0.2509021547229681,-0.3774185523264748,4.6022693647230115,2.5815839069114377
0.24712796919970337,-0.41801861614102775,4.628085203792126,2.665981765989617
0.2429477830382931,-0.46175338725097836,4.654745021452022,2.7510548493171805
0.2383302491657833,-0.5087478346857037,4.682255569945194,2.8370142618387395
0.23324277081892625,-0.5591356797373741,4.710625712563581,2.9240999054592383
0.2276514140215525,-0.6130618086966528,4.739866711618173,3.012583509087515
0.22152079593458598,-0.670685098022591,4.769992546709049,3.102772125666412
0.21481394495436007,-0.7321817039751595,4.801020267965713,3.195012197274632
0.20749212791460847,-0.7977488758181275,4.83297038993846,3.2896943057983927
0.1995146391564272,-0.867609358487352,4.8658673329964435,3.387258743251008
0.19083854557155366,-0.9420164554947702,4.899739920428954,3.4882020506954436
0.18141838101660596,-1.0212598227859846,4.934621940935909,3.593084684276011
0.1712057827887461,-1.1056720538634257,4.970552787778669,3.702539964362688
0.16014906225011183,-1.195636086143342,5.007578187422295,3.8172844370685906
0.1481927013886784,-1.2915933914724478,5.045751031792981,3.938129704677978
0.13527676747395392,-1.394052780830829,5.0851323288397605,4.06599562439286
0.12133623966564563,-1.5035994038985638,5.125792285083689,4.201924465733447
0.10630024562665999,-1.6209030707205352,5.167811529741023,4.347095037666225
0.09009121491945464,-1.7467242136668644,5.211282480117685,4.502834740843346
0.072623972782786,-1.8819143825708469,5.256310827526119,4.670625610550335
0.05380482895707753,-2.02740568012277,5.303017083631622,4.852097078229259
0.033530772155849826,-2.1841792560205273,5.351538054413915,5.048992360857994
0.011688979595644553,-2.353195693413491,5.4020279780224945,5.26308541458078
-0.011842977338490358,-2.5352580654796064,5.4546588321683025,5.496008749966432
-0.03719555799328642,-2.7307594238600545,5.509618919667967,5.748925945375394
-0.06450315223188696,-2.939239233974108,5.567108179121721,6.021944405539224
-0.09389554457162805,-3.1586423187785577,5.627327623177114,6.313119623127811
-0.12548196775941362,-3.3841631552609144,5.690458819408391,6.616884446351679
-0.15932359931202275,-3.6066407449818936,5.7566276638719085,6.921846015335177
-0.19539000676184168,-3.810804027881619,5.825846124025261,7.208350207785599
-0.23349804704065785,-3.9744556571045866,5.897929626103116,7.447299603915205
-0.2732426036117037,-4.070759829347705,5.972402622142268,7.603205138054703
-0.31395020190518075,-4.075720204510687,6.048434673522815,7.644350140588464
-0.3547074039502876,-3.9791854462624925,6.1248781749287,7.557770347491513
-0.39449925841291256,-3.791637528883427,6.200455878403615,7.358379029495734
-0.43241563370174685,-3.539660737225302,6.274039668698572,7.082548685618704
-0.4678122410739999,-3.2536357334541988,6.344865155554759,6.77119851461633
-0.5003485984085418,-2.957786517143444,6.412577140700922,6.456350898259074
-0.5299264635799763,-2.66719533115294,6.477140649683513,6.157332765024159
-0.5565984168915057,-2.3894185531398144,6.538713977333754,5.883207061354878
-0.5804926024229038,-2.127227129520076,6.5975460479473025,5.636625130710717
-0.6017648737181045,-1.8808037459078215,6.65391229925441,5.416850976962083
-0.6205729111771827,-1.6491191897799484,6.708080809024031,5.221622279947919
-0.6370641030749822,-1.430690896527738,6.76029703182351,5.048154270838911
-0.6513710120402596,-1.223965824346002,6.8107785745318985,4.893630797809356
-0.6636106702837197,-1.0274969957687135,6.8597148825099925,4.7554186822218725
-0.6738856402414068,-0.8400134357795832,6.907269069332211,4.631142450581735
-0.6822857745992027,-0.6604377524518955,6.953580493838029,4.51869297885502
-0.6888901521237216,-0.487879576524044,6.998767423626579,4.416207695931593
-0.693768947888962,-0.3216190567966751,7.042929500585895,4.322040904004885
-0.6969851384569288,-0.16108729580315,7.086149909625944,4.234732950948102
-0.6985960114149603,-0.0058468770965061645,7.1284972391354255,4.152982052637576
-0.6986544801859254,0.14442622953818637,7.170027059661801,4.075620141608346
-0.6972102178905435,0.28995900080739595,7.210783261077885,4.0015929722128805
-0.6943106278824696,0.43089595731006536,7.250799190800014,3.929944203188992
-0.6900016683093689,0.5673122159651424,7.290098632831904,3.859802980824193
-0.6843285461497175,0.6992252300081838,7.328696662640145,3.790374495430834
-0.6773362938496357,0.8266054346209988,7.366600407594453,3.7209329988592184
-0.6690702395034257,0.9493859782800157,7.403809737583045,3.6508168116478434
-0.6595763797206255,1.067471675299362,7.440317905699524,3.5794248968676223
-0.648901662967632,1.180747272244134,7.4761121546682,3.5062146261257836
-0.6370941902451907,1.289085083957068,7.511174300929458,3.4307004090192152
-0.62420333940562,1.3923520256168755,7.54548130501965,3.352452900265312
-0.6102798191494513,1.4904160459868647,7.579005834022303,3.2710985392603127
