th1 (rad),w1 (rad/s),th2 (rad),w2 (rad/s),a1 (rad/s^2),a2 (rad/s^2)
0.5398336362982145,-2.2627894042220285,3.0036014204307087,2.085841747714622,-7.8212807063721925,-10.651212284918687
0.5172057422559941,-2.3410022112857503,3.024459837907855,1.9793296248654353,-8.07263660754488,-10.895362244782122
0.49379572014313666,-2.421728577361199,3.0442531341565093,1.8703760024176141,-8.2748037968636,-11.091521141644463
0.4695784343695247,-2.504476615329835,3.0629568941806853,1.7594607910011695,-8.416691248276663,-11.222067409398882
0.4445336682162263,-2.5886435278126014,3.080551502090697,1.6472401169071806,-8.486468243292638,-11.268011573659376
0.4186472329381003,-2.6735082102455276,3.097023903259769,1.5345600011705869,-8.472010924496551,-11.209625570673206
0.391912150835645,-2.758228319490493,3.112369503271475,1.422463745463855,-8.36149383465683,-11.027311990353434
0.3643298676407401,-2.8418432578370614,3.1265941407261133,1.3121906255603206,-8.144112008328174,-10.702698888940022
0.3359114350623695,-2.9232843779203432,3.1397160469817167,1.2051636366709204,-7.810898042715997,-10.219912177845476
0.30667859128316605,-3.001393358347503,3.151767683348426,1.1029645148924656,-7.355576624591563,-9.566940898761095
0.276664657699691,-3.0749491245934184,3.1627973284973505,1.0072951059048547,-6.775380383381856,-8.736977294842811
0.24591516645375683,-3.1427029284272368,3.172870279556399,0.9199253329564266,-6.071740239698007,-7.729590990827656
0.21448813716948445,-3.203420330824217,3.182069532885963,0.8426294230481501,-5.250764347817781,-6.551591612232847
0.18245393386124228,-3.2559279743023946,3.1904958271164445,0.7771135069258217,-4.323433881911635,-5.217450799397835
0.14989465411821834,-3.299162313121511,3.198266962185703,0.7249389989318433,-3.3054699466180795,-3.7491923906496067
0.11690303098700323,-3.3322170125876918,3.2055163521750214,0.6874470750253473,-2.2168596596867323,-2.1757134241260205
0.08358086086112632,-3.354385609184559,3.2123908229252747,0.665689940784087,-1.081065154386434,-0.5315599319722891
0.050037004769280725,-3.3651962607284234,3.2190477223331158,0.6603743414643641,0.0760288518811986,1.144759430053486
0.016385042161996488,-3.3644359722096113,3.2256514657477595,0.671821935764899,1.2273492693450305,2.8127903504149745
-0.017259317560099623,-3.352162479516161,3.2323696851054087,0.6999498392690487,2.345956571039797,4.432316152519976
-0.05078094235526123,-3.328702913805763,3.2393691834980993,0.7442730007942485,3.4063552703834956,5.965528303870836
-0.08406797149331886,-3.294639361101928,3.2468119135060416,0.8039282838329569,4.3856966401147535,7.379007876549838
-0.11701436510433814,-3.2507823947007806,3.2548511963443714,0.8777183625984553,5.2647871454895085,8.645360934741149
-0.14952218905134596,-3.1981345232458853,3.263628379970356,0.9641719719458668,6.028832279322135,9.74438479611962
-0.1815035342838048,-3.137846200452664,3.2732700996898143,1.0616158199070629,6.667867976801826,10.663688437704343
-0.21288199628833143,-3.0711675206846456,3.2838862578888848,1.1682527042841062,7.176859753590035,11.398745088554202
-0.24359367149517788,-2.9993989231487452,3.2955687849317257,1.2822401551696483,7.555480884144429,11.952412274511644
-0.27358766072666535,-2.923844114307301,3.3083911864834223,1.4017642779147648,7.807611446600584,12.334006582588987
-0.30282610186973835,-2.845767999841295,3.32240882926257,1.5251043437406546,7.940625194227521,12.558059387844196
-0.33128378186815133,-2.76636174789902,3.3376598726999767,1.6506849376190966,7.964546788184553,12.642899902063839
-0.35894739934714154,-2.6867162800171744,3.3541667220761675,1.777113936639735,7.891165629830269,12.609211050454537
-0.3858145621473133,-2.607804623718872,3.371937861442565,1.9032060471442804,7.733184633448173,12.478684058150709
-0.41189260838450203,-2.5304727773843902,3.3909699219140075,2.0279928877257873,7.503465442684564,12.272864937933328
-0.43719733615834594,-2.4554381229575446,3.411249850791265,2.1507215371051207,7.214409929703965,12.01224773235412
-0.46175171738792137,-2.383294023660505,3.4327570661623166,2.270844014428662,6.877495655032212,11.715632482046388
-0.4855846576245264,-2.314519067110183,3.455465506306603,2.388000339249126,6.50296379899495,11.399735713653392
-0.5087298482956283,-2.2494894291202336,3.4793455096990944,2.50199769638566,6.099643976876606,11.07902046630104
-0.5312247425868306,-2.1884929893514675,3.504365486662951,2.6127879010486703,5.6748919243437355,10.765701804456162
-0.5531096724803453,-2.1317440701080304,3.5304933656734376,2.720444919093232,5.234612747850072,10.46988097572236
-0.5744271131814256,-2.0793979426295297,3.55769781486437,2.8251437288504553,4.783343077895039,10.199764571438672
-0.5952210926077209,-2.031564511850579,3.5859492521528744,2.927141374564842,4.3243686418254,9.961931807288716
-0.6155367377262267,-1.9883208254323252,3.615220665898523,3.0267606926377293,3.859858215087249,9.761621280159819
-0.63541994598055,-1.9497222432814527,3.6454882728249003,3.1243769054393273,3.3909996420502133,9.603016763140303
-0.6549171684133644,-1.9158122468609506,3.6767320418792937,3.2204070730707306,2.918128008748759,9.48951884382681
-0.6740752908819739,-1.886630966773463,3.708936112610001,3.315302261508999,2.4408397745638633,9.423995046202041
-0.6929416005497085,-1.8622225690278245,3.7420891352250907,3.4095422119710195,1.958089635662818,9.409005394474379
-0.7115638262399868,-1.8426416726711963,3.7761845573448007,3.5036322659157633,1.4682691658253997,9.447003262821893
-0.7299902429666988,-1.8279589810129422,3.811220880003958,3.5981022985439823,0.9692680249317884,9.540512965893598
-0.7482698327768282,-1.8182663007636244,3.847201902989398,3.6935074282029183,0.45851996986381427,9.69228602107781
-0.7664524957844645,-1.8136811010649863,3.884136977271427,3.7904302884136962,-0.06696267192841604,9.905437405284102
-0.7845893067951144,-1.8143507277842703,3.922041280155564,3.889484662466537,-0.6105606482689504,10.183561331408011
-0.8027328140729572,-1.8204563342669597,3.9609361267802297,3.9913202757806174,-1.1760175721109087,10.530822744265821
-0.8209373774156268,-1.8322165099880687,4.000849329538036,4.096628503223275,-1.7673958544021766,10.952015196223861
-0.8392595425155075,-1.8498904685320905,4.041815614570268,4.206148655185514,-2.3890002791523126,11.452566794238274
-0.8577584472008284,-1.8737804713236137,4.083877101122123,4.320674323127896,-3.045240188427161,12.038461482491249
-0.8764962519140646,-1.9042328732078853,4.127083844353402,4.441058937952809,-3.7403842513933787,12.716019749549096
-0.8955385806461434,-1.941636715721819,4.1714944337329305,4.5682191354483,-4.478134575013581,13.491445732489392
-0.9149549478033616,-1.9864180614719549,4.217176625087413,4.703133592773193,-5.260903808015493,14.369988696514826
-0.9348191284180811,-2.0390270995521096,4.2642079610151455,4.846833479738342,-6.0886118136909415,15.354474522354284
-0.9552093994136022,-2.099913217689019,4.312676295812529,5.000378224961884,-6.956717187627043,16.442822275156473
-0.9762085315904924,-2.1694803895652894,4.362680078062148,5.164806447713449,-7.853053934151636,17.62395772029579
-0.9979033354861453,-2.248010928906806,4.414328142539283,5.341046024916407,-8.752857254630019,18.871270319447365
-1.0203834447752134,-2.335539501453106,4.467738602788447,5.529758728110881,-9.611179398485236,20.13249014494595
-1.0437388397897445,-2.431651295437958,4.523036190069556,5.731083629560341,-10.351879027407508,21.314803462018027
-1.068055352744124,-2.5351700857120334,4.58034702636516,5.944231664180521,-10.852950790242467,22.264773350837714
-1.0934070536012443,-2.6436995936144583,4.6397893430069646,6.166879397688898,-10.930101749025672,22.745500084149313
-1.119844049537389,-2.753000611104715,4.701458136983853,6.394334398530391,-10.325798311439312,22.42069390912171
-1.147374055648436,-2.856258594219108,4.765401480969158,6.618541337621608,-8.720916760265068,20.868941156308143
-1.1759366415906272,-2.9434677618217586,4.8315868943453735,6.827230749184689,-5.7977295694767665,17.66750139898653
-1.2053713192088447,-3.001445057516526,4.89985920183722,7.003905763174554,-1.3801640640116157,12.581349518645313
-1.2353857697840098,-3.015246698156642,4.969898259468965,7.129719258361007,4.37185345990766,5.825812762955251
-1.2655382367655763,-2.9715281635575654,5.041195452052575,7.18797738599056,10.839860763911842,-1.7697693656963234
-1.295253518401152,-2.863129555918447,5.113075225912481,7.1702796923335965,17.073830534240106,-8.939721746902514
-1.3238848139603365,-2.692391250576046,5.184778022835817,7.080882474864572,22.180341359302556,-14.512825077167307
-1.350808726466097,-2.4705878369830203,5.255586847584463,6.935754224092898,25.697271307063108,-17.915937560753814
-1.3755146048359272,-2.213615123912389,5.324944389825392,6.75659484848536,27.66940891508577,-19.262977061248783
-1.397650756075051,-1.9369210347615313,5.392510338310245,6.563965077872872,28.450798010097962,-19.074268912207547
-1.4170199664226664,-1.6524130546605518,5.458149989088974,6.373222388750797,28.462088608576344,-17.94365662369923
-1.4335440969692719,-1.3677921685747882,5.5218822129764815,6.193785822513805,28.04981078876142,-16.351336754208084
-1.4472220186550198,-1.087294060687174,5.58382007120162,6.0302724549717235,27.449697453070918,-14.620102264708667
-1.4580949592618915,-0.8127970861564647,5.644122795751337,5.884071432324637,26.802463219904073,-12.941604531165334
-1.4662229301234562,-0.544772453957424,5.702963510074584,5.754655387012984,26.182572929063376,-11.418269846823703
-1.4716706546630305,-0.2829467246667903,5.7605100639447135,5.640472688544747,25.62312357979658,-10.098382489976068
-1.4745001219096985,-0.026715488868824466,5.816914790830161,5.539488863644987,25.133140326445087,-8.999924238514279
-1.4747672767983868,0.2246159143956264,5.8723096794666105,5.449489621259844,24.708415406647973,-8.125148719789243
-1.4725211176544306,0.4717000684621061,5.926804575679209,5.368238134061952,24.337923130719847,-7.4689054054444215
-1.4678041169698095,0.7150792997693046,5.980486957019829,5.293549080007508,24.007491655192194,-7.02312018928372
-1.4606533239721164,0.9551542163212265,6.033422447819904,5.2233178781146705,23.701867950070778,-6.779029353878008
-1.4511017818089043,1.1921728958219344,6.08565562660105,5.15552758457589,23.405878974010193,-6.728141833457676
-1.4391800528506848,1.4262316855620363,6.137210902446809,5.088246166241313,23.105103611270593,-6.862500618199691
-1.4249177359950644,1.657282721674742,6.188093364109222,5.019621160059316,22.786291996946602,-7.174571095756138
-1.408344908778317,1.885145641644208,6.238289575709815,4.947875449101755,22.4376628430167,-7.656944072545215
-1.389493452361875,2.109522270074375,6.287768330200833,4.871306008376303,22.049147030033037,-8.301962771031274
-1.3683982296611312,2.330013740374705,6.336481390284596,4.7882863806659905,21.61260909237912,-9.101340118587732
-1.345098092257384,2.5461398312984964,6.384364254091255,4.697272979480113,21.122056628205012,-10.045809471794978
-1.319636693944399,2.7573603975805465,6.431336983886056,4.596814884762163,20.573835014920636,-11.124839396725326
-1.2920630899685936,2.963098747729753,6.477305132733678,4.48556649079491,19.96679772428872,-12.326435943123515
-1.2624321024912961,3.16276672497264,6.522160797641627,4.362302131363675,19.302439164491815,-13.637050957375079
-1.2308044352415697,3.3557911166175582,6.565783818955263,4.2259316217899245,18.58497632360211,-15.041610659887361
-1.197246524075394,3.5416408798535794,6.608043135173163,4.075515515191051,17.821366967834265,-16.52367406308224
-1.1618301152768582,3.719854549531922,6.6487982903250735,3.9102787745602283,17.02125536674493,-18.065725436299154
-1.124631569781539,3.8900671031993714,6.687901078070676,3.7296215201972367,16.196841145881397,-19.64959888320443
-1.0857308987495453,4.0520355146581855,6.7251972932726485,3.5331255313651924,15.362672571061156,-21.257026372483352
-1.0452105436029635,4.205662240368797,6.760528548586301,3.320555267640359,14.535371976277686,-22.870293615590402
-1.0031539211992755,4.351015960131574,6.793734101262705,3.091852331484455,13.733307731345302,-24.472981512504173
-0.9596437615979597,4.488349037445027,6.824652624577549,2.847122516359413,12.976233604766513,-26.050765077319088
-0.9147602712235094,4.618111373492692,6.853123849741143,2.5866148655862222,12.284922020770138,-27.592237423880228
-0.8685791574885825,4.740960593700393,6.878989998397006,2.31069249134742,11.68082183743209,-29.089724046048143
-0.8211695515515786,4.857768812074714,6.90209692331048,2.0197952508869386,11.185773048511699,-30.540052445194803
-0.7725918634308314,4.969626542559832,6.922294875819349,1.7143947264349906,10.82180919021345,-31.94524362442906
-0.7228955980052331,5.077844634461966,6.939438823083699,1.3949422901907,10.611071773614885,-33.31309332051897
-0.6721171516606134,5.183955352198115,6.953388245985606,1.0618113569855103,10.575847470508087,-34.65760818943629
-0.6202775981386323,5.2897138269031965,6.96400635955546,0.7152352750911475,10.738713921694417,-35.9992480051125
-0.5673804598696003,5.39710096612014,6.971158712306372,0.3552427950400225,11.122735940096833,-37.36488550052794
-0.5134094502083989,5.508328325521108,6.9747111402567725,-0.018406059965256905,11.751574864659768,-38.787305663959565
-0.45832616695318784,5.6258440741677065,6.97452707965712,-0.40627911660485255,12.649229212480279,-40.30388000005218
-0.40206772621151077,5.752336366292509,6.970464288491072,-0.8093179166053743,13.838855616741071,-41.953683424980106
-0.34454436254858567,5.89072492245992,6.962371109325018,-1.2288547508551755,15.339615110886983,-43.77161668788906
-0.28563711332398645,6.04412107356879,6.950082561816465,-1.6665709177340662,17.159554990329354,-45.776782318337666
-0.22519590258829855,6.215716623472083,6.933416852639125,-2.124338740917443,19.280856120167833,-47.950002798129226
-0.1630387363535777,6.408525184673762,6.912173465229951,-2.603838768898735,21.63097077534329,-50.19145218810016
-0.09895348450684009,6.624834892427194,6.886135077540963,-3.1057532907797367,24.029282023449973,-52.24398782688273
-0.03270513558256814,6.865127712661694,6.855077544633166,-3.628193169048564,26.09635703566459,-53.56441407591093
0.03594614154404881,7.12609128301834,6.81879561294268,-4.163837309807674,27.122483121191344,-53.13899567918247
0.10720705437423221,7.397316114230254,6.777157239844604,-4.695227266599499,25.945468597187098,-49.315603535264124
0.18118021551653474,7.656770800202125,6.730204967178609,-5.188383301952141,21.037179070624187,-39.936754333840966
0.257747923518556,7.867142590908367,6.678321134159088,-5.58775084529055,11.203332637412606,-23.346591584891012
0.3364193494276397,7.979175917282493,6.6224436257061825,-5.8212167611394605,-2.9318601553790242,-0.510220980181808
0.4162111086004646,7.949857315728703,6.564231458094788,-5.826318970941278,-17.918659009014657,23.553557301492127
0.49570968175775165,7.770670725638557,6.5059682683853755,-5.590783397926357,-29.214345811226273,42.24413583664248
0.5734163890141373,7.478527267526294,6.450060434406112,-5.168342039559932,-34.60330480151199,52.27115956399755
0.6482016616894002,7.132494219511174,6.398377014010513,-4.6456304439199565,-35.04522563835512,54.907153070969756
0.719526603884512,6.7820419631276225,6.3519207095713135,-4.096558913210259,-32.71205165459903,53.217959031458925
0.7873470235157882,6.454921446581633,6.3109551204392105,-3.56437932289567,-29.33332488911442,49.690120166072454
0.8518962379816045,6.161588197690488,6.275311327210254,-3.0674781212349456,-25.85759080075105,45.7180562683352
0.9135121199585094,5.9030122896829775,6.2446365459979045,-2.6102975585515935,-22.691715034615015,41.92462978262739
0.9725422428553392,5.6760951393368275,6.218533570412388,-2.1910512607253194,-19.962475679622667,38.525936915267174
1.0293031942487074,5.476470382540601,6.196623057805135,-1.8057918915726476,-17.673952632801388,35.554501060402224
1.0840678980741134,5.299730856212587,6.178565138889408,-1.4502468809686253,-15.784683859138847,32.970680208662216
1.1370652066362392,5.141884017621199,6.164062670079722,-1.1205400788820032,-14.241511433743554,30.71287909802118
1.1884840468124511,4.999468903283764,6.152857269290902,-0.8134112879017914,-12.992982531639278,28.718438057697067
1.2384787358452887,4.869539077967371,6.144723156411883,-0.5262269073248207,-11.993771330903819,26.93136904145269
1.2871741266249623,4.749601364658333,6.139460887338635,-0.2569132169102938,-11.205403538373822,25.304478107266384
1.3346701402715457,4.637547329274595,6.136891755169533,-0.003868435837629969,-10.595609406259154,23.79924473155992
1.3810456135642917,4.531591235212003,6.136853070811156,0.23412401147796924,-10.137290612111329,22.384916837013968
1.4263615259164117,4.43021832909089,6.139194310925936,0.4579731798481089,-9.807494624841967,21.037425745243166
1.4706637092073207,4.33214338284247,6.143774042724417,0.6683474373005406,-9.5865346847015,19.738350647349847
1.5139851430357454,4.236278035995455,6.150457517097423,0.865730943774039,-9.457286699616708,18.47400285795288
1.5563479233956998,4.141705168999288,6.159114826535164,1.050470972353568,-9.40465241694577,17.23463645113954
1.5977649750856928,4.047658644829831,6.1696195362587,1.2228173368649633,-9.415164062387207,16.013770014886706
1.6382415615339911,3.9535070042059584,6.181847709627349,1.3829550370138304,-9.476702956306786,14.807599966322405
1.6777766315760507,3.8587399746428903,6.195677259997487,1.5310310366770543,-9.578306382550226,13.614488269321114
1.7163640313224797,3.762956910817388,6.210987570364258,1.6671759193702655,-9.710040241409175,12.434511679182709
1.7539936004306536,3.6658565084032966,6.2276593295579605,1.7915210361620926,-9.862918586378933,11.269063772483344
1.7906521655146865,3.567227322539507,6.2455745399195814,1.904211673886926,-10.02885458604924,10.120504249932976
1.8263244387400817,3.4669387766790147,6.2646166566584505,2.0054167163862555,-10.200630620216888,8.99185216469972
1.8609938265068717,3.364932470476846,6.284670823822313,2.0953352380332526,-10.37187806532517,7.886520933933797
1.8946431512116402,3.2612136898235944,6.305624176202645,2.1742004473725904,-10.537059829101649,6.808093450413047
1.9272552881098761,3.155843091532578,6.327366180676371,2.242281381876721,-10.691450846009777,5.760135562464092
1.958813719025202,3.04892858307248,6.349788994495139,2.299882737501362,-10.831113538770113,4.74604585257501
1.9893030048559268,2.940617447684779,6.372787821870152,2.3473431960271123,-10.952866692161331,3.768939196114382
2.0187091793327747,2.831088780763166,6.396261253830423,2.385032587988256,-11.054247292070079,2.831561149499588
2.0470200671404064,2.720546307842465,6.420111579710306,2.413348199483252,-11.13346568647611,1.9362298817865191
2.0742255302188313,2.609211650977704,6.444245061705138,2.4327104983011174,-11.189354966534088,1.0848021633260216
2.1003176467286084,2.497318101312363,6.4685721666881495,2.4435585199343777,-11.221315791137117,0.278659866758176
2.125290827741732,2.3851049434009917,6.493007751887493,2.4463451186019594,-11.229258033885774,-0.4812864946925257
2.149141877175742,2.2728123630621337,6.517471203073513,2.441532253655034,-11.21354066053952,-1.1945804940017877
2.171870000806363,2.1606769564567387,6.541886525610064,2.429586448715016,-11.174911185267424,-1.8611918377749648
2.1934767703709306,2.0489278446040644,6.566182390097214,2.410974530337266,-11.114445935795741,-2.4814804962947155
2.213966048816971,1.937783385246107,6.590292135400587,2.386159725374319,-11.033492204276495,-3.0561553608976397
2.2333438826694323,1.827448463203342,6.61415373265433,2.3555981717653425,-10.933613189506946,-3.5862295502135058
2.251618367301466,1.7181123313082727,6.637709714371984,2.3197358762632074,-10.816536459068033,-4.072974170285778
2.2687994906145486,1.6099469667175923,6.660907073134616,2.27900613456035,-10.68410648528067,-4.5178720319899615
2.2848989602817245,1.5031059018647857,6.683697134480219,2.23382741424045,-10.538241642214915,-4.922572547491083
2.299930019300372,1.3977234854426366,6.706035408622624,2.1846016887655395,-10.380895896186955,-5.288848768564355
