th1 (rad),w1 (rad/s),th2 (rad),w2 (rad/s),a1 (rad/s^2),a2 (rad/s^2)
1.808518265515882,2.484444219724989,3.7040958276859812,-2.3671430433356924,-7.342467994683557,-2.966369935721064
1.8333627077131318,2.4110195397781538,3.6804243972526245,-2.396806742692903,-7.039473966763712,-2.4839998625003386
1.8574729031109134,2.3406248001105165,3.6564563298256956,-2.421646741317906,-6.774995550723765,-2.0434171030560684
1.8808791511120186,2.2728748446032787,3.6322398624125167,-2.442080912348467,-6.546469510869966,-1.6398918624365533
1.9036078995580514,2.2074101494945793,3.607819053289032,-2.4584798309728324,-6.351440892060791,-1.2689404361980146
1.9256820010529971,2.143895740573971,3.5832342549793035,-2.4711692353348127,-6.187603957164935,-0.9263842835178386
1.9471209584587368,2.082019701002322,3.5585225626259556,-2.480433078169991,-6.052821886782073,-0.6083802722980802
1.96794115546876,2.021491482134501,3.5337182318442557,-2.486516880892972,-5.945131391375375,-0.3114318506881407
1.988156070290105,1.9620401682207471,3.508853063035326,-2.4896311993998532,-5.862736795408522,-0.0323882835948699
2.0077764719723126,1.903412800266662,3.4839567510413274,-2.489955082235802,-5.8039969202204,0.23156293375353973
2.0268105999749793,1.845372831064458,3.4590572002189695,-2.4876394528982666,-5.767407165372818,0.48290691812111536
2.045264328285624,1.7876987594107296,3.4341808056899867,-2.4828103837170556,-5.751578513067654,0.7238130976402228
2.063141315879731,1.7301829742800532,3.409352701852816,-2.4755722527406534,-5.755214707576282,0.956146253009926
2.0804431456225316,1.6726308272042905,3.3845969793254094,-2.466010790210554,-5.777088549173918,1.1814760600901535
2.0971694538945744,1.6148599417125513,3.359936871423304,-2.4541960296096526,-5.8160180546606615,1.4010848189590104
2.1133180533117,1.5566997611659448,3.3353949111272074,-2.4401851814200626,-5.870843144919614,1.6159734746331804
2.1288850509233592,1.4979913297167486,3.310993059313007,-2.4240254466737308,-5.940403499003958,1.8268663792755706
2.1438649642205267,1.438587294726709,3.2867528048462695,-2.405756782880975,-6.023518241170747,2.0342155319255593
2.158250837167794,1.3783521123150015,3.26269523701746,-2.3854146275617194,-6.118968180000951,2.238205265188905
2.172034358290944,1.317162430514992,3.238841090741843,-2.3630325749098304,-6.225481374728609,2.4387585243885495
2.185205982596094,1.254907616767706,3.2152107649927446,-2.338644989665945,-6.341722839727714,2.635545990505174
2.197755058763771,1.1914903883704289,3.191824315096085,-2.312289529760893,-6.466289189956872,2.8279993150734097
2.2096699626474754,1.1268274964708602,3.1687014197984764,-2.284009536610159,-6.597708955382375,3.0153296419950224
2.220938237612184,1.0608504069170364,3.1458613244323748,-2.253856240190209,-6.734449132145366,3.196552369340944
2.2315467416813544,0.9935059155955827,3.123322762030473,-2.2218907164967994,-6.87492828099536,3.3705187430307353
2.24148180083731,0.924756632785629,3.1011038548655048,-2.188185529066492,-7.017536128983202,3.5359543771296837
2.2507293671651665,0.854581271495797,3.0792219995748398,-2.152825985295195,-7.160659192923727,3.6915041847429224
2.2592751798801243,0.7829746795665598,3.0576937397218877,-2.115910943447766,-7.302711453555309,3.8357825233435747
2.2671049266757897,0.7099475650310066,3.03653463028741,-2.0775531182143303,-7.442168614313854,3.9674266741365387
2.2742044023260997,0.6355258788878682,3.0157590991052667,-2.037878851472965,-7.577604036637575,4.085151167560655
2.2805596611149785,0.5597498385214924,2.995380310590537,-1.9970273397973586,-7.7077241174064905,4.187800022323407
2.2861571595001933,0.4826725973474275,2.975410037192564,-1.9551493395741244,-7.831400720272006,4.274393760776395
2.2909838854736675,0.40435859014470743,2.955858543796823,-1.9124054019663606,-7.947698331123649,4.344168152518894
2.2950274713751146,0.32488160683347095,2.9367344897771592,-1.8689637204411715,-8.05589389235311,4.396602037813623
2.2982762874434495,0.24432266790993984,2.9180448525727476,-1.8249977000630353,-8.155487762904972,4.431432266007212
2.300719514122549,0.1627677902808901,2.8997948755721175,-1.7806833774029631,-8.246204902345777,4.448654682402936
2.302347192025358,0.08030574125743234,2.881988041798088,-1.7361968305789337,-8.327986114223211,4.4485111079038955
2.303150249437932,-0.0029741198847997724,2.8646260734922984,-1.6917117194998947,-8.40096992155356,4.431463261173123
2.303120508239084,-0.08698381910033538,2.8477089562972995,-1.6473970868881636,-8.465466302337301,4.39815545895931
2.3022506700480805,-0.1716384821237084,2.831234985428418,-1.6034155322985704,-8.521924018355438,4.349368605232637
2.3005342852268433,-0.2568577223072628,2.815200830105432,-1.559921846246244,-8.570893584551051,4.28596838852662
2.2979657080037708,-0.3425666581527733,2.7996016116429696,-1.517062162360978,-8.612988037232592,4.208850735538432
2.294540041422243,-0.42869653852509926,2.78443099001936,-1.4749736550055936,-8.648843583325844,4.118887442437501
2.290253076036992,-0.5151849743583576,2.769681253469304,-1.4337847805812187,-8.679081987572994,4.01687457759784
2.2851012262934085,-0.6019757942340875,2.755343405663492,-1.3936160348052402,-8.704276229729642,3.903485790959306
2.279081468351068,-0.689018556531384,2.7414072453154397,-1.354581176895647,-8.724920591755806,3.7792321490124987
2.272191282785754,-0.776267762448942,2.727861433546483,-1.316788855405522,-8.741405962392305,3.644429604971176
2.2644286051612648,-0.863681822072865,2.7146935449924277,-1.2803445593558103,-8.754000808856885,3.4991747593864417
2.255791786940536,-0.9512218301614339,2.7018900993988697,-1.245352811761946,-8.762837984486728,3.343329196101176
2.2462795686389216,-1.0388502100063013,2.6894365712812505,-1.211919519800934,-8.767907325196266,3.176512401658776
2.2358910665388585,-1.1265292832582638,2.677317376083241,-1.1801543957843463,-8.769053833209608,2.9981030863909415
2.224625773706276,-1.21421982159036,2.6655158321253976,-1.1501733649204369,-8.765981141743268,2.807248603847439
2.2124835754903724,-1.3018796330077926,2.654014098476193,-1.1221008788819624,-8.75825988217498,2.602882086434379
2.1994647791602944,-1.3894622318295424,2.6427930896873733,-1.0960720580176186,-8.74534051704136,2.383746851259274
2.1855701568419987,-1.476915636999956,2.631832369107197,-1.0722345895050258,-8.726570140506373,2.148427555302801
2.1708010004719993,-1.5641813384050198,2.6211100232121467,-1.0507503139519978,-8.701212668982958,1.8953874726020141
2.155159187087949,-1.6511934650948494,2.610602520072627,-1.0317964392259777,-8.668471740259664,1.623011115759181
2.1386472524370004,-1.737878182497446,2.600284555680367,-1.015566328068386,-8.627515508688743,1.329651227592464
2.121268470612026,-1.8241533375843335,2.590128892399683,-1.0022698157924614,-8.57750237339705,1.0136789352473639
2.1030269372361827,-1.909928361318304,2.5801061942417585,-0.9921330264399878,-8.51760652046278,0.6735356090594639
2.083927653623,-1.9951044265229319,2.570184863977359,-0.9853976703493932,-8.447042019630624,0.3077847323280393
2.0639766093577703,-2.079574846719238,2.560330887273865,-0.9823198230261128,-8.365084117049156,-0.08483809668850009
2.043180860890578,-2.1632256878897294,2.550507689043604,-0.9831682039929978,-8.271086334654047,-0.5053790031446569
2.021548604011681,-2.24593655123627,2.540676007003674,-0.9882219940244443,-8.16449204829923,-0.9546254539817832
1.9990892384993182,-2.327581471719262,2.5307937870634296,-0.9977682485642622,-8.04483938729108,-1.433073410678863
1.9758134237821257,-2.408029865592173,2.520816104577787,-1.0120989826710507,-7.911758582804712,-1.940903424452516
1.951733125126204,-2.48714745142022,2.5106951147510763,-1.031508016915576,-7.764961282535471,-2.4779665870777388
1.9268616506120018,-2.5647970642455746,2.5003800345819207,-1.0562876827863532,-7.604221819474905,-3.043780642073709
1.901213679969546,-2.6408392824403237,2.4898171577540573,-1.0867254892070903,-7.429350936246589,-3.637535894326163
1.8748052871451428,-2.7151327918027897,2.4789499028619866,-1.123100848150352,-7.240162976632651,-4.258109900448347
1.8476539592271148,-2.787534421569116,2.467718894380483,-1.1656819471548354,-7.036438014256264,-4.904089350910075
1.8197786150114237,-2.857898801711679,2.456062074908935,-1.214722840663936,-6.81788075157975,-5.573797135382403
1.791199626994307,-2.9260776092274763,2.4439148465022953,-1.27046081201776,-6.584078259088767,-6.265322365491075
1.7619388509020322,-2.991918391818364,2.4312102383821177,-1.3331140356726707,-6.334458719981034,-6.976551140907302
1.7320196669838486,-3.0552629790181745,2.417879098025391,-1.4028795470817437,-6.0682533032347505,-7.705196084856438
1.7014670371936669,-3.115945512050522,2.4038503025545737,-1.4799315079303081,-5.784463127419213,-8.448823117244249
1.6703075820731617,-3.173790143324714,2.3890509874752706,-1.5644197391027506,-5.481833030797408,-9.2048745307143
1.6385696806399146,-3.228608473632688,2.373406790084243,-1.6564684844098936,-5.158833567653009,-9.97068812746992
1.6062835959035877,-3.280196809309218,2.356842105240144,-1.7561753656845929,-4.813652342979001,-10.743512899010193
1.5734816278104955,-3.328333332739008,2.339280351583298,-1.8636104946746948,-4.444195507760552,-11.52052242694205
1.5401982944831054,-3.3727752878166135,2.320644246636551,-1.9788157189441153,-4.048099984720326,-12.298827799357014
1.5064705416049393,-3.413256287663817,2.3008560894471097,-2.1018039969376856,-3.622756787228026,-13.075492333555417
1.472337978728301,-3.449483855536097,2.279838049477733,-2.23255892027324,-3.165345628474267,-13.847550742421056
1.4378431401729401,-3.4811373118208397,2.2575124602750005,-2.3710344276974507,-2.672880881701003,-14.612035556801018
1.4030317670547316,-3.50786612063785,2.233802115998026,-2.517154783265461,-2.142268828498526,-15.366013602359857
1.3679531058483532,-3.529288808922835,2.2086305681653715,-2.6708149192890596,-1.5703760048598912,-16.106635109045765
1.332660217759125,-3.544992568971434,2.181922418972481,-2.831881270379517,-0.9541083144841414,-16.831197582809647
1.2972102920694106,-3.5545336521162754,2.153603606268686,-3.0001932462076137,-0.29050042991483116,-17.537225862676717
1.261664955548248,-3.5574386564154237,2.12360167380661,-3.1755655048343807,0.4231851299849375,-18.222568779490913
1.2260905689840937,-3.5532068051155745,2.091846018758266,-3.35779119262929,1.1893499167429773,-18.885511465723418
1.190558500932938,-3.5413133059481448,2.058268106831973,-3.546646307286524,2.009943020979067,-19.524900552555312
1.1551453678734567,-3.521213875738354,2.0228016437591076,-3.741895312812077,2.8863362100684538,-20.14027710441848
1.119933229116073,-3.49235051363767,1.9853826906309868,-3.943298083856262,3.8191898481804247,-20.732008991114448
1.0850097239796963,-3.4541586151558654,1.945949709792424,-4.150618173767406,4.808306804663998,-21.301410188293392
1.0504681378281377,-3.4060755471092254,1.90444352805475,-4.363632275650341,5.85246825823511,-21.85082876710338
1.0164073823570454,-3.3475508645268746,1.8608072052982467,-4.582140563321374,6.949239926730152,-22.383677362125347
0.9829318737117767,-3.2780584652595732,1.814985799665033,-4.805977336942628,8.094728832522309,-22.904368578553306
0.950151289059181,-3.1971111769343503,1.7669260262956066,-5.035021022728161,9.283257923107712,-23.418101429144073
0.9181801772898375,-3.1042785977032734,1.7165758160683249,-5.2692020370196015,10.506906918757952,-23.93042101838151
0.8871373913128048,-2.999209528515694,1.663883795698129,-5.5085062472034165,11.754840383873344,-24.446438926522138
0.8571452960276479,-2.8816611246769606,1.6087987332260947,-5.752970636468638,13.012305670352609,-24.969551886770805
0.8283286847808783,-2.7515380679734345,1.5512690268614082,-6.002666155336346,14.259132110333548,-25.499427314791806
0.8008133041011439,-2.608946746870099,1.4912423653080447,-6.2576604284842645,15.467499774609998,-26.028935116558795
0.7747238366324429,-2.454271749123999,1.428665761023202,-6.517949779649852,16.598681572001112,-26.539606035479245
0.7501811191412029,-2.288284933403988,1.3634862632267035,-6.783345840004644,17.598429401495345,-26.995126516750528
0.7272982698071631,-2.1123006393890345,1.2956528048266571,-7.05329710517215,18.390755901590712,-27.332442790131026
0.7061752634132727,-1.9283930803731273,1.2251198337749356,-7.32662153307346,18.870235941139942,-27.45047576281312
0.6868913326095415,-1.7396907209617278,1.151853618444201,-7.6011262907015915,18.893947599015206,-27.197689208316444
0.6694944253999242,-1.5507512449715757,1.075842355537185,-7.873103182784756,18.276283266886324,-26.362487773452813
0.6539869129502085,-1.3679884123027124,0.9971113237093374,-8.136728060519284,16.793488872945986,-24.675244989440042
0.6403070288271814,-1.2000535235732526,0.9157440431041446,-8.383480510413683,14.20928224367848,-21.83690945879696
0.6283064935914489,-1.0579607011364678,0.8319092380000077,-8.601849605001654,10.334497100573945,-17.59169148416339
0.6177268865800842,-0.9546157301307283,0.7458907419499912,-8.777766519843288,5.123718975271367,-11.848708507013963
0.608180729278777,-0.9033785403780147,0.6581130767515583,-8.896253604913428,-1.218613698367648,-4.817563676766993
0.5991469438749968,-0.9155646773616911,0.569150540702424,-8.944429241681098,-8.191379414418579,2.9314518320344454
0.5899912971013799,-0.9974784715058769,0.47970624828561303,-8.915114723360754,-15.082881657071285,10.577874614159478
0.5800165123863211,-1.1483072880765897,0.3905551010520055,-8.809335977219158,-21.18514933638142,17.323514570867367
0.5685334395055552,-1.360158781440404,0.30246174127981396,-8.636100831510484,-26.01756936537665,22.669360765700816
0.5549318516911512,-1.6203344750941704,0.2161007329647091,-8.409407223853476,-29.423120013895176,26.521562860640746
0.5387285069402096,-1.9145656752331222,0.13200666072617434,-8.144191595247069,-31.510724084685773,29.100348519111634
0.5195828501878783,-2.2296729160799797,0.05056474477370365,-7.853188110055952,-32.52562712051007,30.76508843565484
0.49728612102707853,-2.5549291872850803,-0.027967136326855865,-7.5455372256994035,-32.73698047595496,31.871158877124635
0.4717368291542277,-2.88229899204463,-0.10342250858384991,-7.226825636928157,-32.37723081034384,32.69875016420466
0.4429138392337814,-3.2060713001480683,-0.17569076495313146,-6.89983813528611,-31.624572591336893,33.43781807183484
0.41085312623230075,-3.522317026061437,-0.24468914630599256,-6.565459954567761,-30.607991155384983,34.200586982632565
0.37562995597168636,-3.828396937615287,-0.3103437458516702,-6.2234540847414355,-29.41962816543915,35.041666050544464
0.3373459865955335,-4.122593219269678,-0.37257828669908455,-5.87303742423599,-28.126874758397204,35.97655850570109
0.29612005440283673,-4.4038619668536505,-0.43130866094144443,-5.513271839178979,-26.781599677235167,36.995874123481
0.2520814347343002,-4.671677963626002,-0.4864413793332342,-5.143313097944169,-25.426243197867578,38.07534370543198
0.2053646550980402,-4.925940395604678,-0.537874510312676,-4.762559660889849,-24.09729175625626,39.182500270839355
0.15610525114199342,-5.166913313167241,-0.5855001069215745,-4.370734658181456,-22.826754708038315,40.28083494339881
0.10443611801032102,-5.395180860247624,-0.629207453503389,-3.9679263087474674,-21.642133281749995,41.33193953256963
0.05048430940784478,-5.611602193065124,-0.6688867165908637,-3.5546069134217713,-20.565179179941442,42.295833679694326
-0.005631712522806469,-5.817253984864538,-0.7044327857250815,-3.131648576624828,-19.609540881839298,43.12940163024678
-0.06380425237145185,-6.013349393682931,-0.7357492714913297,-2.7003545603223604,-18.777202287745283,43.78263928106571
-0.12393774630828117,-6.201121416560384,-0.7627528170945533,-2.2625281675117033,-18.053447670478793,44.19225188424005
-0.185948960473885,-6.381655893265172,-0.7853780987696704,-1.8206056486693027,-17.399999566615584,44.27212640796724
-0.24976551940653674,-6.555655888931328,-0.8035841552563634,-1.3778843845896303,-16.746134705736267,43.90055613468251
-0.31532207829585,-6.723117235988691,-0.8173629991022597,-0.9388788232428051,-15.978340544384883,42.90531614360814
-0.3825532506557369,-6.88290064143254,-0.8267517873346878,-0.5098256618067237,-14.931059775523705,41.050659310408676
-0.4513822570700623,-7.032211239187777,-0.8318500439527551,-0.09931906870263696,-13.385065393736076,38.036101845110935
-0.5217043694619401,-7.166061893125138,-0.8328432346397815,0.2810419497484724,-11.086050871778319,33.525454644641556
-0.5933649883931915,-7.2769224018429215,-0.8300328151422968,0.616296496194888,-7.800803166629712,27.2310445042042
-0.6661342124116207,-7.354930433509218,-0.8238698501803479,0.88860694123693,-3.421422836241837,19.067366461856924
-0.739683516746713,-7.3891446618716365,-0.8149837807679786,1.0792806058554991,1.9058225362328447,9.338649338214365
-0.8135749633654293,-7.370086436509308,-0.8041909747094236,1.1726670992376427,7.707835217906731,-1.1585668019225934
-0.8872758277305224,-7.293008084330241,-0.7924643037170471,1.1610814312184168,13.271196031787603,-11.268433319503709
-0.9602059085738248,-7.160296124012365,-0.780853489404863,1.0483970980233797,17.89700346431587,-19.857993990126033
-1.0318088698139485,-6.9813260893692055,-0.7703695184246292,0.8498171581221193,21.170330762316794,-26.22382451978559
-1.1016221307076406,-6.769622781746038,-0.761871346843408,0.5875789129242635,23.057600743455158,-30.247074678971828
-1.169318358525101,-6.539046774311486,-0.7559955577141654,0.28510816613454515,23.80511504780204,-32.251984819002146
-1.234708826268216,-6.300995623833465,-0.75314447605282,-0.03741168205547635,23.763493770702077,-32.74720827443363
-1.2977187825065506,-6.063360686126445,-0.7535185928733747,-0.36488376479981266,23.256642756399028,-32.225927614017834
-1.358352389367815,-5.830794258562454,-0.7571674305213729,-0.687143040939991,22.526816088881155,-31.075858549120326
-1.4166603319534397,-5.605526097673643,-0.7640388609307728,-0.9979016264311943,21.731703604642984,-29.567286100355993
-1.472715592930176,-5.3882090616272125,-0.7740178771950847,-1.2935744874347543,20.962694827168818,-27.87489597273842
-1.526597683546448,-5.1785821133555245,-0.7869536220694323,-1.5723234471621386,20.26596720286286,-26.106035059884924
-1.5783835046800034,-4.975922441326896,-0.8026768565410537,-1.833383797760988,19.65945515858533,-24.32439127544544
-1.6281427290932724,-4.779327889741042,-0.8210106945186636,-2.0766277105154423,19.144625936051423,-22.56683287308836
-1.6759360079906829,-4.587881630380528,-0.841776971623818,-2.302296039246326,18.71403487012077,-20.854400554068775
-1.7218148242944882,-4.40074128167932,-0.8647999320162812,-2.5108400447870136,18.355948891608016,-19.19911187573175
-1.7658222371112813,-4.21718179276324,-0.8899083324641514,-2.702831163544331,18.057084212785746,-17.60800937198898
-1.8079940550389137,-4.0366109506353824,-0.9169366440995946,-2.878911257264221,17.804180340340224,-16.085479189219612
-1.8483601645452676,-3.85856914723198,-0.9457257566722368,-3.0397660491564173,17.584871920902025,-14.63451876586288
-1.8869458560175874,-3.68272042802296,-0.976123417163801,-3.186111236815046,17.38814124635328,-13.257383444465457
-1.923773060297817,-3.508839015559427,-1.0079845295319514,-3.3186850712597007,17.204520744879012,-11.955878034169134
-1.9588614504534112,-3.336793808110637,-1.0411713802445484,-3.438243851601392,17.026145697903218,-10.731455379062625
-1.9922293885345175,-3.166532351131605,-1.0755538187605622,-3.5455584053920184,16.84671648174128,-9.585219161446952
-2.0238947120458337,-2.998065186314192,-1.1110094028144823,-3.641410597006488,16.661405805017942,-8.517887981672475
-2.0538753639089755,-2.8314511282640127,-1.1474235087845472,-3.7265894768232126,16.466732703875213,-7.529752844808217
-2.0821898751916157,-2.6667838012252605,-1.1846894035527793,-3.8018870052712948,16.260417189991397,-6.620644725263026
-2.1088577132038684,-2.5041796293253467,-1.2227082736054922,-3.868093452523925,16.04122486783948,-5.789919310572105
-2.133899509497122,-2.343767380646952,-1.2613892081307314,-3.925992645629646,15.808808053611992,-5.036460169658277
