th1 (rad),w1 (rad/s),th2 (rad),w2 (rad/s)
1.359224100115225,-0.769552688447048,4.2074820949412075,-2.6665723165866586
1.3515285732307545,-0.853163354683071,4.180816371775341,-2.6625523956095503
1.3429969396839239,-0.9365539040178761,4.154190847819246,-2.6596685487268568
1.333631400643745,-1.0198388016781927,4.127594162331977,-2.658169754049387
1.3234330126269631,-1.1031200686831177,4.101012464791483,-2.658297695815628
1.312401811940132,-1.1864866797529943,4.074429487833327,-2.6602860078879838
1.300536945142602,-1.270014224606687,4.047826627754447,-2.6643598615098694
1.2878368028965352,-1.3537647517691178,4.021183029139348,-2.670735784352178
1.274299155378844,-1.437786726456106,3.9944756712958265,-2.6796216168481486
1.259921288114283,-1.5221150462594892,3.967679455127345,-2.6912165297857467
1.244700137651688,-1.6067710695445274,3.9407672898294877,-2.7057110432727454
1.2286324269562428,-1.6917626213596284,3.91371017939676,-2.7232870011515473
1.2117148007426464,-1.7770839501474804,3.8864773093852447,-2.744117466668055
1.1939439612411715,-1.8627156156882039,3.859036134718564,-2.7683665148307868
1.1753168050842895,-1.9486242946353725,3.8313524695702563,-2.7961889046730697
1.1558305621379357,-2.0347624948998853,3.8033905805235255,-2.827729620832667
1.1354829371889368,-2.1210681741786233,3.7751132843151987,-2.8631232787701886
1.1142722554471505,-2.2074642612888455,3.746482051527497,-2.9024933918178526
1.092197612834262,-2.293858081810006,3.7174571176093183,-2.9459515013065594
1.0692590320161621,-2.3801406919832595,3.6879976025962526,-2.9935961734457357
1.0454576250963294,-2.466186126983355,3.658061640861795,-3.045511868573282
1.020795763826496,-2.551850571645722,3.6276065221760625,-3.101767689965414
0.9952772581100388,-2.6369714635762755,3.5965888452764085,-3.1624160206859715
0.968907543474276,-2.7213665403573555,3.564964685069549,-3.2274910580336877
0.9416938780707025,-2.804832844354244,3.532689774489212,-3.297007256081261
0.91364554962716,-2.8871457004947705,3.499719701928399,-3.370957687667917
0.8847740926222123,-2.968057684428305,3.46601012505172,-3.449312338106843
0.8550935157779292,-3.047297600784114,3.4315170016706515,-3.5320163439388033
0.8246205397700881,-3.124569493989593,3.3961968382312637,-3.6189881914965114
0.7933748448301922,-3.1995517174610475,3.3600069563162984,-3.7101178921029
0.7613793276555817,-3.271896091166249,3.3229057773952695,-3.8052651537519666
0.7286603667439192,-3.341227182833466,3.28485312585775,-3.904257573538412
0.6952480949155846,-3.4071417547158154,3.245810550122366,-4.006888881413606
0.6611766773684264,-3.4692084260683043,3.20574166130823,-4.112917274606764
0.6264845931077434,-3.526967611553261,3.1646124885621623,-4.2220638938291355
0.5912149169922107,-3.579931807727284,3.1223918496238707,-4.334011507684904
0.5554155989149379,-3.627586313435235,3.0790517345470216,-4.44840349089608
0.5191397357805855,-3.6693904848780807,3.034567699638061,-4.564843205067398
0.48244583093180465,-3.7047796414191905,2.988919267587387,-4.682893917369001
0.44539803451761273,-3.7331677523594475,2.942090328413697,-4.802079421647029
0.4080663569940183,-3.753951045765091,2.894069534197227,-4.9218855561859325
0.37052684653636736,-3.7665126850303174,2.8448506786353676,-5.041762839724044
0.3328617196860642,-3.7702286535066514,2.794433050238127,-5.161130468330626
0.2951594331509977,-3.764474967940099,2.7428217455548207,-5.2793819252690275
0.2575146834715967,-3.748636303070802,2.6900279263021303,-5.395892448033409
0.22002832044088866,-3.7221160483265034,2.636069001821796,-5.510028565066331
0.18280715995762362,-3.6843477299790304,2.5809687161711325,-5.621159853476211
0.14596368265783333,-3.634807617519812,2.5247571176363706,-5.728672974321143
0.10961560648263521,-3.573028193783717,2.467470387893159,-5.831987912807007
0.07388532454479804,-3.4986120113646293,2.409150508765089,-5.930576190830868
0.038899204431151746,-3.41124529506708,2.3498447468567805,-6.023980638398951
0.0047867514804809455,-3.3107104984884725,2.289604940472791,-6.111836124848243
-0.028320353504403782,-3.196896903146246,2.2284865792243087,-6.19389048290337
-0.06028932253586624,-3.0698082830944236,2.166547674395275,-6.270024735044204
-0.09098740536681048,-2.9295666667414633,2.1038474270448333,-6.340271679944611
-0.12028307203422511,-2.7764113240257693,2.0404447102453873,-6.404831940677483
-0.1480471852744828,-2.610692293806037,1.9763963908386124,-6.464086731130017
-0.17415410821254318,-2.4328580319215978,1.9117555235273123,-6.518606864947889
-0.19848268853175915,-2.2434370787581366,1.8465694548778333,-6.569157899576784
-0.22091705931934053,-2.0430139775755807,1.7808778758820654,-6.616701749548463
-0.24134719909509633,-1.8321999750169224,1.7147108583865807,-6.6623955807848265
-0.25966919884526557,-1.611599256438324,1.6480869025787324,-6.707589270610238
-0.2757851914096488,-1.3817715717497745,1.58101100987263,-6.7538231501173245
-0.28960290712714654,-1.143192067398975,1.5134727783714568,-6.802828111894039
-0.3010348278011363,-0.8962089510800613,1.4454444972525164,-6.856530457854948
-0.3099969173119369,-0.6409992935843726,1.376879192673967,-6.917064084165033
-0.3164069102477806,-0.3775228573083658,1.3077085518323166,-6.986792762927309
-0.32018213882086427,-0.10547340576110587,1.2378406242030435,-7.068345376492401
-0.32123687287847535,0.17577338041684926,1.1671571704381196,-7.1646669227700075
-0.31947913907430686,0.4672162419882188,1.0955105012104196,-7.27908772449826
-0.3148069766544247,0.7702889683467092,1.022719623965437,-7.415412001076509
-0.3071040869709576,1.086922724285962,0.9485655039546719,-7.578023549586087
-0.296234859728098,1.4196009778638137,0.872785268458811,-7.771997957226387
-0.2820388499494598,1.7713830725620325,0.7950652888865472,-8.003191475674319
-0.2643250192238395,2.145839811035872,0.715033374129804,-8.278233413339764
-0.24286662111348079,2.546774305081332,0.6322510399964063,-8.604254390021014
-0.21739887806266747,2.977455533512589,0.5462084960961961,-8.987983318485595
-0.1876243227275416,3.438807055510326,0.4563286629113402,-9.433450958966642
-0.15323625217243833,3.9255143744300254,0.3619941533216738,-9.936864151155074
-0.11398110842813808,4.418536418545439,0.26262551181012306,-10.476516251213909
-0.0697957442426837,4.873388295141869,0.15786034929798398,-10.996734503469986
-0.021061861291265006,5.210063918948491,0.04789300426328412,-11.39373169008188
0.03103877789821991,5.326422588977666,-0.06604431263753469,-11.533208367916572
0.08430300378799657,5.159171495972754,-0.1813763963167004,-11.332777217283011
0.13589471874772413,4.749220546512411,-0.2947041684895305,-10.849645049734349
0.18338692421284825,4.213268957593824,-0.403200618986874,-10.240004164557472
0.2255196137887865,3.654467492588825,-0.5056006606324487,-9.63790413280769
0.26206428871467474,3.124826891184149,-0.6019797019605256,-9.106988049470036
0.29331255762651626,2.6396583999612635,-0.693049582455226,-8.662183563143124
0.3197091416261289,2.1978833685746584,-0.7796714180866572,-8.297720129623329
0.3416879753118755,1.7932234360889758,-0.8626486193828905,-8.002008214257955
0.35962020967276526,1.4187284510133824,-0.94266870152547,-7.763362959364609
0.3738074941828991,1.0682641046677332,-1.0203023311191162,-7.5716860102893815
0.3844901352295764,0.7368415858054365,-1.09601919122201,-7.41867602254064
0.3918585510876308,0.42056140380843426,-1.1702059514474166,-7.297590900619954
0.39606416512571513,0.11645723294502874,-1.2431818604536162,-7.202925467479741
0.3972287374551654,-0.17766356782479287,-1.3152111151284136,-7.13011928346716
0.3954521017769175,-0.46335570794246994,-1.3865123079630852,-7.075321546229214
0.3908185446974928,-0.7416451225367292,-1.4572655234253773,-7.035211685517696
0.3834020934721255,-1.0131160943138664,-1.5276176402805544,-7.006866948578526
0.37327093252898685,-1.2779823519315845,-1.5976863097663396,-6.98766784264874
0.360491109009671,-1.5361476088948454,-1.6675629881928271,-6.975233716820167
0.3451296329207226,-1.7872598838922888,-1.7373153253610287,-6.96738231435989
0.3272570340817997,-2.030762723450393,-1.8069891485046277,-6.962108309207274
0.30694940684729577,-2.2659452757039444,-1.8766102315967004,-6.957576591313789
0.2842899540902563,-2.4919920845620283,-1.9461859975098383,-6.952126469854563
0.25937003324463603,-2.708032516670657,-2.015707262208384,-6.944283154075311
0.23228970807792945,-2.9131889404974203,-2.085150093749137,-6.932772989138925
0.20315781867295524,-3.1066221988529517,-2.1544778236405264,-6.916539095297335
0.17209159668442572,-3.287572601473895,-2.2236432145935,-6.894754378614817
0.13921587066968677,-3.4553946412218606,-2.292590758379648,-6.866829400850774
0.10466192425746816,-3.6095839000285435,-2.361259052388156,-6.832413312214703
0.06856608525718272,-3.749795112158274,-2.429583185510303,-6.7913869088070635
0.03106813413559998,-3.8758510091693763,-2.497497054598374,-6.743847782493017
-0.007690375956093787,-3.9877422771473214,-2.564935532423304,-6.690088372862829
-0.047567798727567,-4.085619604389735,-2.6318364161519323,-6.630568404867206
-0.08842399477146434,-4.169779297674597,-2.6981421002006045,-6.565883628200775
-0.13012178774821032,-4.2406442427346525,-2.763800936482612,-6.496732936107851
-0.17252823017555685,-4.298742065200924,-2.828768265843691,-6.423885848370462
-0.21551565082756607,-4.344682234496906,-2.8930071243273954,-6.348152048955793
-0.2589624731725351,-4.379133593342346,-2.9564886448169534,-6.27035424730979
-0.3027538091059586,-4.402803449912285,-3.0191921872900513,-6.191305161503818
-0.34678184360508146,-4.416418997203824,-3.0811052389050895,-6.111788968810113
-0.3909460335771197,-4.420711472830768,-3.1422231285931908,-6.032547183118728
-0.4351531483054274,-4.416403174694831,-3.202548600424378,-5.954268625478883
-0.4793171800523757,-4.4041972200823984,-3.262091286679167,-5.877582960904949
-0.5233591522531997,-4.3847697804800045,-3.3208671162882166,-5.803057173720907
-0.5672068500579998,-4.358764435026446,-3.378897688025426,-5.731194328561065
-0.6107944944082642,-4.326788249890151,-3.4362096313110366,-5.662433994533625
-0.6540623769071656,-4.2894091949706015,-3.4928339712563727,-5.597153776164295
-0.6969564688568717,-4.2471545397730885,-3.5488055090180155,-5.535671479532276
-0.7394280142546026,-4.200509915754222,-3.604162223813338,-5.478247532365589
-0.7814331134121448,-4.149918784202471,-3.658944699136994,-5.425087363728229
-0.8229323012541695,-4.09578210081305,-3.7131955727742763,-5.376343526911139
-0.8638901222623,-4.038458016922012,-3.7669590080433877,-5.3321174157864615
-0.9042747024315201,-3.978261501172586,-3.820280182201252,-5.292460479945114
-0.944057317443246,-3.915463803913762,-3.873204787000703,-5.257374888658556
-0.9832119554823836,-3.850291720580249,-3.9257785358872885,-5.226813630274617
-1.0217148726881862,-3.782926641003438,-3.9780466721900347,-5.200680064778338
-1.0595441390982205,-3.7135034007239622,-4.030053472837818,-5.178826975834808
-1.0966791731054601,-3.642108979698326,-4.081841742596167,-5.161055197578155
-1.1331002629024434,-3.5687811250089756,-4.133452294571948,-5.14711192341361
-1.1687880741525332,-3.493507008710403,-4.184923413806084,-5.136688841462718
-1.2037231442396372,-3.4162220706772954,-4.236290302220711,-5.129420285688687
-1.23788536494641,-3.336809239383998,-4.287584505077598,-5.124881643941277
-1.27125345734025,-3.2550987699303766,-4.338833321517011,-5.122588323565041
-1.3038044450395538,-3.1708689858006966,-4.390059204752662,-5.12199563936654
-1.3355131348975608,-3.0838482543071537,-4.441279161146327,-5.122500052733609
-1.3663516174406325,-2.993718558613432,-4.492504161673663,-5.123442246631453
-1.3962888030267668,-2.900121042350678,-4.5437385841399776,-5.124112557770288
-1.4252900134502735,-2.8026638845656837,-4.5949797097176805,-5.123759289830912
-1.4533166522959304,-2.700932800142984,-4.64621730261599,-5.121600383140503
-1.4803259802973603,-2.5945043413935536,-4.697433306447395,-5.116838798952639
-1.5062710237112957,-2.4829619909187755,-4.748601694436921,-5.108681775599587
-1.5311006436204835,-2.365914781884984,-4.799688512192917,-5.0963638217624565
-1.5547597914393334,-2.2430178685078883,-4.850652150410542,-5.079172934391028
-1.5771899701244123,-2.1139941208611615,-4.901443879754452,-5.056479089014123
-1.5983299113330238,-1.9786554747565352,-4.952008670644593,-5.027763593240523
-1.6181164660805891,-1.8369224846612886,-5.002286306576998,-4.992647485297297
-1.636485690927202,-1.688840368245714,-5.052212781429971,-4.95091687666683
-1.6533740946096591,-1.5345898534650975,-5.10172195019664,-4.902543058769444
-1.6687199931443102,-1.3744913814853585,-5.150747380784335,-4.847695376517324
-1.6824649069591637,-1.2090016851018333,-5.199224334549508,-4.786745336615198
-1.694554923810182,-1.0387024128464397,-5.24709178791566,-4.7202611343956775
-1.7049419479386465,-0.8642812216032965,-5.294294399259617,-4.648992665064657
-1.7135847601546794,-0.6865065039312587,-5.340784325910263,-4.573848007980991
-1.720449825193992,-0.5061975328450913,-5.386522805990073,-4.495863194898476
-1.7255118005224428,-0.3241921992194917,-5.431481437939058,-4.416167669543041
-1.7287537225146377,-0.14131463025483362,-5.475643114634488,-4.335948134759078
-1.730166868817186,0.041655190276296966,-5.519002595982079,-4.256413442934646
-1.729750316914423,0.22400807995925856,-5.561566730411426,-4.178762853811589
-1.7275102361148305,0.4051274247820337,-5.603354358949542,-4.104159444976706
-1.7234589618670102,0.5845054918393284,-5.644395953399308,-4.033709820413304
-1.717613906948617,0.7617542968210131,-5.684733051603441,-3.9684506254024745
-1.7099963639804068,0.9366115104271854,-5.724417557857466,-3.9093418247004412
-1.700630248876135,1.108942230572575,-5.76351097610447,-3.857266287272002
-1.689540826570409,1.2787376515481852,-5.80208363897719,-3.813034965169161
-1.6767534500549273,1.4461117431662125,-5.840213988628881,-3.7773968506941475
-1.662292332623265,1.6112970416369439,-5.877987957135823,-3.7510529221855604
-1.6461793622068956,1.774640583840197,-5.915498486357679,-3.734673414465459
-1.6284329563684936,1.9366009207645698,-5.952845220502334,-3.728917945019681
-1.6090669471608479,2.0977470520279913,-5.99013439995253,-3.734458266053204
-1.588089476640568,2.2587600525302456,-6.027478982613062,-3.7520036773813628
-1.5655018761152655,2.4204381281814284,-6.064999019386876,-3.782329414149925
-1.5412974948334512,2.5837058467757785,-6.1028223135283755,-3.826308609349489
-1.5154604363656934,2.7496283404629267,-6.14108539962187,-3.884948715856749
-1.487964152961064,2.9194313532404985,-6.179934886780438,-3.959433537758815
-1.458769839428659,3.094528072317249,-6.219529222158026,-4.051172218914817
-1.4278245587054865,3.2765536503985793,-6.260040944347174,-4.161856556444645
-1.3950590222015007,3.4674080124902456,-6.30165950991162,-4.29352759866243
-1.3603849420765983,3.6693065553693334,-6.344594785898245,-4.448651112710761
-1.323691876522905,3.8848358714189812,-6.389081297025353,-4.630198027329369
-1.2848435178087152,4.117005952534243,-6.435383277298646,-4.841717983826422
-1.2436734582833728,4.369277915607871,-6.48380045713691,-5.087376708912861
-1.1999806791272942,4.645519913750855,-6.5346742242260385,-5.371890926671877
-1.1535254799897856,4.949789275369894,-6.588393133492757,-5.700217904501928
-1.1040275872360867,5.285729871995977,-6.645395312537777,-6.07670367997053
-1.051170288516127,5.655170996662578,-6.7061623493374825,-6.503109209354716
-0.9946185785495012,6.055195597814293,-6.77119344143103,-6.974485568581972
-0.9340666225713583,6.472671909436491,-6.84093829711685,-7.471481862129126
-0.8693399034769934,6.875903973165345,-6.915653115738141,-7.948592103441113
-0.80058086374534,7.207179664957754,-6.995139036772552,-8.323630273012586
-0.7285090670957625,7.389775075736948,-7.078375339502678,-8.487459980792718
-0.654611316338393,7.366246731689968,-7.163249939310605,-8.357625571403572
-0.5809488490214934,7.148460991391483,-7.24682619502464,-7.948514092268242
-0.5094642391075785,6.814936011351124,-7.326311335947323,-7.3678114996378365
-0.4413148789940673,6.452002810177625,-7.399989450943702,-6.734421433975764
-0.37679485089229103,6.112868135398443,-7.467333665283459,-6.12139405586727
-0.3156661695383066,5.818500866010972,-7.528547605842133,-5.557136557849783
-0.2574811608781969,5.572225014761094,-7.58411897142063,-5.045661787024264
-0.20175891073058594,5.370336124170382,-7.634575589290873,-4.581295206733957
-0.1480555494888821,5.207218444503395,-7.680388541358212,-4.155755837300917
-0.09598336504384816,5.077342846798737,-7.7219460997312215,-3.76092562414975
-0.045209936575860796,4.975887775518134,-7.759555355972719,-3.3897234939141714
0.004548941179320545,4.89882615481611,-7.79345259091186,-3.0362497331774545
0.05353720272748164,4.8428311180644465,-7.823815088243634,-2.6956871858700957
0.10196551390812611,4.8051370618894875,-7.850771960102335,-2.364146541589432
0.150016884527021,4.783404539360243,-7.87441342551823,-2.038521355413995
0.19785092992062342,4.775603502275761,-7.89479863907237,-1.716371202371698
0.24560696494338102,4.779917117282653,-7.911962351096087,-1.395833919279243
0.2934061361162076,4.794664584287153,-7.92592069028888,-1.0755620163328656
0.34135278195907914,4.81824075605041,-7.936676310452208,-0.7546768099283963
0.38953518951958327,4.849070766061324,-7.9442230785514925,-0.4327338373438999
0.4380258971801965,4.885578465318124,-7.948550416924931,-0.1096936508227912
0.48688168183337777,4.926167905372892,-7.949647353433159,0.21410714777673134
0.5361433608871067,4.969217253977927,-7.947506281955391,0.5379888160455564
0.585835533426886,5.013084361746206,-7.942126393794935,0.8609683293847105
0.635966377044348,5.05612275128894,-7.933516710501088,1.1818077834047398
0.6865276045572374,5.096706168674332,-7.921698632667041,1.4990713545979553
0.7374946662439807,5.13325916080105,-7.906707919121061,1.8111892277629522
0.7888272578519913,5.1642905853690735,-7.888596026843431,2.116525474712592
0.840470163705682,5.188426676835069,-7.867430772096306,2.4134458508332037
0.8923544304740326,5.20444038847059,-7.843296313587974,2.7003810456423682
0.9443988343587385,5.2112742355569,-7.81629250313155,2.975881164549309
0.9965115767143075,5.208054716945174,-7.786533691486057,3.2386580873746076
1.0485921238837592,5.194097455948916,-7.754147110612311,3.4876136786794
1.1005330984432484,5.1689033014832155,-7.719270973825517,3.7218533687625888
1.1522221314580805,5.13214659575993,-7.682052440137891,3.940686116558125
1.2035435974156798,5.08365751786701,-7.64264557897231,4.14361298280473
1.25438017259435,5.023400789832889,-7.601209449144263,4.3303073433162425
1.304614180492679,4.951453085546778,-7.5579063757111005,4.500590113831002
1.3541287113481468,4.86798126590067,-7.51290047457279,4.654403278882814
1.4028085240071535,4.7732231558931115,-7.466356441783962,4.791784610773567
1.4505407555660845,4.667472066342121,-7.418438595676226,4.912845846027001
1.4972154762295058,4.551065718408003,-7.3693101372159555,5.0177558656828625
1.5427261334135858,4.424379708726239,-7.319132578559127,5.106729691609881
1.5869699305008482,4.287825192873705,-7.268065281643028,5.1800234268379155
1.6298481824295852,4.141850086403967,-7.216265047374649,5.2379346736024655
1.671266683293625,3.9869427976660483,-7.163885700638624,5.280807481526052
1.7111361112702854,3.8236373223106686,-7.111077625823364,5.309040523540814
1.749372484493392,3.652518450920282,-7.057987220587956,5.323096977329281
1.7858976690025947,3.474225871531252,-7.004756250814663,5.323514510680738
1.8206399277179073,3.2894560866076663,-6.951521105707855,5.310913831408147
1.853534488583984,3.0989613005859202,-6.898411967393774,5.2860044601796305
1.884524101589843,2.903544750829017,-6.845551922791978,5.249586700948338
1.9135595490981332,2.704052322423292,-6.793056055782495,5.202549189213346
1.9406000723223662,2.5013606676371483,-6.741030563890361,5.145861851997107
1.9656136789987377,2.2963624017408675,-6.68957194537039,5.080564566396338
1.9885773030161464,2.0899492281747465,-6.638766299706426,5.007752206060388
2.009476795297894,1.8829940266649212,-6.588688777645823,4.928557073975541
