th1 (rad),w1 (rad/s),th2 (rad),w2 (rad/s)
0.26960366422778104,-0.8705372894175191,0.34903244474862755,-0.42800188916220633
0.26089829133360587,-0.8884748587920435,0.3447524258570055,-0.44423707769894305
0.25201354274568544,-0.9050880414001201,0.34031005508001605,-0.4614638681927653
0.24296266233168423,-0.9203525147127186,0.3356954163980884,-0.4796916104073481
0.23375913718455704,-0.9342478186675057,0.33089850029401496,-0.49892410854433933
0.224416658997882,-0.94675745771202,0.32590925920857156,-0.5191594678164528
0.2149490844207618,-0.9578689777578282,0.320717664530407,-0.5403899854987648
0.20537039464318352,-0.9675740178439926,0.3153137646754194,-0.5626020877960433
0.1956946544647436,-0.9758683369805119,0.30968774379745895,-0.5857763127406289
0.18593597109493848,-0.9827518172859543,0.3038299806700527,-0.6098873382225752
0.17610845292207894,-0.9882284451193478,0.2977311072878269,-0.6349040531965005
0.16622616847088545,-0.9923062724085403,0.2913820667558619,-0.6607896691496538
0.15630310574680004,-0.9949973607739858,0.2847741700643654,-0.6875018680893126
0.14635313213906018,-0.9963177113219377,0.27789915138347226,-0.7149929826439718
0.1363899550258408,-0.9962871831239386,0.27074922155703257,-0.7432102033928211
0.12642708319460141,-0.9949294034060808,0.2633171195231044,-0.7720958082540202
0.1164777891605406,-0.9922716723434467,0.2555961614405642,-0.8015874086780719
0.10655507243710614,-0.9883448650994697,0.24758028735378346,-0.8316182075040519
0.09667162378611145,-0.9831833333781947,0.23926410527874295,-0.8621172636327318
0.08683979045232951,-0.9768248082845874,0.23064293264241564,-0.8930097591353453
0.07707154236948363,-0.9693103057316039,0.22171283505106218,-0.9242172650295066
0.0673784393121676,-0.9606840350116198,0.21247066240076712,-0.9556580026914767
0.0577715989620514,-0.9509933104835834,0.20291408237385236,-0.9872470987119885
0.048261665857215565,-0.9402884656354786,0.19304161138673248,-1.018896831915962
0.03885878120086078,-0.9286227680835599,0.18285264306757287,-1.0505168722294331
0.029572553520025184,-0.916052333384099,0.17234747434527853,-1.0820145120647786
0.020412030186184194,-0.9026360348784914,0.16152732922463076,-1.1132948918827867
0.01138566983739928,-0.8884354061869275,0.15039438030580288,-1.144261222551802
0.0025013157755300035,-0.873514532428372,0.13895176808028487,-1.174815008033506
-0.006233829548753716,-0.8579399257952485,0.1272036179999498,-1.2048562727535392
-0.014813228806706201,-0.8417803807713821,0.11515505527241442,-1.2342837987323005
-0.02323103261442002,-0.8251068040745873,0.1028122172850914,-1.2629953781231273
-0.03148210065516589,-0.8079920143557108,0.09018226350386013,-1.2908880871948714
-0.039562020798723,-0.7905105068201848,0.07727338263191141,-1.3178585879643199
-0.04746712586692485,-0.7727381782828053,0.06409479675226822,-1.34380346359028
-0.0551945076497529,-0.7547520087468808,0.05065676211636541,-1.3686195932454512
-0.0627420277372217,-0.736629696436929,0.0369705661839109,-1.3922045714481375
-0.070108324701591,-0.7184492443251703,0.023048520469429522,-1.414457175734643
-0.0772928171448427,-0.7002884975816759,0.008903948712083092,-1.4352778850683625
-0.08429570212065945,-0.6822246330380389,-0.005448830138600534,-1.4545694495141002
-0.09111794845103985,-0.6643336036592102,-0.019994524633741538,-1.4722375094797475
-0.09776128448763195,-0.6466895431213088,-0.034716899728539016,-1.4881912602933203
-0.10422817991884505,-0.6293641378254239,-0.04959881233147222,-1.502344155123568
-0.11052182129709928,-0.6124259759457463,-0.0646222538827079,-1.5146146363811595
-0.11664608105655674,-0.5959398853000353,-0.07976840024651949,-1.524926882899472
-0.1226054799095571,-0.5799662738092547,-0.0950176690755142,-1.5332115575590477
-0.12840514264764966,-0.5645604879389515,-0.11034978465110468,-1.539406537773428
-0.13405074752703916,-0.5497722056454536,-0.12574385002883895,-1.543457609584681
-0.1395484695834937,-0.5356448808555492,-0.14117842612468576,-1.5453191051994797
-0.1449049183920492,-0.5222152562851662,-0.15663161717668056,-1.544954463774887
-0.15012707095490085,-0.5095129603859144,-0.17208116181442942,-1.5423366962322032
-0.15522220055876,-0.4975602023834026,-0.18750452877675144,-1.537448736868865
-0.160197802582594,-0.4863715767804407,-0.2028790161454401,-1.530283667510296
-0.1650615183503984,-0.47595398544317297,-0.21818185282054306,-1.520844803776707
-0.16982105820483012,-0.4663066816254,-0.23339030085831014,-1.5091456375429795
-0.17448412502108412,-0.4574214362169408,-0.24848175723373994,-1.495209634592642
-0.17905833938325352,-0.4492828223557406,-0.26343385357966637,-1.479069891520346
-0.18355116760681092,-0.4418686105597863,-0.2782245524948698,-1.4607686608180652
-0.1879698537124088,-0.4351502629414879,-0.29283223910305045,-1.4403567574985643
-0.19232135634182368,-0.4290935120605948,-0.30723580667803607,-1.4178928643143849
-0.19661229146242962,-0.42365900770121445,-0.3214147353211799,-1.3934427554304825
-0.20084888153944175,-0.4188030134153186,-0.3353491628754848,-1.3670784601864245
-0.20503691167359495,-0.41447813408817263,-0.34901994747734905,-1.3388773893021273
-0.20918169301447667,-0.4106340560191488,-0.36240872137037033,-1.3089214455786793
-0.21328803357466816,-0.40721828199090887,-0.37549793582615715,-1.277296139928781
-0.21736021639457725,-0.40417684539733667,-0.38827089722544494,-1.2440897315965167
-0.22140198484855061,-0.40145498956660747,-0.4007117945414101,-1.2093924088826253
-0.2254165347442167,-0.3989978007904043,-0.41280571863023635,-1.1732955237811036
-0.22940651275212073,-0.3967507860965292,-0.4245386738680474,-1.135890890853155
-0.23337402061308601,-0.3946603893372105,-0.4358975827765789,-1.0972701575934711
-0.2373206245064581,-0.39267444158873493,-0.44687028435251364,-1.0575242506306872
-0.24124736892234547,-0.39074254407598213,-0.4574455268588205,-1.016742899462829
-0.24515479436310528,-0.3888163837827406,-0.4676129558534488,-0.9750142371373545
-0.2490429582009327,-0.38684998354730815,-0.47736309822482237,-0.9324244753869805
-0.2529114580364058,-0.3847998897589709,-0.48668734297869215,-0.8890576502392638
-0.2567594569339955,-0.38262530177058063,-0.49557791948108476,-0.8449954330174764
-0.26058570995170127,-0.3802881478468314,-0.5040278738112596,-0.8003170009116166
-0.2643885914301696,-0.3777531129086034,-0.5120310438203758,-0.7550989608780274
-0.2681661225592556,-0.37498762354862175,-0.5195820334291561,-0.7094153204737522
-0.2719159987947418,-0.37196179582284655,-0.5266761866338936,-0.6633374992949578
-0.27563561675297027,-0.36864835120522277,-0.5333095616268432,-0.6169343749163843
-0.2793221002650225,-0.3650225058679232,-0.5394789053760071,-0.570272357573687
-0.28297232532370176,-0.36106183814839077,-0.5451816289517439,-0.5234154882511175
-0.28658294370518567,-0.3567461387170761,-0.5504157838342552,-0.47642555529806746
-0.2901504050923564,-0.35205724758960816,-0.5551800393872358,-0.42936222517098455
-0.2936709775682525,-0.3469788817532549,-0.5594736616389456,-0.38228318335988654
-0.29714076638578507,-0.34149645681443497,-0.5632964934725445,-0.3352442819948183
-0.3005557309539294,-0.33559690573220896,-0.5666489362924927,-0.28829969102597697
-0.3039117000112515,-0.32926849738908637,-0.5695319332027524,-0.24150205022514243
-0.30720438498514235,-0.3225006574691262,-0.5719469537050038,-0.19490261956244231
-0.3104293915598336,-0.31528379386575317,-0.5738959799006282,-0.14855142577125308
-0.3135822294984911,-0.30760912862751055,-0.5753814941583407,-0.1024974031274582
-0.31665832078476625,-0.29946853826711345,-0.5764064681896153,-0.05678852664140883
-0.31965300616743736,-0.29085440410437596,-0.5769743534560293,-0.011471935997210164
-0.3225615502084811,-0.2817594741826206,-0.5770890728160014,0.03340595131915438
-0.3253791449503073,-0.27217673818605703,-0.5767550133028099,0.07779933917666806
-0.32810091233216787,-0.26209931668680614,-0.5759770199110432,0.12166296564474961
-0.3307219054990359,-0.25152036595882693,-0.5747603902545957,0.164952030867415
-0.3332371091586242,-0.24043299950583893,-0.5731108699459215,0.20762214124111267
-0.3356414391536826,-0.22883022735520273,-0.5710346485335104,0.2496292710966293
-0.33792974142723464,-0.2167049140635099,-0.5685383558225441,0.29092974299367125
-0.34009679056786973,-0.20404975625650154,-0.5656290583926074,0.331480227620508
-0.34213728813043476,-0.19085728038054386,-0.5623142561164023,0.3712377641439587
-0.3440458609342402,-0.1771198611706313,-0.5586018784749627,0.4101598016715829
-0.34581705954594655,-0.16282976113716435,-0.5545002804582468,0.44820426226414994
-0.34744535715731817,-0.14797919113823382,-0.5500182378356053,0.4853296256699395
-0.3489251490687005,-0.13256039183508794,-0.5451649415789059,0.5214950356428538
-0.3502507529870514,-0.11656573552695079,-0.5399499912224774,0.5566604273557415
-0.3514164103423209,-0.09998784753055409,-0.5343833869489201,0.5907866750334058
-0.35241628881762643,-0.0828197459150349,-0.528475520198586,0.6238357585139697
-0.3532444862767768,-0.06505499803193507,-0.5222371626134463,0.6557709470129144
-0.3538950362570961,-0.04668789190285728,-0.5156794531433172,0.6865569979242467
-0.3543619151761247,-0.02771362015587608,-0.5088138831640747,0.7161603680633822
-0.3546390513776835,-0.008128473849726387,-0.5016522794834409,0.7445494343538324
-0.35472033611618076,0.01206995679311941,-0.4942067851399026,0.7716947206032244
-0.35459963654824955,0.03288257799191631,-0.4864898379338704,0.7975691267223451
-0.3542708107683304,0.05430858780347307,-0.47851414666664693,0.8221481565316845
-0.35372772489029564,0.07634527488696546,-0.4702926651013301,0.8454101401891925
-0.352964272141426,0.09898782425446635,-0.4618385636994382,0.8673364472731502
-0.35197439389888135,0.12222913356544216,-0.4531651992267067,0.887911686673259
-0.3507521025632269,0.14605964336453134,-0.44428608235997413,0.9071238896839113
-0.3492915061295816,0.1704671844032768,-0.435214843463135,0.9249646730526937
-0.3475868342855488,0.19543684483378487,-0.4259651967326081,0.941429379204694
-0.34563246583721097,0.2209508596260915,-0.41655090294056113,0.9565171914231222
-0.34342295724095007,0.24698852405643124,-0.4069857310263299,0.970231222397496
-0.34095307200038577,0.2735261325595708,-0.39728341880235496,0.9825785752260033
-0.33821781067479006,0.3005369436566753,-0.38745763305009495,0.9935703766493134
-0.3352124412382233,0.3279911710842301,-0.37752192928360184,1.0032217829683185
-0.331932529527381,0.35585600068302975,-0.3674897114539187,1.0115519597276754
-0.3283739695205507,0.38409563208174874,-0.35737419185664193,1.0185840368024315
-0.3245330131997332,0.4126713437473219,-0.3471883514886176,1.0243450409822086
-0.32040629976226,0.4415415795910191,-0.3369449010787955,1.0288658084873585
-0.3159908839663498,0.4706620550271164,-0.32665624299392193,1.0321808800614454
-0.3112842634160786,0.49998588018807827,-0.3163344341933075,1.034328381358372
-0.3062844046141978,0.5294636979088265,-0.30599115037972374,1.0353498912813428
-0.30098976763510954,0.5590438341008237,-0.2956376514669103,1.0352903007420182
-0.2953993292941013,0.5886724582378058,-0.2852847484594901,1.0341976640048502
-0.28951260471172324,0.6182937518587898,-0.2749427718194416,1.0321230443816383
-0.28332966719313535,0.6478500832472404,-0.2646215413756252,1.0291203555663617
-0.2768511663606629,0.6772821867527109,-0.2543303378199616,1.025246199374289
-0.27007834449313584,0.7065293455663177,-0.24407787582621873,1.0205597000973614
-0.26301305103747263,0.7355295771270545,-0.2338722788252451,1.0151223351351548
-0.2556577552662021,0.7642198207053776,-0.22372105547389357,1.0089977610317753
-0.24801555705914832,0.792536127067619,-0.21363107786357582,1.0022516335667595
-0.24009019578847213,0.8204138504546593,-0.20360856152790824,0.9949514201332635
-0.23188605728392553,0.8477878433974224,-0.1936590473265756,0.9871662023079362
-0.22340817884995132,0.8745926551282122,-0.18378738530349625,0.9789664662895929
-0.2146622522986692,0.9007627345205501,-0.17399772064060032,0.9704238787709897
-0.2056546249534637,0.9262326385926436,-0.16429348185289042,0.9616110458195202
-0.19639229856753726,0.9509372476345089,-0.15467737139469523,0.9526012524852725
-0.18688292609119217,0.974811987961732,-0.1451513588698425,0.9434681811320007
-0.17713480621157485,0.9977930631577436,-0.1357166770585225,0.9342856068980404
-0.16715687557999742,1.0198176944416384,-0.12637382098954208,0.9251270692359556
-0.15695869863558104,1.0408243704930042,-0.11712255029718253,0.9160655191433936
-0.146550454930651,1.0607531066849987,-0.10796189510574859,0.9071729424702374
-0.13594292386380102,1.0795457132312605,-0.09889016568104622,0.8985199605506643
-0.1251474667314884,1.0971460712538994,-0.08990496607553958,0.8901754103399724
-0.11417600601894942,1.113500415244923,-0.08100321197213986,0.8822059072066432
-0.1030410018665002,1.1285576198415472,-0.07218115290007343,0.8746753945068753
-0.09175542566808473,1.1422694882893443,-0.06343439895500468,0.8676446850143543
-0.08033273078519129,1.1545910394508698,-0.05475795210486113,0.8611710001518894
-0.0687868203906826,1.1654807897573514,-0.04614624210334224,0.8553075137317907
-0.057132012493109084,1.1749010261234079,-0.037593166966024334,0.850102907516991
-0.045383002231875004,1.1828180655744494,-0.029092137890854422,0.8456009463261877
-0.03355482157613051,1.1892024971952075,-0.020636128427592545,0.8418400805902028
-0.021662796604178435,1.1940294020130255,-0.012217727621690516,0.8388530841976327
-0.009722502584048179,1.197278546592148,-0.003829196779714189,0.8366667351300907
0.002250282881873303,1.1989345464389383,0.004537470571586719,0.8353015457773996
0.014239628346262686,1.1989869957980284,0.012890486029360715,0.8347715489507284
0.026229498304242968,1.1974305610425886,0.021238201518868,0.8350841445004074
0.038203803914668856,1.1942650356065054,0.029589042963872072,0.8362400101317594
0.050146454270733914,1.1894953552432324,0.03795144306518967,0.8382330785452496
0.062041407823166236,1.1831315732904464,0.04633377385064216,0.8410505814643843
0.0738727235560707,1.1751887965326266,0.05474427966528601,0.8446731595199759
0.08562461152139697,1.1656870831450015,0.06319101126048576,0.8490750353989107
0.09728148235284699,1.1546513050328024,0.07168176161447487,0.8542242462040737
0.10882799540317502,1.1421109776137333,0.08022400407651561,0.8600829296688621
0.12024910517931235,1.1281000606989793,0.08882483337320424,0.8666076577751626
0.13153010578630214,1.1126567345863012,0.09749090995095586,0.8737498104766591
0.14265667313216515,1.0958231557735185,0.10622840805572245,0.8814559816554446
0.15361490468990033,1.077645196826689,0.1150429678722769,0.8896684091505668
0.16439135665816723,1.0581721748978248,0.12393965196378257,0.8983254206899182
0.1749730784071455,1.0374565731932806,0.13292290617068175,0.9073618878165521
0.18534764413907828,1.0155537593638273,0.14199652504884727,0.9167096804009394
0.19550318173271655,0.9925217043437841,0.15116362185285667,0.9262981150371524
0.2054283987761544,0.968420704635674,0.1604266030032282,0.9360543914928059
0.21511260582251115,0.9433131104466128,0.16978714691815625,0.9459040123757668
0.22454573692697727,0.917263061461053,0.17924618704191392,0.9557711822502798
0.2337183675415878,0.8903362314084066,0.18880389886441673,0.965579183537525
0.24262172985567187,0.8625995819780664,0.19845969069979197,0.9752507276299184
0.25124772567545256,0.8341211260701265,0.20821219797609114,0.9847082806979025
0.2595889369361538,0.8049696998660867,0.21805928078307016,0.9938743646405761
0.2676386339348147,0.7752147427750105,0.22799802442947592,1.002671834500367
0.2753907813625648,0.7449260839686465,0.2380247427744796,1.011024134405256
0.28284004220225123,0.7141737339724674,0.24813498411853216,1.0188555347028567
0.2899817795419759,0.6830276796340691,0.25832353946556075,1.0260913533965188
0.2968120563383166,0.6515576807489419,0.26858445299952594,1.0326581652763254
0.303327633145806,0.6198330666868505,0.27891103465228917,1.0384840022530675
0.3095259638126745,0.5879225315281238,0.2892958746748198,1.0434985483504586
0.31540518912795573,0.5558939264838636,0.2997308601583244,1.0476333325932465
0.32096412839279437,0.5238140487306211,0.31020719348425685,1.050821922653685
0.32620226888010057,0.49174842622891524,0.3207154127107937,1.0530001215975349
0.33111975314238973,0.4597610986034091,0.33124541392676904,1.0541061694194358
0.33571736412842385,0.42791439472472914,0.34178647562096337,1.054080950297181
0.3399965080756711,0.39626870822947047,0.3523272851239352,1.0528682056513061
0.3439591951579658,0.3648822728232458,0.36285596718044827,1.0504147522017329
0.3476080178861983,0.33381093980608956,0.3733601147024656,1.046670703302942
0.35094612728425917,0.30310796081219443,0.38382682173549504,1.0415896909530453
0.3539772068923811,0.2728237792376378,0.39424271864502547,1.035129085052433
0.35670544468475746,0.24300583421135308,0.4045940094955498,1.0272502057772634
0.359135503026871,0.21369838121880866,0.41486651155332244,1.0179185243731177
0.36127248683905905,0.18494233359102433,0.4250456967970536,1.0071038473016447
0.3631219101749693,0.15677512900563526,0.43511673527007005,0.9947804785179011
0.3646896614650257,0.1292306249010478,0.4450645400552491,0.9809273547387984
0.3659819677140362,0.1023390262775454,0.45487381360263707,0.965528148892251
0.36700535797681166,0.07612684875854385,0.4645290950915596,0.948571337507676
0.3677666264643971,0.050616919029227575,0.47401480846663635,0.9300502286029608
0.3682727956546894,0.025828413886286653,0.483315310752666,0.9099629476089116
0.36853107979355226,0.001776938157480975,0.4924149402287551,0.888312380005675
0.3685488491751271,-0.021525359274414832,0.5012980640288118,0.8651060705734411
0.36833359558238293,-0.044069633136183436,0.5099491247345462,0.8403560804227136
0.3678928992510211,-0.0658501558943936,0.5183526855387733,0.8140788042064225
0.36723439769207716,-0.08686410202548057,0.5264934735808375,0.7862947510681801
0.36636575667182236,-0.10711130687117636,0.5343564210915194,0.7570282938952075
0.3652946436031106,-0.12659400513961777,0.5419267040304715,0.726307392277573
0.3640287035517144,-0.14531655454969092,0.5491897779532472,0.6941632951961187
0.3625755380062175,-0.163285150365204,0.5561314109052083,0.6606302298520419
0.36094268650256545,-0.18050753662632185,0.5627377132037288,0.6257450832076028
0.3591376111363022,-0.19699271976822083,0.5689951640358049,0.5895470827389757
0.35716768393862003,-0.21275069003945563,0.5748906348631946,0.5520774826293351
0.3550401770382255,-0.22779215571994027,0.5804114096894879,0.5133792611823681
0.3527622554810261,-0.24212829461995158,0.5855452023013116,0.47349683464922043
0.35034097253482654,-0.2557705267484837,0.5902801706478038,0.43247579197441305
0.3477832672673417,-0.26873031140291265,0.594604928567548,0.3903626542180402
0.34509596415331256,-0.28101897128170594,0.5985085551097283,0.34720466164020575
0.3422857744404955,-0.2926475455839667,0.6019806017261304,0.30304959067297493
0.33935929898465583,-0.30362667345574007,0.6050110976328602,0.25794560228368835
0.3363230322500984,-0.31396650859014724,0.6075905536556971,0.21194112257385722
0.33318336716419694,-0.32367666529838685,0.6097099648814357,0.16508475587622956
0.32994660051121305,-0.33276619594836837,0.611360812440198,0.11742523011899939
0.32661893855172935,-0.3412435993196286,0.612535064741388,0.06901137382478106
0.32320650255853306,-0.34911685914568136,0.6132251784796358,0.019892123802107253
0.31971533396707624,-0.3563935119032446,0.6134240997176569,-0.02988343763620932
0.3161513988480438,-0.3630807427544342,0.6131252653412947,-0.08026601723893258
0.3125205914204994,-0.3691855084435987,0.6123226051689055,-0.13120601855607933
0.30882873633606345,-0.3747146858841593,0.6110105449833446,-0.18265342426666212
0.30508158947722186,-0.37967524513082435,0.609184010740678,-0.23455765449393806
0.30128483702591363,-0.3840744454064678,0.6068384341957386,-0.286867402468725
0.29744409257184895,-0.3879200528280324,0.6039697601710513,-0.33953044885445455
0.2935648920435686,-0.3912205784390769,0.6005744556825068,-0.39249345600930596
0.28965268625917784,-0.3939855350949269,0.5966495211224138,-0.44570174344801644
