th1 (rad),w1 (rad/s),th2 (rad),w2 (rad/s)
3.9151448543977754,-2.99150695064128,0.03286939432601553,1.2840708020102876
3.8852297848913624,-2.922022286629278,0.04571010234611841,1.2717425148470942
3.8560095620250694,-2.8529417486553927,0.05842752749458935,1.2653231387881545
3.8274801445385154,-2.78420835720596,0.0710807588824709,1.264422925880212
3.7996380609664557,-2.7158135359426683,0.08372498814127302,1.2686210487796363
3.772479925607029,-2.6477974279821974,0.09641119862906938,1.2774600599934427
3.746001951327207,-2.5802490453216747,0.10918579922900382,1.2904416921563095
3.72019946087399,-2.5133059587974373,0.12209021615056691,1.307024239762814
3.6950664012860157,-2.4471532203302147,0.13516045854819506,1.3266218036443116
3.6705948690827137,-2.3820212070065994,0.14842667658463818,1.348605694655775
3.6467746570126476,-2.318182096334666,0.16191273353119592,1.3723082729322211
3.623592836049301,-2.2559447319767436,0.17563581626051814,1.397029434563744
3.6010333887295336,-2.195647725585869,0.18960611060615556,1.4220458422386328
3.579076911473675,-2.1376507651894157,0.2038265690285419,1.4466228294083692
3.5577004038217805,-2.082324259882375,0.2182927973226256,1.4700286960957858
3.536877161222957,-2.0300376327728427,0.23299308428358345,1.491550875873001
3.5165767848952285,-1.9811467596290582,0.24790859304231347,1.5105132151390743
3.496765317298938,-1.9359812137503078,0.2630137251937042,1.526293402578441
3.477405505161435,-1.8948320900608755,0.27827665921948863,1.5383394558097154
3.4584571842608263,-1.857941218310569,0.2936600537775858,1.5461841457646952
3.4398777720777205,-1.8254925208677455,0.30912189523523276,1.5494563360481002
3.421622846869043,-1.7976061235305585,0.32461645859571375,1.5478884336491998
3.4036467856337373,-1.7743356031191713,0.3400953429322058,1.5413194662594376
3.3859034296025454,-1.75566848304278,0.35550853759480017,1.5296936785121122
3.3683467447721176,-1.7415298062846505,0.3708054743799213,1.5130549220685534
3.350931446709271,-1.7317883640675895,0.3859360236006068,1.4915374497747347
3.333613563068595,-1.72626497049106,0.40085139809835413,1.4653539697514566
3.3163509133636846,-1.7247420681843482,0.4155049377958687,1.4347819470725691
3.299103492681841,-1.7269739314657564,0.42985275726659444,1.4001491553700256
3.2818337533671835,-1.7326967914436073,0.4438542488202947,1.3618193936704996
3.2645067854527476,-1.7416383218413918,0.45747244275699966,1.3201791230919973
3.247090402234334,-1.753526070592719,0.47067423398791963,1.2756255770051648
3.2295551415284067,-1.768094576752001,0.48343048975797126,1.2285566885482968
3.2118741957608865,-1.7850910558651663,0.49571605664345425,1.1793629861746258
3.1940232852022348,-1.8042796568959074,0.5075096865052005,1.1284214476701933
3.1759804886332756,-1.8254443838911782,0.5187939009819024,1.0760911835335367
3.157726044794364,-1.8483908350512865,0.5295548128172377,1.0227107422621438
3.139242136443851,-1.8729469438395188,0.5397819202398592,0.9685967884728967
3.120512667005456,-1.89896291646246,0.5494678881245881,0.9140438927085496
3.101523037840831,-1.9263105534364267,0.5586083270516736,0.8593251812224513
3.0822599323064668,-1.954882125706995,0.5672015788638981,0.8046936174241905
3.062711111049397,-1.98458895272114,0.57524851503814,0.7503837176484387
3.0428652215221854,-2.0153598046741403,0.5827523522146244,0.696613537609582
3.022711623475444,-2.04713922647156,0.5897184875907202,0.6435867989290404
3.0022402312107284,-2.0798858584018185,0.5961543555800106,0.591495055347723
2.98144137262671,-2.113570808985012,0.6020693061334879,0.5405198245429581
2.96030566453686,-2.1481761192705524,0.6074745043789175,0.49083463346409967
2.9388239033441548,-2.183693344949977,0.6123828507135585,0.44260694287387015
2.916986969894655,-2.220122272759209,0.6168089201422972,0.3959999307126884
2.8947857471670626,-2.2574697803809145,0.620768919449424,0.3511741245162884
2.8722110493632536,-2.295748844000144,0.6242806606945869,0.30828888098676904
2.8492535609232523,-2.334977694404505,0.6273635495044546,0.2675037165045044
2.825903783979207,-2.375179120682261,0.6300385866694996,0.22897949638604279
2.8021519927723846,-2.416379919839049,0.63232838163336,0.19287949349078484
2.7779881935739943,-2.4586104907635415,0.6342571765682679,0.15937032873957727
2.753402088666359,-2.501904571715941,0.6358508798556636,0.12862280755122216
2.7283830429491998,-2.5462991217319937,0.6371371079311758,0.10081266739303743
2.70292005173188,-2.5918343479146206,0.6381452346051062,0.07612125279817938
2.6770017082527335,-2.63855388244921,0.638906447133088,0.05473613550875833
2.6506161694282415,-2.6865051152849175,0.6394538084881756,0.03685169901654327
2.6237511182753925,-2.735739690761198,0.639822325478341,0.02266970883077383
2.5963937213677806,-2.786314179042884,0.6400490225666486,0.01239989243316023
2.568530579577352,-2.8382909361027613,0.6401730214909802,0.006260556207561553
2.5401476702163244,-2.8917391692307737,0.6402356270530558,0.004479270782371125
2.5112302785240166,-2.9467362287572563,0.6402804197608796,0.007293661331542044
2.481762916236444,-3.0033691509916385,0.640353356374195,0.014952345592927893
2.4517292247265274,-3.061736482473461,0.6405028798301242,0.0277160698456215
2.4211118599017927,-3.121950421727469,0.6407800405285804,0.04585910202819368
2.389892355684518,-3.1841393220730825,0.6412386315488623,0.06967095178667673
2.3580509624637873,-3.2484506079717543,0.6419353410667291,0.09945849974267883
2.32556645638407,-3.315054168256375,0.6429299260641559,0.1355486328997733
2.292415914701506,-3.384146302751718,0.6442854123931536,0.17829150006118005
2.258574451673989,-3.455954314623584,0.6460683273937654,0.22806452051274437
2.2240149085277534,-3.5307418595442566,0.6483489725988929,0.285277300891445
2.1887074899323107,-3.6088151844239302,0.6512017456078073,0.3503776384723425
2.1526193380880714,-3.690530412447435,0.6547055219925307,0.4238588124566671
2.115714033963597,-3.776302055745043,0.6589441101170974,0.506268384795411
2.0779510134061465,-3.8666129583089517,0.6640067939650516,0.5982187418371737
2.039284883823057,-3.9620258817809617,0.6699889813834233,0.7003995947246047
1.9996646250052472,-4.063196930066207,0.6769929773306694,0.813592595990723
1.9590326557045852,-4.170890936356533,0.6851289032905766,0.9386880782885848
1.9173237463410198,-4.28599875433525,0.6945157840734625,1.076703598788193
1.8744637587976674,-4.409556005506464,0.7052828200613445,1.2288033350812075
1.8303681987426028,-4.542762057101446,0.7175708534121565,1.3963161650781202
1.7849405781715884,-4.686996514467348,0.7315340150629377,1.580748006776275
1.7380706130269148,-4.843827723917645,0.7473414951307005,1.7837798602096333
1.6896323357877383,-5.01500266333699,0.7651792937327968,2.007235518100488
1.6394823091543684,-5.2023983731600625,0.7852516489138017,2.252989591518266
1.5874583254227679,-5.4078988712791825,0.8077815448289843,2.5227633019767217
1.533379336709976,-5.633134191212471,0.8330091778487516,2.817716723818597
1.4770479947978512,-5.87897574413272,0.8611863450869376,3.1376863850123806
1.418258237356524,-6.144627142967886,0.8925632089370614,3.4798404994495167
1.3568119659268452,-6.426112056719576,0.9273616139315566,3.8364743645407393
1.2925508453596495,-6.7140498481649855,0.965726357576964,4.191802095733727
1.2254103468779995,-6.991091678986431,1.0076443785343012,4.518296504876909
1.1554994300881352,-7.230633522613378,1.0528273435830704,4.774909150967645
1.0831930948620014,-7.40016588762417,1.100576435092747,4.911988552663401
1.0091914359857597,-7.472239603676786,1.1496963206193809,4.887168384174321
0.9344690399489918,-7.439351920775926,1.198568004461124,4.686973947861361
0.8600755207412325,-7.320183103549018,1.2454377439397377,4.336178422444407
0.7868736897057423,-7.149473155596823,1.2887995281641818,3.8837058564806965
0.7153789581497741,-6.961179528598148,1.3276365867289888,3.3785860108132937
0.6457671628637927,-6.778669221767035,1.3614224468371217,2.855614965121859
0.5779804706461223,-6.614102349553978,1.3899785964883402,2.334076719839971
0.5118394471505826,-6.471821585770264,1.4133193636867398,1.8223268962471226
0.44712123129287995,-6.351761484889268,1.431542632649211,1.3225709350948065
0.38360361644398727,-6.251702061054659,1.4447683420001591,0.8340987306763497
0.3210865958334407,-6.168506374815723,1.4531093293069226,0.35511668303511545
0.25940153208528344,-6.098725943435178,1.4566604961372738,-0.11631100353197926
0.19841427265093164,-6.0388667800683455,1.455497386101954,-0.5818128066465924
0.13802560485024817,-5.985489497130027,1.449679258035488,-1.0425146569955288
0.07817070987894789,-5.935236222731101,1.4392541114655328,-1.4989727612366963
0.018818347651636883,-5.884831516169467,1.424264383853166,-1.9511716274292135
-0.040029967510057794,-5.831080487098394,1.4047526675788737,-2.3985576848587025
-0.09834077238104173,-5.770874958631194,1.3807670907302867,-2.8400954308607664
-0.15604952196735367,-5.701212024060831,1.352366136421679,-3.2743407509015583
-0.21306164220796198,-5.619225723237964,1.3196227289126634,-3.699529171925794
-0.2692538994403416,-5.522230321596179,1.2826274371934054,-4.113677542089535
-0.3244762026563034,-5.407772122909567,1.24149066177251,-4.5146971716220206
-0.37855392388539905,-5.273685602940094,1.1963436900562898,-4.900515494621994
-0.43129077991479997,-5.11814883330976,1.1473385351100698,-5.269202235529922
-0.4824722682478976,-4.939732685150462,1.0946465127547707,-5.619095163187247
-0.5318695950994022,-4.73743820856907,1.0384555611228983,-5.948919982629683
-0.5792439771850929,-4.510716927982801,0.9789663612966014,-6.257898884440215
-0.624351146464921,-4.259469605643843,0.9163873724521993,-6.545842828224624
-0.6669458425213594,-3.984020295229824,0.850928944169953,-6.813223811991444
-0.7067860454736576,-3.685064163021633,0.7827967060500386,-7.061225137852489
-0.743636687103874,-3.363589455483016,0.7121844546715137,-7.291769906810783
-0.7772725816587042,-3.020775941656335,0.6392667556034058,-7.507530441878017
-0.8074803410752676,-2.6578739479247195,0.5641914511846257,-7.711923722175469
-0.8340590805545147,-2.2760695983810453,0.487072213962871,-7.909099767578951
-0.8568197765383252,-1.8763431564308812,0.40798121628708145,-8.103930640315646
-0.875583208102634,-1.4593289360876782,0.326941909883925,-8.302006408276268
-0.8901764974635108,-1.025188395437939,0.24392184580116233,-8.509639401183342
-0.9004283814178902,-0.5735154659511019,0.1588254517893289,-8.733866079793849
-0.9061635360774012,-0.10331042223806253,0.0714867909913904,-8.982409890449969
-0.9071966402997819,0.3869034045404025,-0.018337307913109294,-9.263514131431931
-0.9033276062543778,0.8986660274680494,-0.1109724492274286,-9.585442288581373
-0.8943409459796973,1.4325582225243285,-0.20682687211324233,-9.955222766089157
-0.880015363754454,1.985974881818802,-0.3063790997741339,-10.375816500452123
-0.860155614936266,2.548708144777092,-0.41013726477865514,-10.840321425879111
-0.8346685334884951,3.0952669664520336,-0.5185404790374463,-11.321644376656273
-0.8037158638239748,3.5748108487043275,-0.631756922804009,-11.758640258687796
-0.7679677553369315,3.9072969223587974,-0.749343325390887,-12.050214387119711
-0.7288947861133436,4.006562106750295,-0.8698454692620841,-12.085552080699422
-0.6888291650458407,3.838747256377525,-0.9907009900690783,-11.821955679710692
-0.6504416924820654,3.461106493381277,-1.1089205468661851,-11.335611752642611
-0.6158306275482526,2.9792588508205364,-1.2222766643926113,-10.762776343515423
-0.5860380390400473,2.477878897589843,-1.3299044278277656,-10.208106159246569
-0.5612592500641488,1.9994204963611542,-1.4319854894202313,-9.719283882526277
-0.5412650451005372,1.5575232646784836,-1.529178328245494,-9.306950665472508
-0.5256898124537523,1.1525628270514654,-1.6222478349002192,-8.965878691920452
-0.5141641841832377,0.7803017953076326,-1.7119066218194237,-8.686193306571782
-0.5063611662301614,0.43558809665739934,-1.7987685548851415,-8.457862775404934
-0.5020052852635873,0.1136889514879223,-1.883347182639191,-8.272113911783347
-0.5008683957487081,-0.18933871235220234,-1.9660683217570245,-8.121667732772623
-0.5027617828722302,-0.47663167549731783,-2.047284999084751,-8.000587080607156
-0.5075280996272034,-0.750615364964245,-2.1272908698908224,-7.904034642325326
-0.5150342532768458,-1.0131201901535107,-2.2063312163140756,-7.828042981693762
-0.525165455178381,-1.2654891106247534,-2.284611646131013,-7.7693244380576765
-0.5378203462846285,-1.5086689504435162,-2.3623048905115898,-7.725122952167026
-0.5529070357890636,-1.7432859586789127,-2.43955612003326,-7.693102083191376
-0.5703398953758527,-1.969708429746784,-2.5164871408651734,-7.671262102875031
-0.5900369796733206,-2.188099409949254,-2.5931997618939238,-7.657879715764643
-0.6119179737728131,-2.398462023671442,-2.6697785590515704,-7.65146506642194
-0.6359025940095275,-2.6006792881411327,-2.7462932097157897,-7.65073172753493
-0.6619093868909388,-2.794549645000489,-2.822800526991139,-7.654576186551289
-0.6898548833409437,-2.979818886695167,-2.899346288856652,-7.662063972606633
-0.7196530722078953,-3.1562087158776126,-2.9759669285827184,-7.672420041073758
-0.7512151593666715,-3.32344185111837,-3.052691128993456,-7.68502141488761
-0.7844495778778552,-3.4812633810412,-3.1295413431423325,-7.699390414962905
-0.8192622116882672,-3.6294579663957243,-3.2065352472919617,-7.7151871271860495
-0.8555567913522244,-3.7678624855404834,-3.2836871185638223,-7.732200066223727
-0.8932354162076293,-3.896373797569859,-3.3610091192260594,-7.750334308732444
-0.9321991541833279,-4.014951437666275,-3.438512462313384,-7.769596671892143
-0.9723486685599906,-4.1236152362971685,-3.5162084290323055,-7.790077792571784
-1.0135848209229623,-4.222438042007695,-3.594109206958023,-7.811931201346963
-1.0558092013430393,-4.311533904051908,-3.672228518971493,-7.835349670602825
-1.0989245403835584,-4.3910422194507115,-3.750582015677521,-7.860539240514882
-1.1428349625780654,-4.4611084614495224,-3.82918740808267,-7.887691393470279
-1.1874460471925605,-4.521862184774855,-3.9080643220173727,-7.9169538690530725
-1.2326646690403091,-4.573393059038559,-3.9872338607079034,-7.948400609736409
-1.2783985996306948,-4.615725734418648,-4.066717866805267,-7.982001330662599
-1.3245558569748812,-4.648794417786482,-4.146537880111893,-8.01759124844193
-1.371043801152746,-4.672418158756129,-4.226713792596312,-8.0548416178729
-1.4177679827403071,-4.6862780368732695,-4.307262208775041,-8.093231942999877
-1.4646307631090398,-4.689897718117275,-4.38819452820504,-8.132025072857443
-1.5115297402902126,-4.682629210274833,-4.469514778933615,-8.170246869905327
-1.5583560323929608,-4.663646067082193,-4.5512172476326676,-8.206672732043168
-1.6049924930637827,-4.631946709457405,-4.633283974953099,-8.239823899749634
-1.6513119601583568,-4.5863708420200515,-4.715682213950595,-8.267977077377996
-1.6971756685785573,-4.525631986392879,-4.798361984724375,-8.289191266308384
-1.7424319884424861,-4.448368726692368,-4.881253897387459,-8.301355607747979
-1.7869156757094098,-4.353216148388102,-4.964267453464938,-8.30226118533298
-1.8304478371932908,-4.2388969747691085,-5.0472900653182675,-8.289697885317096
-1.872836806940982,-4.104329028043022,-5.130187044171438,-8.26157442409828
-1.9138800972214123,-3.948742073644984,-5.2128027884124215,-8.216055657333857
-1.953367517957862,-3.771793387486517,-5.29496334498576,-8.151706788609232
-1.9910854518327272,-3.573668387143168,-5.376480412871852,-8.067630017467634
-2.0268221357041587,-3.35515143890419,-5.457156713046529,-7.963576708526059
-2.0603736500932004,-3.1176534074036795,-5.53679248013179,-7.840018485015096
-2.0915501841672373,-2.8631870289514514,-5.61519266498194,-7.69816441230646
-2.120182054456752,-2.594288278813198,-5.692174309105004,-7.539918393578423
-2.146124937244884,-2.313890178588366,-5.767573493040788,-7.367779765550066
-2.1692638390307675,-2.025163003968372,-5.841251290696289,-7.184698823724812
-2.189515469070451,-1.7313397351900883,-5.913098278933537,-6.993905495102141
-2.206828866422352,-1.4355467131356447,-5.983037333884559,-6.798732130227504
-2.2211843335537083,-1.1406568095704939,-6.051024655186834,-6.602450057729599
-2.232590901649413,-0.8491770123011282,-6.117049155764129,-6.408134935668305
-2.2410826717724244,-0.5631757615734627,-6.181130505120812,-6.218569582854087
-2.246714429388159,-0.2842492327151491,-6.243316200949353,-6.036186546890824
-2.2495569217153104,-0.013521148623712953,-6.303678066418262,-5.863047447274154
-2.2496921332015476,0.24833192234160834,-6.362308540891004,-5.700852772555399
-2.2472088139781317,0.5010385925996603,-6.419317068616557,-5.550974355485934
-2.242198428052135,0.7446821881921879,-6.4748268121714165,-5.414502835235353
-2.2347516061702133,0.9796485329700313,-6.52897184052377,-5.292303506313804
-2.224955120840513,1.2065769984167454,-6.581894875586908,-5.1850755318908615
-2.212889350856346,1.4263181796517872,-6.633745630905817,-5.093411167805026
-2.198626169059828,1.6399001895037701,-6.684679742583867,-5.0178531548237935
-2.18222716716479,1.8485045554372046,-6.7348582741321055,-4.958949671981798
-2.1637421216104182,2.053452044995349,-6.784447770851924,-4.91730717250217
-2.143207601160465,2.256198367069732,-6.833620842576946,-4.893642058388907
-2.1206456174897674,2.45833949898281,-6.882557263160835,-4.888832503273038
-2.0960622224999392,2.6616262418164602,-6.931445588193565,-4.903971775271312
-2.0694459600817745,2.8679873209699545,-6.980485305946278,-4.94042401113568
-2.040766086872075,3.0795596178045708,-7.0298895460576345,-4.999882220074373
-2.0099704906940294,3.2987223822672296,-7.079888368258378,-5.084425638473937
-1.9769832668713572,3.5281284679827887,-7.130732624643118,-5.1965679647366265
-1.9417019821915293,3.7707176837390195,-7.182698304290484,-5.3392766023958185
-1.9039948053541391,4.029681305855079,-7.236091070314442,-5.5159202731473345
-1.8636979922955883,4.308315306688593,-7.291250273045915,-5.730057905108273
-1.8206148392287023,4.609640410697694,-7.348550852096998,-5.9848979048819215
-1.7745184351217254,4.935562468180496,-7.408399831145817,-6.282109398759446
-1.7251628104399204,5.285189091691787,-7.471220925133411,-6.6194444537367145
-1.6723109195230026,5.651775117031442,-7.537415369670779,-6.986426070863398
-1.6157931683526883,6.017982485062507,-7.607279630379413,-7.357650703382846
-1.5556133435020632,6.350682634732453,-7.680856137413241,-7.685413836416773
-1.4921065171547385,6.6006899056967985,-7.757710275777409,-7.899209800542353
-1.4260996180977705,6.717144695992121,-7.836702373782833,-7.925760111593493
-1.3589281711378494,6.677845150389886,-7.915959974898768,-7.731458424041689
-1.2921497196339504,6.509825270383585,-7.993274559139185,-7.351290044019059
-1.2270514669301145,6.272177201310906,-8.066787459579375,-6.8650438490469075
-1.1643296949170054,6.020259648029742,-8.135437898069844,-6.347536972111416
-1.104127098436708,5.787703326146594,-8.198913267790958,-5.843605436946424
-1.046250065175242,5.588905403708158,-8.257349322160422,-5.371550000542506
-0.9903610111381604,5.427255602124845,-8.311064822165848,-4.934502386941278
-0.936088455116912,5.301257993492237,-8.36040984603526,-4.528859463009245
-0.8830758751819896,5.207765759507526,-8.405698440665352,-4.148725369629804
-0.8309982175869144,5.143414515141231,-8.44718569436165,-3.7878759338048127
-0.7795640724355021,5.105163351415811,-8.485064453699698,-3.4405056805517185
-0.728512438921344,5.090440443996915,-8.519469510505214,-3.101444273746316
-0.6776080344813749,5.0971272687995395,-8.550483953242678,-2.7661657228365133
-0.6266367617933795,5.123483700850335,-8.578145610471042,-2.430732180331282
-0.5754019247848761,5.168056037672023,-8.602452932274355,-2.091731358199027
-0.5237213644081559,5.229583805629522,-8.623370245856345,-1.746230360753433
-0.47142552635186064,5.306910446241936,-8.640832549463878,-1.391753163021893
-0.4183564218894413,5.398899107524127,-8.654750081094097,-1.0262821558819495
-0.36436743081420003,5.504353993666362,-8.665012902652917,-0.6482808265057284
-0.3093238908775364,5.621948365555968,-8.671495710917974,-0.2567324413552873
-0.25310440722197675,5.750161522895543,-8.674063035331526,0.14881235285339733
