th1 (rad),w1 (rad/s),th2 (rad),w2 (rad/s),a1 (rad/s^2),a2 (rad/s^2)
5.781622497572451,0.5162246863813276,2.915064130322304,2.9151329335139957,4.719005840123972,2.412977219160737
5.786784744436265,0.5634147447825673,2.944215459657444,2.939262705705603,4.639968169496962,2.605818901860244
5.792418891884091,0.6098144264775369,2.9736080867145,2.9653208947242056,4.548579783194538,2.793119371376717
5.798517036148866,0.6553002243094823,3.003261295661742,2.9932520884379725,4.444459846240331,2.9749988857514946
5.8050700383919605,0.6997448227718857,3.0331938165461216,3.0230020772954873,4.327229861944016,3.1515418190060647
5.8120674866196795,0.7430171213913258,3.0634238373190765,3.054517495485548,4.196509807471283,3.3227907551965643
5.819497657833593,0.7849822194660386,3.093969012273932,3.0877454030375135,4.051916452641253,3.4887435328072463
5.827347480028253,0.8255013839924512,3.1248464663043074,3.122632838365586,3.89306371776751,3.6493530700444845
5.835602493868178,0.8644320211701263,3.1560727946879634,3.159126369066031,3.719564898276588,3.8045297806114315
5.844246814079879,0.9016276701528921,3.1876640583786235,3.1971716668721455,3.5310365672901156,3.9541463864828192
5.853263090781408,0.9369380358257933,3.219635775047345,3.2367131307369736,3.327103957271257,4.098044941843882
5.8626324711396665,0.9702090753985059,3.252002906354715,3.2776935801554123,3.1074076139792135,4.236045894698903
5.872334561893651,1.001283151538298,3.284779842156269,3.320054039102401,2.871611107053941,4.367959024995316
5.8823473934090345,1.0299992626088375,3.317980382547293,3.363733629352354,2.619409569223807,4.493596107039828
5.892647386035123,1.0561933583010754,3.3516177188408163,3.408669590422752,2.3505388189586744,4.612785147301755
5.903209319618134,1.0796987464906622,3.3857044147450437,3.45479744189577,2.0647847987965404,4.725386045304226
5.91400630708304,1.1003465944786277,3.4202523891640015,3.502051302348812,1.7619930337532388,4.831307515100807
5.925009773027827,1.11796652481616,3.4552729021874895,3.55036437749982,1.4420777820943416,4.930525088646045
5.9361894382759886,1.1323873026371034,3.4907765459624875,3.5996696283862804,1.105030515860379,5.0231000018687295
5.94751331130236,1.1434376077957071,3.5267732422463505,3.6499006284049678,0.7509273329988133,5.109198741910411
5.958947687380316,1.1509468811256953,3.5632722485304003,3.700992615824072,0.379934869321572,5.189113012984795
5.970457156191573,1.154746229818911,3.600282174688641,3.75288374595392,-0.007685750373392525,5.263279862465519
5.982004618489762,1.154669372315177,3.63781101214818,3.8055165445785755,-0.411577403844426,5.3323017024543695
5.993551312212914,1.1505535982767328,3.675866177593966,3.8588395616031193,-0.8312883980658674,5.396965969904355
6.005056848195681,1.142240714296074,3.714454573209997,3.9128092213021626,-1.266277321137007,5.458264195204461
6.016479255338642,1.129577941084704,3.7535826654230187,3.9673918632542073,-1.715921792645493,5.517410299709068
6.02777503474949,1.112418723158249,3.7932565840555608,4.022565966251298,-2.1795315535930984,5.575858021385875
6.038899221981072,1.090623407622318,3.833482243718074,4.078324546465157,-2.656366290586982,5.635317478306394
6.049805456057296,1.0640597447164482,3.8742654891827253,4.134677721248221,-3.145658530865683,5.697771025007481
6.06044605350446,1.0326031594077913,3.9156122663952075,4.191655431498296,-3.646641879359812,5.76548873870766
6.070772085098538,0.9961367406141932,3.9575288207101904,4.249310318885373,-4.158584802857138,5.841044091832325
6.0807334525046794,0.9545508925856219,4.000021923899044,4.307720759803696,-4.680830107796651,5.927330624223217
6.090278961430536,0.9077425915076553,4.043099131497081,4.366994066045929,-5.2128402171517445,6.027580722029275
6.099356387345613,0.8556141893361379,4.08676907215754,4.427269873266222,-5.754248339142733,6.14538793950763
6.107912529238974,0.7980717059447106,4.131041770890202,4.488723752661298,-6.304915647092298,6.28473466370723
6.1158932462984215,0.7350225494737875,4.175929008416815,4.5515710992983704,-6.864994665344815,6.45002731928481
6.12324347179316,0.6663726028203394,4.221444719409798,4.616071372491218,-7.434999187466026,6.646141740186802
6.129907197821363,0.5920226109456791,4.267605433134711,4.682532789893086,-8.015881240642026,6.878481793249712
6.13582742393082,0.5118637985392589,4.314430761033642,4.751317607825583,-8.60911584453927,7.153054816459072
6.140946061916213,0.4257726400938662,4.3619439371118975,4.822848155990174,-9.216794565986868,7.476567907742816
6.1452037883171515,0.3336046944339975,4.4101724186718,4.897613835067602,-9.841729083420125,7.856549514226106
6.1485398352614915,0.23518740359979623,4.459148557022476,4.976179330209863,-10.487566032805912,8.301501011459713
6.15089170929749,0.1303117432717371,4.508910350324575,5.05919434032446,-11.15891409800962,8.82108279523234
6.152194826730207,0.01872260229164091,4.559502293727819,5.147405168276784,-11.86148324708366,9.42633838409618
6.152382052753123,-0.09989223017919568,4.610976345410587,5.241668552117745,-12.602233501067689,10.129957290410495
6.151383130451331,-0.22591456518987257,4.663393030931765,5.34296812502185,-13.389525382448904,10.946571349803273
6.149123984799432,-0.3598098190143616,4.716822712181983,5.452433838519882,-14.233253915838821,11.89306679890624
6.145525886609288,-0.5021423581727498,4.771347050567182,5.571364506508944,-15.144928532810312,12.988870079250482
6.140504463027561,-0.6535916435008529,4.827060695632271,5.701253207301449,-16.13762477762913,14.2561187827742
6.133968546592553,-0.8149678912771442,4.884073227705286,5.843814395129192,-17.22566628610171,15.71954124161058
6.125818867679781,-0.9872245541381612,4.942511371656577,6.001009807545297,-18.423771619079268,17.40570393856342
6.1159466221384,-1.171462270328954,5.00252146973203,6.175066846930931,-19.74517447169265,19.340981704904944
6.10423199943511,-1.3689140150458803,5.064272138201339,6.368476663979981,-21.19781805553618,21.5470500506955
6.0905428592846516,-1.580892195601242,5.127956904841139,6.583947164486935,-22.77700555968429,24.03170793279565
6.074733937328639,-1.808662251198085,5.1937963764860084,6.824264243814892,-24.451678218416955,26.77115096404931
6.056647314816658,-2.0531790333822544,5.262039018924157,7.091975753455385,-26.139648746440177,29.677205047176393
6.0361155244828355,-2.314575520846656,5.332958776458711,7.388747803927149,-27.664962555511714,32.53988681105411
6.012969769274369,-2.591225146401773,5.4068462544979825,7.714146672037691,-28.69030676983185,34.934945951255635
5.987057517810351,-2.8781282141000917,5.48398772121836,8.063496131550247,-28.626855309413532,36.09846550101825
5.95827623566935,-3.1643967671942272,5.564622682533862,8.42448078656043,-26.562583053228078,34.823079509510485
5.926632267997408,-3.430022597726508,5.648867490399467,8.772711581655535,-21.34445694841489,29.560153998520462
5.892332042020143,-3.643467167210657,5.7365946062160225,9.06831312164074,-12.064143678478311,19.07100225475794
5.855897370348036,-3.76410860399544,5.82727773743243,9.259023144188319,0.9501026585535247,3.770446924383334
5.818256284308082,-3.754607577409905,5.919867968874313,9.296727613432152,15.354814835541852,-13.22288409385024
5.780710208533983,-3.6010594290544864,6.012835245008635,9.16449877249365,27.653037280068816,-27.277253560520503
5.744699614243438,-3.324529056253798,6.104480232733571,8.891726236888445,35.498633174201295,-35.37503682487903
5.711454323680901,-2.9695427245117854,6.193397495102455,8.537975868639656,38.88291883184213,-37.66250239942594
5.681758896435783,-2.580713536193364,6.278777253788852,8.161350844645396,39.20551469204539,-36.124528959800195
5.655951761073849,-2.18865838927291,6.360390762235306,7.800105555047394,37.93488684792172,-32.76347763289058
5.63406517718112,-1.809309520793693,6.43839181778578,7.472470778718488,36.0504131156169,-28.877546759641987
5.615972081973183,-1.448805389637524,6.513116525572965,7.183695311122069,34.06805372184603,-25.127182984189126
5.601484028076808,-1.1081248524190637,6.584953478684185,6.9324234812801775,32.21381449190333,-21.78570935351275
5.590402779552617,-0.7859867075000304,6.654277713496987,6.71456638774505,30.562404069647336,-18.9315794441233
5.582542912477617,-0.48036266680355705,6.721423377374438,6.5252505933038165,29.118019520620418,-16.55727314959363
5.577739285809582,-0.18918247159735285,6.786675883307476,6.359677861807881,27.855579816132188,-14.623102949787226
5.575847461093608,0.08937332656396901,6.850272661925555,6.213446832310009,26.740281848824328,-13.081518569581277
5.576741194359248,0.3567761450522123,6.9124071302486545,6.082631646614196,25.73634238527304,-11.887031773621342
5.5803089558097705,0.6141395689049427,6.973233446714796,5.9637613288779825,24.810618245036565,-10.999521251150346
5.5864503514988195,0.8622457513553083,7.032871060003576,5.853766116366479,23.933901683127356,-10.384655814555751
5.595072809012373,1.1015847681865818,7.091408721167241,5.749919558220922,23.08121768892434,-10.013174478955516
5.606088656694238,1.3323969450758253,7.14890791674945,5.649787813431367,22.231733315917353,-9.859809473437315
5.619412626144997,1.5547142782349987,7.205405794883764,5.551189718696993,21.36854648250788,-9.902195219187641
5.634959768927347,1.7683997430600775,7.260917692070734,5.452167766505117,20.478459989576148,-10.11990412635073
5.652643766357948,1.973184342955839,7.315439369735786,5.35096872524161,19.551771828731713,-10.493659671557536
5.672375609787506,2.168702061243156,7.3689490569882015,5.246032128526035,18.582080188766525,-11.004737688785344
5.694062630399938,2.3545228631308213,7.421409378273462,5.135984751638182,17.566089395874577,-11.634549672572696
5.717607859031246,2.530183757089567,7.472769225789844,5.019639254912454,16.503400968865446,-12.36439409430552
5.742909696602142,2.695217766778222,7.522965618338969,4.895995313969399,15.396276877797627,-13.175357539242025
5.769861874269925,2.849180535556198,7.571925571478663,4.764241738576978,14.249367235301499,-14.048344640468438
5.798353679625486,2.991674207909213,7.619567988864433,4.623758292172294,13.069400436509982,-14.96421368687487
5.828270421704579,3.122368212274313,7.665805571786156,4.474116155303546,11.864839186226586,-15.903993454505406
5.859494103827322,3.241016604136579,7.710546733339191,4.315076220758492,10.645510260383148,-16.849156466937046
5.891904269868688,3.3474717067404107,7.753697495546776,4.1465846560891215,9.422218880341436,-17.781924665106416
5.925378986936091,3.441693895543825,7.795163342107667,3.9687654094380576,8.20636013028488,-18.685585314316327
5.959795925891529,3.523757496846674,7.834850996202047,3.7819095562948943,7.0095400410627535,-19.5447976693504
5.995033500859996,3.5938528972573014,7.872670091764997,3.5864615796013903,5.84321808253733,-20.345874115479578
6.0309720298325695,3.6522850780826746,7.908534707561011,3.3830028384465947,4.718381215395559,-21.077022841300284
6.067494880613396,3.69946889023663,7.942364735945477,3.172232610033592,3.645257711106276,-21.728542287673054
6.104489569515763,3.735921467347693,7.974087062045814,2.9549471871568613,2.633076937365142,-22.292960495514084
6.141848784189239,3.762252236721344,8.003636533917382,2.7320175822017205,1.6898793930004847,-22.765115028430497
6.179471306556453,3.7791510306513487,8.0309567097394,2.5043664319174157,0.8223795116654052,-23.14217147108659
6.2172628168629664,3.7873748257680027,8.056000374058573,2.27294471720655,0.03588210325690142,-23.423580746040052
6.2551365651206465,3.7877336468005716,8.078729821230638,2.0387089097461493,-0.6657483041753381,-23.61097777120917
6.293013901588652,3.781076163758818,8.0991169103281,1.8025991320340575,-1.2800675760184992,-23.70802633405395
6.33082466322624,3.768275487998633,8.11714290164844,1.565518868693518,-1.8059855203214972,-23.720217412268628
6.368507418106226,3.750215632795418,8.132798090335376,1.3283166945708316,-2.2436584400481796,-23.654630347316704
6.40600957443418,3.7277790483949365,8.146081257281084,1.0917703910976646,-2.5943476703740855,-23.519668038575595
6.443287364918129,3.7018355716911957,8.15699896119206,0.8565737107119087,-2.860252196234369,-23.324778432280667
6.480305720635041,3.673233049728852,8.16556469829918,0.623325926389102,-3.044324131724788,-23.08017484732535
6.51703805113233,3.642789808411604,8.17179795756307,0.3925241779158485,-3.150076029754736,-22.796567023491665
6.553465949216446,3.6112890481140565,8.17572319934223,0.16455850768093183,-3.1813886784390197,-22.484913222999502
6.5895788396975865,3.5794751613296665,8.17736878441904,-0.0602906245490632,-3.142327311985823,-22.156201386322714
6.6253735913108835,3.5480518882098084,8.17676587817355,-0.28185263841229036,-3.03697317428418,-21.821264418432392
6.6608541101929815,3.5176821564669667,8.173947351789426,-0.5000652825966143,-2.8692763377349557,-21.490631345589215
6.696030931757651,3.488989393089617,8.16894669896346,-0.7149715960525065,-2.642934855720914,-21.174412462822744
6.730920825688547,3.462560044532408,8.161796983002935,-0.9267157206807339,-2.361305006867822,-20.882212701325738
6.765546426133871,3.4389469944637296,8.152529825796128,-1.1355378476939912,-2.0273479067280937,-20.623063127008734
6.799935896078508,3.4186735153964487,8.141174447319187,-1.3417684789640787,-1.6436195196303638,-20.405355355487497
6.834122631232472,3.402237320200145,8.127756762529547,-1.5458220325189536,-1.2123146203059556,-20.236757064816402
6.868145004434473,3.3901141739970853,8.112298542204357,-1.7481896031671176,-0.7353812443192348,-20.124077664545567
6.9020461461744445,3.382760361553893,8.094816646172685,-1.9494303798125732,-0.2147316275701437,-20.073040025388053
6.935873749789983,3.3806130452781913,8.075322342374559,-2.1501607800664537,0.3474100538604771,-20.08789490316047
6.969679880242765,3.384087145816796,8.053820734573895,-2.3510397290980585,0.9479618869238948,-20.17078662819467
7.0035207517009335,3.393566764686035,8.030310337282915,-2.552747595380005,1.5821495391157905,-20.32073879408277
7.0374564193477935,3.4093882600771925,8.004782861329115,-2.7559549833208328,2.2422522735847727,-20.532074895518562
7.071550301948565,3.43181078281304,7.977223311495907,-2.9612757322760186,2.915751132842989,-20.792022911830855
7.105868409776695,3.46096829414147,7.9476105541731465,-3.169195961394327,3.5826539758365294,-21.07718801560319
7.14047809271811,3.4967948338998354,7.915918594559203,-3.379967841550359,4.21175663433119,-21.348555156966462
7.175446041057109,3.5389124002431473,7.8821189161437,-3.5934533931200234,4.755688400476635,-21.544804116131388
7.210835165059541,3.586469284247914,7.8461843822125,-3.808901434281337,5.144935977377157,-21.574195398003024
7.24669985790202,3.6379186440216853,7.8080953678696865,-4.024643388261367,5.281913573511394,-21.30649239374369
7.283079044342237,3.690737779756799,7.767848933987072,-4.237708312198804,5.037911025752689,-20.568829338994114
7.319986422139805,3.741116890014326,7.725471850865085,-4.443396605588745,4.258579445952998,-19.153357384394525
7.357397591039948,3.783702684473856,7.681037884809197,-4.634930179432691,2.786600147766465,-16.84864216463505
7.395234617884687,3.8115686859515208,7.634688583014871,-4.803416601079041,0.5097594646808501,-13.506170409360182
7.433350304744202,3.816666280598329,7.58665441700408,-4.938478305172643,-2.5679713094945376,-9.138488586714503
7.471516967550185,3.7909865675033836,7.537269633952354,-5.029863191039787,-6.259798537608971,-4.010610200754779
7.509426833225219,3.7283885821272937,7.486971002041956,-5.069969293047335,-10.187057603464847,1.349257876262888
7.546710719046492,3.6265180060926454,7.436271309111483,-5.056476714284706,-13.86933362404421,6.276948360574382
7.582975899107418,3.4878246698522033,7.385706541968636,-4.993707230678962,-16.886066004426024,10.197787785588275
7.61785414580594,3.318964009807943,7.335769469661846,-4.891729352823079,-19.012074873781845,12.81360967816767
7.65104378590402,3.128843261070125,7.286852176133616,-4.7635932560414025,-20.2463995858073,14.139721449323902
7.682332218514721,2.9263792652120517,7.2392162435732015,-4.622196041548164,-20.743504493327556,14.406132719270774
7.711596011166841,2.718944220278776,7.19299428315772,-4.478134714355456,-20.715725310971823,13.920181926672983
7.738785453369629,2.511786967169058,7.148212936014166,-4.3389328950887265,-20.362190600903958,12.96749817380408
7.76390332304132,2.3081650611600186,7.104823607063278,-4.209257913350686,-19.837406789403857,11.768993498771069
7.78698497365292,2.10979099326598,7.062731027929772,-4.091567978362975,-19.247543014426572,10.476594555529104
7.8080828835855804,1.9173155631217143,7.021815348146142,-3.986802032807684,-18.659078967839125,9.18603823677241
7.827256039216798,1.730724773443323,6.981947327818065,-3.89494165043996,-18.110062933904576,7.953076187849513
7.844563286951232,1.5496241441042773,6.9429979113136655,-3.815410888561465,-17.61979002418973,6.807288702498213
7.8600595283922745,1.3734262438623799,6.904843802428051,-3.7473380015364826,-17.19587886492483,5.76214422376963
7.873793790830899,1.2014674552131317,6.8673704224126855,-3.689716559298786,-16.839017411498382,4.821730775419097
7.88580846538303,1.033077281098148,6.8304732568196975,-3.6414992515445954,-16.545978456801937,3.985028869167907
7.896139238194011,0.8676174965301285,6.794058264304252,-3.6016489628529165,-16.311462343110062,3.2485221016006864
7.904815413159312,0.7045028730990279,6.758041774675723,-3.5691637418369098,-16.129185171324,2.6077387467097357
7.911860441890303,0.5432110213857879,6.722350137257354,-3.5430863543698123,-15.992497896558113,2.0581269957324677
7.91729255210416,0.3832860424202068,6.686919273713657,-3.5225050844124874,-15.89472141089404,1.5955235589643544
7.9211254125283626,0.22433882831126642,6.651694222869532,-3.5065498488228437,-15.829314214298856,1.2163780779342286
7.923368800811475,0.06604568616827786,6.616628724381303,-3.4943860680435015,-15.789944842504816,0.9178328784747055
7.9240292576731575,-0.0918537622567703,6.581684863700868,-3.4852077392587546,-15.770513228028397,0.6977180715127408
7.92311072005059,-0.2495588945370543,6.546832786308281,-3.4782305585436273,-15.765147831264388,0.554497641426717
7.92061513110522,-0.4072103728496982,6.512050480722845,-3.47268558212936,-15.768194738005176,0.4871873540444271
7.916543027376723,-0.56489232022975,6.477323624901551,-3.467813708588916,-15.774208410865867,0.49525645240187155
7.910894104174425,-0.7226344043384086,6.442645487815662,-3.462861144064897,-15.777949784757446,0.5785199164105792
7.903667760131041,-0.8804139021859831,6.408016876375013,-3.4570759449007915,-15.774394904438685,0.7370251357609287
7.894863621109182,-1.03815785123037,6.373446116926005,-3.4497056935431822,-15.758755696961625,0.9709353178157275
7.884482042596878,-1.1957454081999863,6.338949059990574,-3.439996340365025,-15.726513377664528,1.2804112901716194
7.872524588514878,-1.3530105419766316,6.304549096586924,-3.427192227463309,-15.673464180805336,1.6654932285805195
7.8589944830951115,-1.509745183784685,6.270277174312291,-3.4105372951775035,-15.595776455591956,2.1259840334189515
7.8438970312572645,-1.6657029483406045,6.236171801360516,-3.389277454843314,-15.49005760619024,2.6613364521848597
7.827240001773858,-1.820603524402507,6.202279026812083,-3.3626640903214655,-15.353428849779577,3.2705465047106665
7.809033966529833,-1.9741378129003027,6.168652385908868,-3.329958625274359,-15.1836053139353,3.95205624093493
7.78929258840083,-2.1259738660396557,6.135352799656125,-3.2904380628650096,-14.978978602734712,4.703669293648258
7.768032849740433,-2.2757636520670026,6.102448419027475,-3.243401369928527,-14.738698647735827,5.522483037436474
7.745275213219763,-2.423150638544361,6.070014405328189,-3.188176539554162,-14.462751446974977,6.4048413954264465
7.72104370683432,-2.567778153014111,6.038132639932647,-3.124128125599898,-14.15202920476308,7.3463124194291325
7.695365925304179,-2.7092984450617417,6.006891358676649,-3.0506650014056067,-13.808389438784925,8.341694683821663
7.668272940853561,-2.8473823394495907,5.976384708662593,-2.9672480545673903,-13.434699838804924,9.385056259802946
