th1 (rad),w1 (rad/s),th2 (rad),w2 (rad/s)
2.7994168914100195,-1.344031828309371,4.463971620192768,2.024758090970192
2.7859765731269257,-1.3529406201323249,4.48421920110247,2.100930834828018
2.7724471669256023,-1.3603173738648149,4.505228509450751,2.177297246636083
2.758843993186954,-1.3660989911950787,4.527001481917112,2.2540070625664073
2.7451830032750033,-1.3702195699922928,4.549541552542776,2.331219867698783
2.7314808075750805,-1.3726100923635172,4.572853751219763,2.4091047791252973
2.717754706651445,-1.373198275755046,4.596944799011016,2.487839971847215
2.7040227238938948,-1.371908649800531,4.621823198729488,2.567611976182737
2.6903036373958895,-1.3686629401172095,4.647499318491315,2.648614650254745
2.6766170079947176,-1.3633808641518341,4.673985464993862,2.7310476992044803
2.6629831993531994,-1.3559814746730288,4.701295941985907,2.8151145725410593
2.649423384606469,-1.3463852248400148,4.729447087711318,2.9010195208459426
2.635959532358069,-1.3345169760717681,4.758457282919777,2.988963531372
2.6226143625973513,-1.3203102268714746,4.788346918233497,3.07913878789159
2.6094112603286366,-1.3037129069781614,4.819138306112413,3.1717212136900224
2.596374131258855,-1.2846951543724219,4.850855518249314,3.26686056059114
2.5835271797151305,-1.2632595668598416,4.883524123855225,3.364667408540999
2.570894584046532,-1.2394544833945897,4.917170797940635,3.4651963542881967
2.558500039212586,-1.2133908819116455,4.951822761483517,3.568424620726859
2.5463661303934697,-1.1852634453998925,4.987507007690786,3.6742253549307007
2.534513495939471,-1.1553761925420512,5.024249261240093,3.7823350719088085
2.52295973401405,-1.124172716243687,5.062072611959181,3.8923151427342044
2.511718006851613,-1.0922704212264973,5.100995763386523,4.0035080526152464
2.5007953026393483,-1.0604970837830003,5.1410308439126755,4.114990521009804
2.4901903318015184,-1.0299264697477208,5.182180749122773,4.2255276212884025
2.4798910671040413,-1.0019076135550418,5.224436025335657,4.3335348061245025
2.4698719909684907,-0.9780798368113801,5.267771373396902,4.437058048289344
2.460091192600377,-0.9603631510966245,5.312141953879795,4.533785533347209
2.4504875610894103,-0.9509122928466616,5.357479809213268,4.621106273543573
2.440978438160944,-0.9520237007825568,5.403690871948704,4.69622980374366
2.4314582011531183,-0.9659898694826902,5.45065316998614,4.756374671311621
2.421798302458291,-0.9949057005775302,5.498216916699256,4.799020391412649
2.4118492454525158,-1.040445952314684,5.546207120613383,4.822198841129198
2.401444785929369,-1.1036480940290438,5.594429109024675,4.824781261247312
2.3904083049890783,-1.1847446604836533,5.642676921637149,4.8067040450381135
2.3785608583842417,-1.2830871567264848,5.69074396208753,4.769078649024
2.365729986816977,-1.3971868901648172,5.73843474857777,4.7141519793829225
2.351758117915329,-1.5248706723563004,5.785576268371599,4.645118643960456
2.336509411191766,-1.663521000356138,5.832027454811204,4.565822938170196
2.3198742011882048,-1.810352059693361,5.8776856841929055,4.480412299098342
2.301770680591271,-1.96267076288549,5.922489807183889,4.393007348918461
2.2821439729624164,-2.1180844553887077,5.966419880673074,4.307438445393349
2.2609631284085294,-2.274636677894619,6.009494265127008,4.227073922359347
2.2382167616295834,-2.4308713370679107,6.051765004350601,4.154741231748696
2.2139080482589044,-2.5858385494272493,6.0933124166680885,4.092725705656152
2.188049662764632,-2.739060983423726,6.13423967372465,4.042824392012571
2.1606590529303946,-2.890479259329724,6.174667917644776,4.006432559479447
2.1317542603370976,-3.040391433472691,6.21473224323957,3.984644867770485
2.101350346002371,-3.189397058767929,6.254578691917275,3.978359044848448
2.0694563754146915,-3.33835221336673,6.29436228236576,3.988375408987806
2.0360728532810244,-3.488338858440603,6.334246036455638,4.0154899264219885
2.001189464696618,-3.640650022179852,6.374400935719858,4.06058158756806
1.9647829644748196,-3.796791440585143,6.415006751595539,4.124696941848811
1.9268150500689682,-3.958500164160997,6.4562537210140265,4.2091359783616085
1.8872300484273583,-4.127781014372762,6.498345080797643,4.315544458777145
1.8459522382836306,-4.306962404409717,6.541500525385414,4.446018444835071
1.8028826142395336,-4.49877362060411,6.585960709833765,4.603227012094648
1.7578948780334924,-4.706445636117251,6.6319929799547115,4.790558416210784
1.7108304216723198,-4.933835660121707,6.67989856411682,5.012291643542993
1.6614920650711027,-5.18556902485937,6.730021480552249,5.27378532103929
1.609636374822509,-5.467173900737166,6.782759333762642,5.5816498705535365
1.5549646358151374,-5.785138923009144,6.838575832468178,5.943804396877925
1.497113246585046,-6.14671509603825,6.8980138764369565,6.369166492617877
1.4356460956246635,-6.5590331508041935,6.961705541363135,6.86637108074198
1.3700557641166216,-7.026567730187368,7.030369252170555,7.4401552826948585
1.2997900868147478,-7.544979743313247,7.104770804997504,8.082639757296752
1.2243402893816153,-8.088279360393742,7.185597202570471,8.755203961357754
1.143457495777678,-8.588481463006406,7.273149242184049,9.359783868711338
1.0575726811476138,-8.923451444054578,7.366747080871162,9.721662875201245
0.9683381667070681,-8.96236217461636,7.463963709623175,9.653272368929526
0.8787145449609045,-8.685528989802023,7.56049643331247,9.122662437064557
0.7918592550628842,-8.22630401294202,7.651723057683116,8.312832414194295
0.709596214933464,-7.742929590688442,7.734851381825059,7.442650821847032
0.6321669190265796,-7.319365929621626,7.809277890043529,6.627977708914959
0.5589732597303634,-6.977544954622095,7.875557667132679,5.89835170368512
0.48919781018414243,-6.713341384690827,7.93454118416953,5.24689293511955
0.42206439633723414,-6.515913347306975,7.987010113520725,4.657179744495613
0.3569052628641644,-6.374526660875435,8.033581910965681,4.112786722464301
0.29315999625541006,-6.280273502065742,8.074709778190325,3.5997634460775396
0.23035726123475264,-6.226135721757015,8.1107074126511,3.106839050095896
0.1680959040171825,-6.206617401921596,8.14177580315206,2.625052556561972
0.10602972999796653,-6.217327847065519,8.16802632871768,2.147339479508364
0.04385645152731134,-6.2546150815769845,8.189499723512764,1.668213304885489
-0.01868969928845851,-6.315264523605961,8.206181856561619,1.1835577932984798
-0.08184234452451812,-6.396256451163847,8.218017434494604,0.6905107324355855
-0.1458049090361566,-6.494574893541889,8.224922541818959,0.18741090092846868
-0.2107506579715755,-6.6070649034130575,8.226796650828243,-0.3262217687831567
-0.27682130700570606,-6.7303396435440925,8.223534433140411,-0.8497027466650364
-0.344124703441147,-6.860741240740607,8.215037405673762,-1.3812244573468677
-0.41273211584855307,-6.9943588456698915,8.201225161100293,-1.9179466922176154
-0.482675704305252,-7.127103417257038,8.182045694178116,-2.456151372330567
-0.5539467384778224,-7.254831949599663,8.15748418045481,-2.991464716728761
-0.626495057973819,-7.373505773058381,8.127569533287522,-3.5191349752694956
-0.7002301157044029,-7.479360626823236,8.092378183534827,-4.034339770125369
-0.7750237219726352,-7.56906294776297,8.052034785833573,-4.532487679639509
-0.850714351450265,-7.639828840867526,8.006709909037179,-5.009477039679756
-0.9271126398589402,-7.689489359218347,7.956615138640381,-5.461881781301745
-1.0040075334511236,-7.716496130357369,7.901996320827363,-5.887047460634516
-1.0811724947546972,-7.719872140377198,7.843125846221018,-6.2830965132142715
-1.1583712161584692,-7.699120941829308,7.780294881088875,-6.648855920121278
-1.2353624255767621,-7.654112141304838,7.713806321887662,-6.983729902149487
-1.3119035469898106,-7.584961629805529,7.643969022866167,-7.287543958179077
-1.387753163287866,-7.491922602622556,7.571093583284377,-7.560385313618743
-1.4626723893140914,-7.37529935590315,7.495489730148189,-7.802460387488336
-1.536425382873123,-7.235391362908877,7.417465126273306,-8.013984051529148
-1.6087792965022116,-7.072470973712426,7.3373252857580145,-8.195109581258988
-1.6795040062393358,-6.886794506306692,7.2553741899454245,-8.345902957411075
-1.7483719513024027,-6.678643431365914,7.171915160371314,-8.466360685293935
-1.8151583856160618,-6.44838961260626,7.087251553518374,-8.556466385404375
-1.8796422817421243,-6.1965760515948,7.001686889664331,-8.616277877458087
-1.9416080422580724,-5.924002413951952,6.91552411088975,-8.646033325148883
-2.000848066397592,-5.631803137498038,6.829063777638261,-8.646262506963797
-2.0571660977725723,-5.321505654600948,6.742601152568623,-8.617887951735604
-2.1103811543185818,-4.995057688852672,6.656422273051267,-8.562301124483563
-2.1603317312071084,-4.654815936456541,6.570799261806432,-8.481401480494759
-2.206879890571674,-4.303493475225869,6.4859852470014845,-8.377590986496196
-2.2499148253239327,-3.9440691850142615,6.402209337136522,-8.25372300755498
-2.289355517174075,-3.57966814408014,6.319672107060972,-8.1130111273809
-2.3251521986148767,-3.213426149998678,6.2385419957871635,-7.958909137329438
-2.3572864601148633,-2.848353293918735,6.158952904413869,-7.794976926564497
-2.385769993054051,-2.487210611949617,6.081003135148224,-7.624747734847658
-2.410642099173547,-2.132410659283869,6.004755657799747,-7.451610321988279
-2.431966205766386,-1.785948324562348,5.930239554579865,-7.2787158164374235
-2.4498256890120094,-1.4493634240060822,5.857452396415491,-7.1089143987299535
-2.46431932325207,-1.1237325286812148,5.786363252428192,-6.944722586957392
-2.4755566485388822,-0.8096846547449844,5.716916026558618,-6.788318457723416
-2.4836534950863323,-0.507434039518226,5.649032841981383,-6.641559993154652
-2.4887278354815145,-0.21682305995723639,5.582617242049837,-6.50602086943114
-2.490896066081087,0.06263093185405239,5.5175570333555255,-6.383038136746178
-2.4902697567625465,0.3316898726350689,5.453726651988064,-6.273767029340159
-2.486952858036196,0.5913539987114207,5.390988981694663,-6.179239240579821
-2.4810393180490817,0.842827942193374,5.329196589288864,-6.100422119368402
-2.472611038627148,1.0874951020976147,5.26819236809518,-6.038277180721464
-2.461736087606172,1.3269004794814974,5.207809596287966,-5.993816911672406
-2.448467082811357,1.562741196786333,5.147871427171242,-5.968158923620688
-2.4328396708434936,1.7968627481459976,5.088189837935035,-5.962575796969979
-2.4148710433620337,2.031257240960381,5.028564079965335,-5.978537018984064
-2.39455847095243,2.2680567943123457,4.968778709775495,-6.017735367153322
-2.3718779030093065,2.5095096695320303,4.908601356103961,-6.082082366838002
-2.346782806313986,2.7579166277939677,4.847780532435581,-6.173643318239816
-2.3192036400360463,3.0154872817632525,4.786044099253183,-6.294457425895027
-2.289048767218414,3.284046557777684,4.7230995249942325,-6.4461466962670855
-2.256208301640637,3.5644765143669863,4.658638058031562,-6.629153617732605
-2.220563536496967,3.855725427160724,4.592346521854235,-6.841371116729184
-2.18200628222536,4.153198652194311,4.523932810686944,-7.075900157886966
-2.1404742957034166,4.44650786827972,4.453173809108074,-7.317890611075602
-2.0960092170206193,4.7172064108677025,4.379994902997319,-7.541323309224586
-2.0488371529119425,4.938572498429208,4.3045816699050725,-7.708591915734516
-1.9994514279276503,5.080931395734766,4.227495750747727,-7.777752090976027
-1.9486421139703025,5.1240061609231775,4.149718229837967,-7.719545027603252
-1.8974020523610706,5.069595579354591,4.072522779561935,-7.534918670862578
-1.8467060965675248,4.942236700721424,3.9971735928533096,-7.25594452622126
-1.7972837295603106,4.775993130652975,3.924614147591097,-6.9276157164907435
-1.7495237982537808,4.600070816103607,3.8553379904261895,-6.58814062663891
-1.7035230900927447,4.433026999204115,3.7894565841598005,-6.261137724862444
-1.6591928201007036,4.2840882599395425,3.726845206911176,-5.9575630290344
-1.6163519375013082,4.15656661024702,3.667269576620832,-5.6804323146284315
-1.574786271398838,4.050682029398424,3.6104652534745476,-5.4286669079105225
-1.5342794511048539,3.9652942678947665,3.5561785843954423,-5.199418442258143
-1.4946265084259063,3.8988200474102506,3.504184399972861,-4.989274092645102
-1.4556383079518038,3.84967244197916,3.45429165904641,-4.794813048705583
-1.4171415835320123,3.8164496321308707,3.406343528559354,-4.612827638969259
-1.3789770872107034,3.798000783190561,3.3602152521696618,-4.440383758660188
-1.3409970793787978,3.7934350432241133,3.31581141458306,-4.274810357948002
-1.3030627289465566,3.8021059499431784,3.27306331100358,-4.1136621906842405
-1.265041669447125,3.8235861080508986,3.2319266890967375,-3.954677144416303
-1.226805808366616,3.857638150431702,3.1923799176525747,-3.795738568383144
-1.188229426862299,3.9041834563703186,3.154422531968743,-3.6348482245029343
-1.149187592298596,3.9632676529254613,3.1180740497237136,-3.470113790582281
-1.1095549157693414,4.035020473774815,3.0833729118178907,-3.299754713926666
-1.0692047110315932,4.11960659603125,3.050375364678624,-3.1221308235560694
-1.0280086450712806,4.217163473022271,3.0191540564430634,-2.935798911447951
-0.985837010341058,4.3277220301931685,2.9897960673285837,-2.7396029581938963
-0.9425597900391263,4.451106706090808,2.9624000377466446,-2.532803135356261
-0.8980487229782181,4.5868132057809134,2.937072006393082,-2.3152462730969336
-0.852180590920409,4.733866110360776,2.913919543662113,-2.087575069468213
-0.8048419298168012,4.890664683737059,2.893043792967431,-1.8514639640751467
-0.7559352829794307,5.0548338747818935,2.8745291533266792,-1.6098560245232323
-0.7053869442316117,5.2231075909859,2.858430593081447,-1.3671587434149461
-0.6531558683217528,5.3912801489575575,2.8447590056472976,-1.129341252705597
-0.5992430668321772,5.554265054098893,2.8334655931202417,-0.9038679237734109
-0.5437004162911883,5.7062930530988245,2.8244269138825078,-0.699411809161631
-0.4866374857602,5.841260837183823,2.8174327957908916,-0.5253216780091536
-0.4282248773883618,5.953209901821177,2.8121795790108,-0.390866957898122
-0.36869277837015,6.036880142388237,2.808270909431819,-0.3043440066673546
-0.3083239769462677,6.088256714979352,2.8052274693651453,-0.2721756723479689
-0.24744140979647417,6.105021339752305,2.8025057126416657,-0.29815597333916666
-0.1863911963989511,6.08683305393954,2.799524152908274,-0.38297496918181506
-0.1255228658595557,6.035393038276161,2.795694403216456,-0.524110709149671
-0.06516893547679409,5.954284605857533,2.790453296124959,-0.7161093652183559
-0.005626089418218752,5.848615206296633,2.7832922024727753,-0.9512065027678379
0.052860062644747574,5.7245175453243204,2.773780137445097,-1.2201847568755373
0.11010523809799078,5.588587636978307,2.7615782898763417,-1.5133266390843776
0.16599111446777384,5.447344267864229,2.746445023485498,-1.8213141694510369
0.22046455714641613,5.306783858342908,2.728231881790988,-2.135952193713904
0.2735323957298452,5.1720788446398185,2.7068723598538487,-2.4506426685102993
0.3252531841762434,5.047434190985351,2.6823659331687457,-2.760597006061091
0.3757275260860969,4.9360859416822,2.654759963108135,-3.0628245833821275
0.4250883855029189,4.840405987537036,2.6241317172743135,-3.3559654582503424
0.4734924453782893,4.762071051240717,2.5905720626918103,-3.6400419345045414
0.5211131558906964,4.702258692218826,2.554171643346765,-3.9161928746133565
0.5681357428128847,4.661843805381118,2.515009714600631,-4.1864357728306985
0.6147541808666959,4.641580857766214,2.4731453568723243,-4.453482458767338
0.661169989444358,4.642266956572265,2.428610532284651,-4.7206193828158085
0.7075926590100806,4.664887588252635,2.381404338456493,-4.991653965039533
0.7542415348926069,4.71075046094502,2.331487798806098,-5.270923531267571
0.8013490395020572,4.781613513304008,2.278778563493422,-5.563360783147675
0.8491651746350972,4.87981035502923,2.2231449556619456,-5.87460644068428
0.8979632781853896,5.008367890370114,2.164398891255103,-6.211150612261182
0.9480469570890907,5.171090381157119,2.1022873851324912,-6.580459745066557
0.9997578609006619,5.372536852901657,2.036482787681826,-6.990984458203695
1.0534832294296785,5.6177112631692605,1.966572943099789,-7.451798643710791
1.109660342061371,5.9110477887982205,1.892054956662681,-7.9712948466242155
1.1687708199493534,6.253784280844226,1.8123420081964388,-8.553682516733254
1.2313086627577956,6.637968024070598,1.7268051830291062,-9.190849190706677
1.2976883429985016,7.034598778546346,1.6348966911220395,-9.846091950586551
1.368034330783965,7.376031689542247,1.536435771616174,-10.42981976544332
1.4417946476793875,7.547995030194815,1.4321375739617408,-10.788480453245654
1.5172745979813356,7.433947834205786,1.3242527694292843,-10.765996232742873
1.5916140763233935,7.020340291814557,1.2165928071018555,-10.349096800944883
1.661817479241539,6.428962136687355,1.1131018390924066,-9.710208163954654
1.7261071006084125,5.803271896080035,1.01599975745286,-9.048703492390484
1.7841398195692129,5.220293234938746,0.9255127225289552,-8.47038447986529
1.8363427519186004,4.700078930243126,0.8408088777303023,-8.002452427845395
1.8833435412210318,4.237895971167993,0.7607843534518484,-7.638675111090757
1.9257225009327117,3.822255253858826,0.6843976023409408,-7.364260154270404
1.9639450534712999,3.4415185491849036,0.6107550007982367,-7.164793371108328
1.998360238963149,3.0856669440681825,0.5391070670871535,-7.028521831345648
2.0292169084038307,2.7464557572867783,0.46882184877369704,-6.946452105599205
2.0566814659766983,2.417141282699978,0.399357327717705,-6.91188065324954
2.080852878803698,2.092161878366637,0.3302385211852096,-6.919863175725845
2.1017744975873645,1.766880376837122,0.26103988942795114,-6.966752623900053
2.119443301355736,1.437408007429102,0.19137236318895062,-7.049817876363947
2.1338173814300267,1.1005064180793374,0.12087418442531116,-7.166923362127708
2.1448224456108202,0.7535605634100646,0.04920495080403407,-7.316245223475852
2.1523580512449207,0.39461641189955593,-0.02395750143072445,-7.496003009751874
2.1563042153639165,0.02247840405367313,-0.09891753152824319,-7.704191925947909
2.156528999404453,-0.3631398120598756,-0.1759594507877223,-7.9383085049324045
2.1528976012838545,-0.7614228891868853,-0.25534253583704636,-8.195072877805384
2.1452833723919857,-1.1702405194332168,-0.33729326461510023,-8.470164341638261
2.1335809671976538,-1.5859481652088925,-0.4219949080314829,-8.75800348977722
2.117721485545565,-2.003252700510532,-0.5095749429292551,-9.051631480653297
2.0976889585404597,-2.4152075410710756,-0.6000912577357881,-9.342749533186012
2.0735368831297487,-2.813404741686571,-0.6935187530676482,-9.621980490397382
2.045402835712883,-3.1884136543514545,-0.7897385579716221,-9.879389215902322
2.0135186991693685,-3.530470250377291,-0.8885324501306453,-10.105244417308395
1.9782139966655956,-3.8303520348597493,-0.9895848943037293,-10.290928941712824
1.939910476316998,-4.080300792088467,-1.0924941837208575,-10.429834058504216
1.8991074683961133,-4.274811787826972,-1.1967925243058997,-10.518042060481447
1.8563593505178435,-4.411122022176335,-1.3019729449107142,-10.554637585233817
1.8122481302960802,-4.489305179788543,-1.4075193207630523,-10.541586597123965
1.7673550784981948,-4.5119877791407434,-1.512935186734292,-10.48324252923144
1.7222352007067874,-4.48379332339731,-1.6177676120266065,-10.385628493478974
1.6773972674728144,-4.410664139069466,-1.7216238969613962,-10.255670080471315
1.6332906260821196,-4.299198926131136,-1.8241805977661094,-10.100519207210308
1.5902986368208083,-4.156098100201923,-1.9251857898382125,-9.927045742426534
1.548737655818789,-3.9877561694702988,-2.024456247262478,-9.741512567439184
1.5088600941240862,-3.7999996261281543,-2.12187137293687,-9.549409627919184
1.4708600978628046,-3.597946238372465,-2.2173654692160616,-9.355405788747838
1.43488063547908,-3.3859543165305945,-2.31091952710354,-9.163377197881417
1.401021092313774,-3.167632460844401,-2.402553299082354,-8.976478926291094
1.36934476770533,-2.9458861455380285,-2.492318088345265,-8.79723663971008
1.3398859062499497,-2.7229839289855153,-2.5802904547423657,-8.627643737075436
1.3126560669600946,-2.500631576289702,-2.6665668921131203,-8.46925573797759
1.2876497511971976,-2.2800465307800644,-2.7512594494928964,-8.32327785886928
