th1 (rad),w1 (rad/s),th2 (rad),w2 (rad/s),a1 (rad/s^2),a2 (rad/s^2)
0.9890850055729784,-0.1003356186073172,1.5201084774002558,2.3412931591552355,-4.1038300130130265,-6.25382316235859
0.9880816493869052,-0.14137391873744748,1.5435214089918081,2.2787549275316494,-4.142695228899693,-6.286976099909738
0.9866679101995307,-0.1828008710264444,1.5663089582671246,2.215885166532552,-4.189448690765683,-6.313062899713376
0.9848399014892663,-0.22469535793410123,1.58846780993245,2.1527545375354182,-4.2423694741804985,-6.334463294143618
0.9825929479099252,-0.2671190526759062,1.6099953553078044,2.0894099045939822,-4.299896121366304,-6.353355898715517
0.9799217573831662,-0.3101180138895692,1.6308894543537442,2.025876345606827,-4.360627752484983,-6.371717551836795
0.9768205772442705,-0.3537242914144191,1.6511482178098125,1.962159170088459,-4.423319902814969,-6.391328234484327
0.9732833343301264,-0.3979574904425688,1.670769809510697,1.898245887743616,-4.486876552971285,-6.413779804641068
0.9693037594257007,-0.44282625597228165,1.6897522683881332,1.8341080896972053,-4.550339555959811,-6.440487116955271
0.9648754968659778,-0.48832965153187974,1.7080933492851051,1.7697032185276527,-4.612876414500585,-6.4727004109370725
0.959992200350659,-0.5344584156768856,1.7257903814703817,1.7049762144182818,-4.673767138996882,-6.511518124896711
0.9546476161938902,-0.5811960870668544,1.7428401436145644,1.6398610331693146,-4.732390727052472,-6.5578995215125415
0.9488356553232216,-0.6285199943373792,1.7592387539462575,1.5742820379541893,-4.788211650533623,-6.612676694606818
0.9425504553798477,-0.6764021108427154,1.7749815743257995,1.5081552710081212,-4.840766613643412,-6.676565669357598
0.9357864342714206,-0.7248097769791495,1.7900631270358807,1.4413896143145453,-4.889651751494411,-6.750176415560153
0.9285383365016291,-0.7737062944940936,1.8044770231790261,1.3738878501589438,-4.934510368799123,-6.83402167199222
0.9208012735566882,-0.8230513981820848,1.8182159016806156,1.3055476334390215,-4.975021268152843,-6.928524535539666
0.9125707595748673,-0.8728016108636133,1.8312713780150058,1.2362623880836248,-5.010887682966985,-7.034024806981297
0.9038427434662312,-0.9229104876932831,1.8436340018958421,1.1659221400138118,-5.04182680799329,-7.1507841108984405
0.8946136385892983,-0.973328755773216,1.8552932232959802,1.0944142989048273,-5.0675599077406766,-7.278989823934697
0.8848803510315661,-1.0240043548506228,1.8662373662850285,1.0216244006654804,-5.087802977686981,-7.4187578566939845
0.8746403074830599,-1.0748823846274926,1.8764536102916833,0.9474368220985406,-5.102257933303646,-7.570134342381719
0.8638914836367849,-1.1259049639605292,1.8859279785126688,0.8717354786747235,-5.110604306250662,-7.7330962917668575
0.8526324339971796,-1.1770110070230357,1.894645333299416,0.7944045157570548,-5.1124914347201935,-7.907551280627531
0.8408623239269493,-1.2281359213702376,1.9025893784569865,0.7153290029507795,-5.107531145135599,-8.0933362436446
0.8285809647132469,-1.2792112328215937,1.9097426684864942,0.6343956405143335,-5.0952909347688395,-8.290215458549854
0.815788852385031,-1.330164142169282,1.9160866248916375,0.551493485928835,-5.075287678973401,-8.4978778168212
0.8024872109633382,-1.380917018959016,1.921601559750926,0.466514707760623,-5.046981902362594,-8.715933492764073
0.788678040773748,-1.431386837982642,1.9262667068285322,0.37935537283298226,-5.009772670135445,-8.943910141681693
0.7743641723939216,-1.4814845646839965,1.930060260556862,0.2899162714161653,-4.9629931735787105,-9.181248780118104
0.7595493267470816,-1.5311144964197836,1.9329594232710237,0.1981037836149843,-4.905907102200352,-9.427299526797286
0.7442381817828838,-1.5801735674417872,1.9349404611071734,0.10383078834701143,-4.837705913518604,-9.681317411644462
0.7284364461084659,-1.6285506265769731,1.9359787689906436,0.007017614230566793,-4.757507129644152,-9.942458491727244
0.7121509398426962,-1.6761256978734147,1.9360489451329492,-0.09240697068670566,-4.66435380668561,-10.20977654643243
0.6953896828639621,-1.7227692359402709,1.9351248754260821,-0.19450473615102995,-4.557215337725232,-10.482220658778216
0.6781619905045594,-1.7683413893175233,1.9331798280645718,-0.2993269427388121,-4.434989761490548,-10.758634024245044
0.6604785766113842,-1.8126912869324288,1.9301865586371836,-0.40691328298126256,-4.296507755515766,-11.037754361377111
0.6423516637420599,-1.8556563644875863,1.926117425807371,-0.5172908265950337,-4.140538492968433,-11.318216327831546
0.623795100097184,-1.8970617494172706,1.9209445175414206,-0.6304729898733491,-3.965797534657392,-11.598556369395924
0.6048244826030112,-1.9367197247638446,1.914639787642687,-0.7464585535673083,-3.770956910149797,-11.877220445346627
0.5854572853553728,-1.9744292938653425,1.907175202107014,-0.8652307580207745,-3.5546575124542237,-12.152575078756142
0.5657129924167194,-2.009975868989885,1.8985228945268062,-0.986756508808336,-3.3155238874509942,-12.422922172238325
0.5456132337268205,-2.0431311078643946,1.888655329438723,-1.1109857305307191,-3.0521814404003633,-12.686518005426903
0.5251819226481765,-2.073652922268398,1.8775454721334157,-1.2378509105849882,-2.7632760059729304,-12.941596787692417
0.5044453934254925,-2.1012856823281276,1.8651669630275658,-1.3672668784619124,-2.447495634353238,-13.186399076107048
0.48343253660221125,-2.12576063867166,1.8514942942429466,-1.499130869222983,-2.103594333792885,-13.419205283025343
0.46217493021549466,-2.146796582009589,1.836502985550717,-1.6333229220532364,-1.7304173801839982,-13.638374389372634
0.44070696439539875,-2.164100755811429,1.8201697563301846,-1.7697066659469627,-1.3269276585969618,-13.842387849584105
0.4190659568372845,-2.1773700323973983,1.802472689670715,-1.9081305444428038,-0.8922323434804278,-14.02989852442572
0.3972922565133105,-2.1862923558322027,1.783391384226287,-2.048429529687061,-0.42560905816264405,-14.199784312777423
0.3754293329549885,-2.190548446413829,1.7629070889294163,-2.190427372814835,0.07346951299636925,-14.35120597900737
0.35352384849085017,-2.1898137512838654,1.741002815201268,-2.3339394326049088,0.605313746502608,-14.483668497052623
0.3316257109780115,-2.1837606138188392,1.7176634208752188,-2.478776117575435,1.1699992648000124,-14.597085065994872
0.3097881048398231,-2.1720606211708393,1.6928756596994645,-2.624746968235384,1.7673546261898272,-14.691842806687816
0.2880674986281147,-2.154387074908941,1.6666281900171107,-2.771665396302262,2.3969560299791604,-14.768869037708454
0.2665236278790253,-2.1304175146091495,1.638911536054088,-2.9193540866793466,3.0581305565982215,-14.829696964147265
0.24521945273293377,-2.0998362090431675,1.6097179951872946,-3.0676510563208192,3.749969395478998,-14.87652960491928
0.2242210906425021,-2.0623365150883775,1.5790414846240863,-3.216416352370012,4.471352351656537,-14.912300838732051
0.2035977254916183,-2.017622991571812,1.5468773211003861,-3.3655393607573325,5.220984644291883,-14.940732561731778
0.18342149557590018,-1.9654131451288932,1.5132219274928127,-3.51494668637465,5.997446591012989,-14.966387102003228
0.16376736412461124,-1.9054386792187632,1.4780724606290663,-3.6646105573946826,6.799256176619706,-14.994714184091821
0.1447129773324236,-1.8374461174525663,1.4414263550551194,-3.8145576992356007,7.624943681812076,-15.032091799429196
0.12633851615789796,-1.7611966806344455,1.4032807780627634,-3.9648786172298927,8.473136414491806,-15.085860176568026
0.1087265493515535,-1.6764653164895273,1.3636319918904645,-4.115737218995573,9.342650004907862,-15.164347428377493
0.09196189618665823,-1.5830388164404487,1.3224746197005088,-4.267380693279348,10.232580463476332,-15.276884009076486
0.07613150802225374,-1.4807130118056855,1.2798008127677154,-4.420149533370113,11.142387863650534,-15.433800242288537
0.06132437790419688,-1.36928913316918,1.2355993174340143,-4.574487535792998,12.071957444483537,-15.646395916915562
0.047631486572505086,-1.2485695587243448,1.1898544420760844,-4.730951494962153,13.021616039664616,-15.926861734285577
0.03514579098526164,-1.1183533983276988,1.142544927126463,-4.890220112305009,13.992069247538211,-16.2881167163015
0.02396225700198465,-0.9784327058523167,1.093642726003413,-5.053101279468024,14.984204773297739,-16.743499509229405
0.014177929943461483,-0.8285906581193393,1.0431117132087326,-5.220536274560318,15.998675311380932,-17.30620840366177
0.00589202336226809,-0.6686039050055299,0.9909063504631295,-5.393598358596935,17.0351230973087,-17.98831480263219
-0.0007940156877872086,-0.4982526740324429,0.9369703668771601,-5.573481506623257,18.0908273923528,-18.79906281735573
-0.005776542428111637,-0.31734440010891485,0.8812355518109275,-5.761472134796815,19.158431689840306,-19.741993116402657
-0.008949986429200786,-0.1257600832105118,0.8236208304629593,-5.958892065960842,20.22222460970968,-20.81016920755373
-0.010207587261305905,0.07646216288658503,0.7640319098033509,-6.166993758036379,21.252203712933397,-21.978429159670714
-0.009442965632440055,0.288984200015919,0.7023619722229871,-6.386778049633087,22.194888713637624,-23.191187159226025
-0.006553123632280864,0.5109330871522952,0.6384941917266562,-6.6186899212253465,22.95975438491796,-24.344107774430217
-0.0014437927607579117,0.7405306310014749,0.5723072925144027,-6.862130998969649,23.40075428130273,-25.25868420528526
0.005961513549256837,0.9745381738145023,0.5036859825247062,-7.114717841022501,23.294935254609904,-25.65205295176254
0.01570689528740186,1.2074875263606013,0.4325388041144812,-7.3712383705401265,22.32682676513692,-25.113359238663588
0.027781770551007876,1.4307557940119706,0.3588264204090799,-7.622371962926763,20.10041367380362,-23.11590807908006
0.04208932849112758,1.6317599307500068,0.2826027007798123,-7.853531043717563,16.217022697630213,-19.117262528752892
0.05840692779862765,1.793930157726309,0.20406739034263666,-8.044703669005091,10.456175375713359,-12.798562791894117
0.07634622937589074,1.8984919114834424,0.12362035365258574,-8.172689296924032,3.0318751466153766,-4.4072094037734715
0.09533114849072516,1.9288106629495962,0.041893460683345415,-8.216761390961766,-5.245411371776534,5.026198148641619
0.11461925512022111,1.8763565492318308,-0.040274153226272244,-8.16649940947535,-13.144142098924352,13.924517568695165
0.13338282061253942,1.7449151282425872,-0.12193914732102575,-8.027254233788398,-19.53210690162141,20.859927480200145
0.1508319718949653,1.549594059226373,-0.20221168965890973,-7.8186549589863965,-23.855592368259494,25.182730863831623
0.16632791248722903,1.3110381355437781,-0.2803982392487737,-7.56682765034808,-26.205519738294672,27.08846757395318
0.1794382938426668,1.0489829381608313,-0.3560665157522545,-7.295942974608549,-27.04051124041861,27.23281399848953
0.1899281232242751,0.7785778257566451,-0.42902594549834,-7.023614834623653,-26.88004204668234,26.321763638172147
0.19771390148184156,0.5097774052898217,-0.49926209384457654,-6.7603971982419315,-26.14129873727757,24.903638667284426
0.20281167553473978,0.24836441791704605,-0.5668660658269958,-6.511360811569087,-25.104889738345907,23.334137155191176
0.20529531971391024,-0.0026844794664130367,-0.6319796739426867,-6.278019440017175,-23.939332298893678,21.816420708924436
0.2052684749192461,-0.24207780245534982,-0.6947598683428585,-6.059855232927931,-22.737128379975076,20.452995799326885
0.2028476968946926,-0.4694490862551006,-0.7553584206721379,-5.855325274934662,-21.544303918544042,19.286424064900874
0.1981532060321416,-0.684892125440541,-0.8139116734214845,-5.662461034285654,-20.380384667006265,18.326001034470746
0.19130428477773617,-0.8886959721106037,-0.8705362837643411,-5.479201023940947,-19.2507196077466,17.56370421306077
0.18241732505663014,-1.0812031681880696,-0.9253282940037506,-5.303563981810339,-18.15370008143519,16.98320490077398
0.17160529337474945,-1.2627401690024216,-0.978363933821854,-5.1337319328026,-17.084842770761867,16.56474961412314
0.15897789168472523,-1.4335885967100404,-1.0297012531498801,-4.968084436661369,-16.03902397579214,16.28769787638115
0.14464200571762484,-1.5939788364679617,-1.0793820975164938,-4.805207457897557,-15.011647007465275,16.131776579272735
0.12870221735294524,-1.7440953065426144,-1.1274341720954695,-4.64388969210483,-13.999200188747126,16.077655879815392
0.11126126428751909,-1.8840873084300855,-1.1738730690165178,-4.483113133306676,-12.999468287007382,16.10718284736625
0.09242039120321824,-2.0140819913001593,-1.2187042003495845,-4.3220413048330135,-12.011547316141522,16.203455119955375
0.07227957129021664,-2.1341974644615744,-1.2619246133979147,-4.16000675363346,-11.03574845577514,16.350830045059467
0.050937596645600894,-2.2445549490193257,-1.3035246809342493,-3.996498453182865,-10.073440784210456,16.534916376528162
0.028492047155407638,-2.3452893568614304,-1.343489665466078,-3.831149289417583,-9.126862441807825,16.742568921967422
0.005039153586793334,-2.4365579812795084,-1.3818011583602539,-3.6637236001979088,-8.198918690616853,16.961892151909836
-0.01932642622600175,-2.518547168185677,-1.418438394362233,-3.4941046786788106,-7.292979088477241,17.182251395091406
-0.04451189790785852,-2.5914769590704494,-1.453379441149021,-3.3222821647278966,-6.412682371011125,17.39428687129093
-0.07042666749856301,-2.6556037827805605,-1.4866022627963,-3.148339296014987,-5.561755358568845,17.589924757063205
-0.09698270532636862,-2.711221336366249,-1.51808565575645,-2.972440048444355,-4.743850583794998,17.76237975212768
-0.12409491869003111,-2.758659842204199,-1.5478100562408934,-2.7948162509230783,-3.9624060111872366,17.906144620099827
-0.15168151711207312,-2.7982839023160713,-1.5757582187501242,-2.61575480472208,-3.22052902741184,18.01696354309329
-0.17966435613523382,-2.8304891925901896,-1.601915766797345,-2.435585169291147,-2.520905762308275,18.091787611216237
-0.2079692480611357,-2.855698250213272,-1.6262716184902564,-2.2546672931789846,-1.8657357538996417,18.1287122010978
-0.23652623056326844,-2.8743556077522685,-1.6488182914220462,-2.0733801711680067,-1.2566910201403585,18.126897272240836
-0.26526978664079115,-2.886922517953672,-1.6695520931337262,-1.8921111984455983,-0.694897776232369,18.086472655646354
-0.29413901182032787,-2.8938714957159957,-1.688473205118182,-1.7112464718891347,-0.18093836600076446,18.00843118614726
-0.3230777267774878,-2.895680879376003,-1.7055856698370735,-1.5311621600276621,0.2851295233954394,17.894513023657474
-0.35203453557124786,-2.892829584142049,-1.7208972914373502,-1.3522170297910874,0.7037396161881346,17.747084724959937
-0.38096283141266835,-2.8857921879801673,-1.734419461735261,-1.174746182541488,1.075773175377394,17.569016588809372
-0.40982075329247003,-2.8750344562263934,-1.746166923560676,-0.9990560166533943,1.4025079007497483,17.36356153716969
-0.43857109785473397,-2.861009377218896,-1.75615748372721,-0.8254204012816974,1.685562858851551,17.134238356403454
-0.46718119162692295,-2.8441537486303803,-1.764411687740027,-0.6540780177176628,1.9268424681608147,16.884721550039515
-0.49562272911322675,-2.8248853239487723,-1.7709524679172037,-0.48523080221726766,2.1284822564899932,16.618739395128458
-0.5238715823527145,-2.8036005013838725,-1.7758047759393765,-0.3190434082659831,2.292798767235067,16.339981089404976
-0.5519075873665532,-2.780672513711522,-1.7789952100220363,-0.15564359737193334,2.4222456488062827,16.05201316254794
-0.5797143125036684,-2.756450057223459,-1.7805516459957555,0.004876534253546061,2.5193776462746342,15.758204629839799
-0.607278813075903,-2.7312562807607126,-1.7805028806532202,0.16245858055194407,2.586823949744844,15.46165970999713
-0.6345913758835101,-2.705388041263264,-1.7788782948477007,0.3170751776519154,2.6272721577040934,15.165156322532923
-0.6616452562961428,-2.679115319686223,-1.7757075430711815,0.46872674087724464,2.643463995521235,14.871088029682944
-0.688436409493005,-2.6526806797310107,-1.7710202756624092,0.6174376211740741,2.638203890141181,14.581406597803362
-0.7149632162903151,-2.626298640829599,-1.7648458994506684,0.7632516871521077,2.614381530873806,14.297561931458333
-0.7412262026986111,-2.600154825520861,-1.7572133825791474,0.906227306466691,2.5750096160664295,14.02043580123658
-0.7672277509538197,-2.5744047293601966,-1.7481511095144804,1.0464316644790568,2.5232780464416757,13.750265590083204
-0.7929717982474216,-2.54917194889578,-1.7376867928696897,1.1839343203798889,2.462625794180477,13.486554311996892
-0.8184635177363794,-2.524545690953975,-1.7258474496658909,1.318799863499858,2.3968314188312685,13.227963567854331
-0.8437089746459191,-2.5005773767656625,-1.7126594510308923,1.4510794991784013,2.3301225118004854,12.972187151075111
-0.8687147484135758,-2.477276151647658,-1.6981486560391084,1.5808013706891524,2.26730292782048,12.71580509212659
-0.8934875099300523,-2.454603122369453,-1.682340642332217,1.7079594216104184,2.213894078270106,12.454121599299883
-0.9180335411537468,-2.432464181586752,-1.6652610481161128,1.8325006376034172,2.1762822561735957,12.180996367111726
-0.9423581829696144,-2.410701359025016,-1.6469360417400787,1.9543106012745344,2.161857270128829,11.888687984461063
-0.9664651965598645,-2.3890827863237276,-1.6273929357273333,2.073197481119145,2.1791179391251525,11.567741559359552
-0.9903560244231018,-2.367291606932476,-1.606660960916142,2.1888748967127403,2.2377069215682677,11.206970620050521
-1.0140289404924265,-2.3449145377167935,-1.5847722119490146,2.3009446029132454,2.3483215144593963,10.793605030712078
-1.0374780858695944,-2.3214313225721996,-1.5617627659198823,2.408880653220366,2.5224309393960787,10.313698659368303
-1.0606923990953165,-2.296207013178239,-1.5376739593876787,2.512017639814049,2.771719878155275,9.752905073821836
-1.0836544692270988,-2.2684898143966863,-1.5125537829895381,2.6095466905522673,3.1071826149629858,9.097722867461503
-1.1063393673710658,-2.2374179882470564,-1.4864583160840155,2.700523919226882,3.5378262791799893,8.33726480680486
-1.1287135472535363,-2.2020397254552564,-1.4594530768917466,2.783896567294931,4.069020307457039,7.46549637826375
-1.1507339445080889,-2.161349522380686,-1.4316141112187972,2.8585515310775684,4.700659022044306,6.4837106385731715
-1.1723474397318958,-2.114342932160243,-1.4030285959080215,2.9233886374633,5.425468888941135,5.402780587615617
-1.1934908690534982,-2.0600882432708314,-1.3737947095333884,2.977416443339456,6.227938386636819,4.244531776106692
-1.2140917514862066,-1.9978088594044632,-1.3440205450999938,3.019861761100523,7.084387993660459,3.0415291947702796
-1.2340698400802512,-1.9269649794678585,-1.3138219274889886,3.050277053048226,7.964541272801107,1.8347963653985684
-1.2533394898749297,-1.8473195667398474,-1.2833191569585063,3.068625016702212,8.834581962716118,0.6695107845484354
-1.2718126855423282,-1.7589737471126863,-1.252632906791484,3.075320124547696,9.661188687072388,-0.4105969931817668
-1.289402423013455,-1.6623618602419623,-1.2218797055460071,3.0712141546158787,10.415644037099932,-1.3688748656380916
-1.3060260416158747,-1.558205419870963,-1.1911675639998482,3.0575254059594976,11.07703355427271,-2.1800489576797304
-1.3216080958145844,-1.4474350843282358,-1.1605923099402533,3.0357249163827005,11.633847766904163,-2.832259661629888
-1.3360824466578667,-1.331096606659194,-1.1302350607764262,3.0074023197664017,12.083833539295265,-3.326653031060001
-1.3493934127244587,-1.2102582712662413,-1.1001610375787623,2.9741357894558016,12.432451090958216,-3.675055240497817
-1.361495995437121,-1.0859337603566592,-1.0704196796842043,2.9373852370508233,12.690574453507084,-3.8966393190388966
-1.3723553330406877,-0.9590280158215884,-1.041045827313696,2.8984188438604344,12.872077271609148,-4.014485294704486
-1.3819456131989036,-0.8303072431054969,-1.0120616388750916,2.8582739909133896,12.99176125465704,-4.052665875263868
-1.3902486856299585,-0.7003896305589264,-0.9834788989659577,2.817747332160751,13.063844525258887,-4.034148401595783
-1.3972525819355477,-0.5697511853063376,-0.9553014256443503,2.7774058481447934,13.101030257523433,-3.9795276223909624
-1.402950093788611,-0.4387408827311033,-0.9275273671629023,2.7376105719208836,13.11406042708974,-3.9064443536198654
