th1 (rad),w1 (rad/s),th2 (rad),w2 (rad/s),a1 (rad/s^2),a2 (rad/s^2)
0.028415294101525785,-2.671914354893654,2.5540799974791595,2.044092430758096,-4.456080566332013,-13.193676096128865
0.0016961505525892422,-2.7164751605569744,2.5745209217867404,1.9121556697968072,-4.533121293197927,-13.058077032391896
-0.025468601052980502,-2.7618063734889535,2.5936424784847083,1.7815748994728882,-4.515160419230974,-12.824366671320517
-0.05308666478787004,-2.806957977681263,2.6114582274794373,1.653331232759683,-4.394362286507521,-12.476830334797299
-0.08115624456468268,-2.8509016005463383,2.6279915398070344,1.52856292941171,-4.164718001551968,-12.002463648856802
-0.10966526057014606,-2.892548780561858,2.6432771691011516,1.408538292923142,-3.8227602815307975,-11.392067209677176
-0.13859074837576463,-2.930776383377166,2.657362552030383,1.2946176208263702,-3.3681953778647573,-10.641253762179005
-0.16789851220953628,-2.9644583371558135,2.670308728238647,1.18820508320458,-2.8043750108624907,-9.751243654579298
-0.19754309558109442,-2.9925020872644383,2.6821907790706927,1.0906926466587872,-2.1385397369641503,-8.729332294481177
-0.22746811645373882,-3.01388748463408,2.6930977055372805,1.0033993237139753,-1.38178637538656,-7.588941754722642
-0.25760699130007964,-3.0277053483879457,2.70313169877442,0.9275099061667489,-0.5487432418237146,-6.349214508831859
-0.28788404478395907,-3.033192780806183,2.7124067978360875,0.8640177610784303,0.34302755354413256,-5.034162897453298
-0.3182159725920209,-3.0297625052707415,2.721046975446872,0.8136761321038973,1.2738484150736744,-3.6714429913170425
-0.34851359764472833,-3.017024021120005,2.729183736767911,0.7769617021907269,2.2228883964851045,-2.2908657983579257
-0.3786838378559284,-2.9947951371551538,2.7369533537898185,0.7540530442071477,3.1691803732219035,-0.9227849394853757
-0.40863178922747995,-2.963103333422935,2.74449388423189,0.7448251948122939,4.09260556371616,0.40349477316301
-0.4382628225617093,-2.922177277785773,2.7519421361800127,0.748860142543924,4.974769724396454,1.6611571454214424
-0.467484595339567,-2.8724295805418087,2.759430737605452,0.7654717139981384,5.799714375867778,2.827059757414748
-0.49620889114498506,-2.814432436783131,2.767085454745433,0.7937423115722859,6.554428274567042,3.88259666137923
-0.5243532155128163,-2.7488881540374606,2.775022877861156,0.8325682781860783,7.229145612662181,4.814207677249289
-0.551842097053191,-2.676596697910839,2.783348560643017,0.8807103549585712,7.817435949701195,5.613537338636788
-0.5786080640322994,-2.598422338413827,2.792155664192603,0.9368457283449391,8.316105650571084,6.277274838697968
-0.6045922874164377,-2.515261281908116,2.8015241214760525,0.9996184767319187,8.72494137899256,6.8067274538429965
-0.6297449002355189,-2.4280118681181904,2.811520306243372,1.0676857512703486,9.04633306768799,7.207193349574805
-0.6540250189167007,-2.3375485374413105,2.8221971637560754,1.1397576847660966,9.284816946002346,7.487205488754526
-0.6774005042911139,-2.244700367981287,2.8335947406037363,1.2146297396536418,9.446578899264434,7.65771716178089
-0.6998475079709268,-2.150234578988643,2.8457410380002726,1.2912069112714508,9.538955042689128,7.731292517232418
-0.7213498537608132,-2.054845028561752,2.8586531071129873,1.368519836443775,9.569960516341329,7.721353912237465
-0.7418983040464306,-1.9591454233983385,2.872338305477425,1.4457333755661497,9.547869972414695,7.6415237529077755
-0.761489758280414,-1.8636667236741915,2.8867956392330867,1.5221486130952275,9.480864993494812,7.505083654345688
-0.7801264255171559,-1.7688580737392434,2.902017125364039,1.5971994496386843,9.376755697686594,7.324559910510711
-0.7978150062545484,-1.6750905167623775,2.917989119860426,1.6704450487437914,9.242776833806767,7.111432690348075
-0.8145659114221722,-1.5826627484243099,2.934693570347864,1.7415593756472723,9.08545325701917,6.875957784072689
-0.8303925389064153,-1.4918082158541182,2.9521091641043364,1.810318953487999,8.910526009407496,6.627084286023668
-0.8453106210649565,-1.4027029557600432,2.970212353639216,1.8765897963482359,8.722928249727543,6.372449053307172
-0.8593376506225568,-1.3154736732627679,2.9889782516026986,1.9403142868813075,8.52679972906211,6.118428575534509
-0.8724923873551845,-1.2302056759721467,3.008381394471512,2.0014985726366525,8.325529040376718,5.8702303620934275
-0.884794444114906,-1.1469503855683796,3.0283963801978784,2.060200876257587,8.1218141059603,5.632008441765734
-0.8962639479705898,-1.0657322445087765,3.048998388960454,2.116520960675244,7.917732971313021,5.406990514279528
-0.9069212704156776,-0.9865549147956463,3.0701635985672064,2.1705908658180393,7.714818681154458,5.197607271736799
-0.9167868195636341,-0.9094067279841017,3.091869507225387,2.222566938535407,7.514133636632155,5.005617140106051
-0.925880886843475,-0.8342653916177801,3.114095176610741,2.2726231099364678,7.316340260366327,4.83222202274147
-0.9342235407596529,-0.7611019890141169,3.1368214077101055,2.3209453301638825,7.1217659755116385,4.678171501466927
-0.941834560649794,-0.6898843292590005,3.1600308610117445,2.367727045178552,6.930461427596598,4.543854374629091
-0.948733403942384,-0.6205797149830344,3.18370813146353,2.413165588924843,6.742251562026825,4.429377433549203
-0.9549392010922144,-0.5531571993627662,3.2078397873527784,2.4574593632603348,6.5567796489990435,4.334632065478052
-0.9604707730858421,-0.48758940287277575,3.232414380985382,2.5008056839151154,6.373544659749657,4.259349693213854
-0.9653466671145698,-0.42385395627527916,3.257422437824533,2.543399180847254,6.191932581498763,4.203147285122807
-0.9695852066773226,-0.3619346304602915,3.282856429633006,2.585430653698482,6.011242347042414,4.165564251405364
-0.9732045529819255,-0.3018222069898674,3.308710736169991,2.6270862962125356,5.830707077017236,4.146092029312364
-0.9762227750518242,-0.24351513621969503,3.3349815991321163,2.6685472165056594,5.649511310881554,4.144197587314079
-0.9786579264140212,-0.1870200231108795,3.361667071297173,2.7099891923788,5.466804853670049,4.1593419722770335
-0.98052812664513,-0.13235197457417902,3.3887669632209607,2.7515826121015707,5.281713801985171,4.1909949030570095
-0.9818516463908717,-0.0795348365543273,3.4162827893419765,2.793492561132141,5.093349243128438,4.238646290994909
-0.982646994756415,-0.028601344123042924,3.444217714953298,2.83587902404209,4.900814051487222,4.301815450402707
-0.9829330081976455,0.020406796391829296,3.472576505193719,2.878897178546117,4.703208139864261,4.380058654677337
-0.9827289402337273,0.0674388777904719,3.50136547697918,2.9226977650928903,4.499632462429646,4.472975598245577
-0.9820545514558225,0.11243520241476837,3.530592454630109,2.9674275210753462,4.289192011423754,4.58021524158312
-0.9809301994316748,0.1553271225290059,3.5602667298408623,3.0132296734911774,4.07099800204261,4.70148144547212
-0.9793769282063848,0.19603710254943202,3.590399026575774,3.0602444879458988,3.8441693991606325,4.836538740193452
-0.9774165571808905,0.23447879654103834,3.621001471455233,3.1086098753478333,3.6078339056587883,4.985218523772775
-0.9750717692154801,0.27055713559762623,3.6520875702087117,3.158462060585561,3.361128505206334,5.147425938661664
-0.9723661978595038,0.3041684206496896,3.6836721908145673,3.2099363199721775,3.103199632757776,5.323147635954864
-0.969324513653007,0.3352004169772673,3.7157715540142893,3.263167796331726,2.833203034627537,5.512460597622771
-0.9659725094832343,0.3635324473235427,3.7484032319776066,3.3182924023079536,2.5503033783648115,5.715542146851329
-0.9623371850099989,0.3890354811071908,3.781586156000686,3.375447823776467,2.2536736833652684,5.932681230046162
-0.958446830198927,0.4115722179408435,3.8153406342384506,3.4347746360769285,1.9424946702619732,6.164290995512595
-0.9543311080195185,0.4309971646434632,3.8496883805992197,3.4964175460320543,1.6159541767099976,6.41092261515588
-0.9500211363730838,0.4471567064105632,3.88465255605954,3.5605267721836134,1.2732468681900013,6.673280185254275
-0.9455495693089782,0.45988917509246324,3.9202578237813763,3.627259574036156,0.9135745980185137,6.95223638387263
-0.9409506775580535,0.46902492107264837,3.9565304195217377,3.6967819378748823,0.5361479599347182,7.248848331704937
-0.936260428347327,0.47438640067199556,3.9934982389004867,3.7692704211919317,0.14018985709374482,7.5643727648048555
-0.931516564340607,0.475788299242933,4.031190943112406,3.84491414883998,-0.2750576768796673,7.900279130058247
-0.9267586813481777,0.4730377224741363,4.069640084600806,3.9239169401405625,-0.7103215678762399,8.258258481411076
-0.9220283041234364,0.4659345067953739,4.108879254002212,4.006499524954673,-1.1662779907486351,8.64022497532241
-0.9173689590554827,0.45427172688788753,4.148944249251759,4.092901774707897,-1.6435208772827399,9.048305174520236
-0.9128262417866038,0.43783651811506014,4.189873266998838,4.1833848264531,-2.142512823525015,9.484808032294913
-0.9084478766054531,0.41641138987980997,4.231707115263369,4.278232906776049,-2.6635099220445944,9.952165002103031
-0.904283762706655,0.38977629065936403,4.274489444331129,4.377754556797079,-3.206448223888532,10.45282471015094
-0.9003859998000614,0.3577118084204787,4.3182669898991,4.482282803898588,-3.770774070354884,10.989079359884943
-0.8968088817158566,0.3200040677169299,4.363089817938086,4.592173597497438,-4.355192795561156,11.562789589002728
-0.8936088410386873,0.2764521397613183,4.40901155391306,4.707801493387465,-4.957299512860032,12.174959710615123
-0.8908443196410741,0.22687914463271802,4.456089568846934,4.8295510904936165,-5.5730410434381135,12.825094841857753
-0.8885755281947469,0.17114873419833687,4.504385079751871,4.957802038912194,-6.195938982365277,13.510244309990535
-0.8868640408527636,0.1091893443746841,4.553963100140993,5.092904482012099,-6.815980967173681,14.22360217023079
-0.8857721474090168,0.041029534702947276,4.604892144961114,5.235140503714407,-7.418063843458591,14.952499579853972
-0.8853618520619873,-0.03315110373163864,4.657243549998258,5.3846654995129475,-7.979858616123919,15.675597687280725
-0.8856933630993037,-0.11294968989287783,4.711090204993387,5.5414214763857546,-8.468986332923901,16.359104213201764
-0.8868228599982325,-0.19763955322211685,4.766504419757244,5.705012518517772,-8.839494802144067,16.95195652364455
-0.8887992555304537,-0.2860345012435575,4.823554544942422,5.874532083754217,-9.027896645662148,17.380258326261885
-0.8916596005428893,-0.376313467700179,4.882299865779965,6.048334667016836,-8.94960631459287,17.542014112313506
-0.8954227352198911,-0.46580953084610766,4.942783212450133,6.223754808139971,-8.497649749457208,17.30459000872837
-0.9000808305283522,-0.5507860283406798,5.005020760531533,6.396800708227255,-7.547029785477385,16.509377794670513
-0.905588690811759,-0.6262563261954537,5.0689887676138055,6.56189448617396,-5.969599747262857,14.990177276331123
-0.9118512540737135,-0.6859523236680822,5.134607712475545,6.711796258937271,-3.6640773519640026,12.611622608535516
-0.9187107773103943,-0.7225930971877222,5.2017256750649175,6.837912485022627,-0.6009602612762491,9.327541477582955
-0.9259367082822715,-0.7286026998004848,5.270104799915144,6.931187899798457,3.1296481697644674,5.243399447296699
-0.9332227352802763,-0.6973062181028401,5.339416678913128,6.983621894271423,7.293814993425565,0.6475138064520796
-0.9401957974613048,-0.6243680681685845,5.4092528978558425,6.990097032335944,11.542186519575926,-4.027453104523066
-0.9464394781429906,-0.5089462029728252,5.479153868179202,6.949822501290713,15.495482290292008,-8.317827894436379
-0.9515289401727188,-0.35399138006990516,5.548652093192109,6.866644222346349,18.850045170549173,-11.86660537696766
-0.9550688539734179,-0.16549092836441343,5.617318535415572,6.747978168576672,21.447284725515978,-14.510565156976575
-0.956723763257062,0.04898191889074635,5.684798317101339,6.602872517006906,23.277575856208955,-16.2794166722153
-0.9562339440681545,0.28175767745283586,5.750827042271408,6.440078350284753,24.43442950922067,-17.330523414971022
-0.9534163672936262,0.5261019725450425,5.815227825774255,6.266773116135043,25.05600068413517,-17.869774325055047
-0.9481553475681758,0.7766619793863943,5.877895556935606,6.088075372884492,25.280885333328587,-18.09391592480106
-0.9403887277743118,1.0294708327196802,5.93877631066445,5.907136213636481,25.225371456887824,-18.162507212470885
-0.930094019447115,1.2817245472885586,5.997847672800815,5.725511141511772,24.977151233605905,-18.191714767773277
-0.9172767739742295,1.5314960596246177,6.055102784215933,5.5435939938340395,24.59787174003127,-18.259268485384606
-0.9019618133779833,1.7774747770249304,6.1105387241542735,5.361001308980193,24.12888577713768,-18.413004835901948
-0.884187065607734,2.0187636347963074,6.1641487372440755,5.176871260621174,23.597199625438847,-18.679150817813294
-0.8639994292597709,2.254735631050696,6.215917449850287,4.990079752443041,23.020435988843882,-19.068975184692988
-0.8414520729492639,2.4849399909391345,6.2658182473747175,4.799390000596111,22.41057137857805,-19.58365952117685
-0.8166026730398726,2.709045704724915,6.313812147380679,4.603553405384343,21.77658550118008,-20.21769944671292
-0.7895122159926234,2.926811559736716,6.359847681434522,4.401376410917214,21.126258069081643,-20.961234216360754
-0.7602441003952563,3.1380741404275323,6.403861445543694,4.191764068753606,20.467333098781648,-21.80164928569594
-0.728863358990981,3.3427474714153487,6.44577908623123,3.973747575896647,19.808222700900124,-22.72470700975782
-0.6954358842768275,3.54082969842435,6.485516561990196,3.746500505799069,19.158373880521935,-23.715376054792028
-0.6600275872925839,3.732413437229569,6.522981567048187,3.5093467452511486,18.528382533853524,-24.7584611589299
-0.6227034529202883,3.9176972625681046,6.558075034500698,3.2617621336618496,17.92990886494713,-25.839080899477846
-0.5835264802946072,4.096996351217576,6.590692655837317,3.003371324667071,17.375424731011577,-26.942997746225934
-0.5425565167824314,4.270750598527692,6.620726369083988,2.7339413472048117,16.877801826305404,-28.056766656257
-0.4998490107971545,4.439528616790746,6.648065782556036,2.4533736806422417,16.449725652074722,-29.167630243233667
-0.45545372462924705,4.604025873311493,6.672599519362458,2.161697378209905,16.102889033877407,-30.26304399778404
-0.4094134658961321,4.765054763650268,6.694216493144557,1.8590669382320644,15.846875106945726,-31.32965703238883
-0.3617629182596294,4.923523514719725,6.712807162526878,1.545770367908176,15.687577316830456,-32.3514944619434
-0.3125276831124322,5.08039928788803,6.72826486620596,1.222255423288742,15.624918091283574,-33.30698014959031
-0.26172369023355185,5.236648468800865,6.740487420438847,0.8891856217928389,15.649518940667607,-34.16430458236145
-0.2093572055455432,5.393143658207541,6.749379276656776,0.5475425759692243,15.737861179818324,-34.87450958457036
-0.1554257689634678,5.550522270005724,6.754854702416468,0.19879748012352066,15.845423209095232,-35.361624304714574
-0.09992054626341054,5.708976502096677,6.756842677217703,-0.15481876292362506,15.897457971038985,-35.509491440086066
-0.04283078124244377,5.867951081807067,6.755294489588467,-0.5099136773244857,15.777858758569486,-35.146106001102396
0.015848729575626892,6.025729669392762,6.750195352815222,-0.8613747373355096,15.318638814561034,-34.02932180129288
0.07610602626955451,6.178916057538372,6.741581605441867,-1.2016679553484384,14.296811215874664,-31.843905610584443
0.13789518684493823,6.321884169697119,6.729564925888383,-1.5201070114542827,12.452042372406245,-28.22927025805756
0.20111402854190943,6.446404593421182,6.71436385577384,-1.8023997140348582,9.543897045374104,-22.864735484861875
0.26557807447612125,6.541843563874923,6.6963398586334915,-2.0310470688834767,5.4604287953459805,-15.628521747016057
0.33099651011487047,6.5964478518283824,6.676029387944657,-2.1873322863536373,0.3534093410921939,-6.793809734189129
0.3969609886331543,6.599981945239304,6.6541560650811205,-2.2552703836955286,-5.286428495099769,2.8639447383036836
0.46296080808554735,6.547117660288307,6.631603361244165,-2.2266309363124916,-10.72302840326943,12.206048115700606
0.5284319846884304,6.439887376255612,6.609337051881041,-2.1045704551554856,-15.24266634352322,20.123867713413812
0.5928308584509866,6.28746071282038,6.588291347329486,-1.9033317780213475,-18.42883586584664,25.945492107049667
0.6557054655791904,6.103172354161914,6.569258029549273,-1.6438768569508508,-20.25282131221111,29.57647186583303
0.7167371891208095,5.900644141039803,6.552819260979764,-1.3481121382925205,-20.96289293277204,31.34537491589304
0.7757436305312075,5.691015211712083,6.539338139596839,-1.03465838913359,-20.90595713037045,31.74518337361251
0.8326537826483283,5.481955640408378,6.528991555705503,-0.7172065553974649,-20.399326359514042,31.242474911373062
0.8874733390524121,5.277962376813238,6.521819490151529,-0.4047818062837343,-19.67928817852247,30.19654946999771
0.9402529628205445,5.081169495028013,6.517771672088692,-0.1028163115837572,-18.89994429587055,28.85255450984305
0.9910646577708246,4.892170052069308,6.516743508972854,0.18570923351467328,-18.151605812301725,27.36483504731446
1.0399863582915176,4.710653993946291,6.518600601308001,0.4593575839878179,-17.481255619996197,25.82486100872181
1.0870928982309807,4.535841437746329,6.523194177147879,0.717606194075036,-16.90875215014639,24.283992129517205
1.132451312608444,4.366753916244866,6.530370239088629,0.9604461153702081,-16.43796386554542,22.76942656334717
1.1761188517708925,4.202374277589412,6.539974700242332,1.18814038100368,-16.063864533360594,21.29451789079453
1.2181425945467865,4.041735632255806,6.551856104052368,1.4010855599116252,-15.776855778744304,19.865127216892112
1.2585599508693446,3.883967074468363,6.565866959651484,1.5997368320805463,-15.565323641395569,18.483390169753328
1.2973996216140282,3.7283138380544076,6.58186432797229,1.7845707337780796,-15.4171172138267,17.149867822980415
1.3346827599945723,3.5741426659161406,6.59971003531007,1.9560694120078839,-15.320386208459036,15.864713057673034
1.3704241866537337,3.4209388038315502,6.619270729430149,2.114716542584614,-15.264043391718182,14.628248744246276
1.404633574692049,3.2682983699143686,6.640417894855996,2.260999030027077,-15.238009449409866,13.441201929580167
1.4373165583911929,3.11591827542027,6.663027885156266,2.3954110493228784,-15.233331774919668,12.304743214233058
1.4684757411453955,2.963584957671073,6.686981995649495,2.518458481465209,-15.242229406482263,11.220422189670627
1.4981115907221063,2.8111626636062503,6.712166580464147,2.630662703361915,-15.258093485415278,10.190054171696683
1.526223217358169,2.6585817287520976,6.738473207497766,2.732563245078882,-15.275459593321216,9.215591595429787
1.55280903464569,2.5058271328188857,6.7657988399485545,2.8247191610331797,-15.289961120820001,8.298999856011056
1.5778673059738788,2.3529275216106855,6.794046031558886,2.9077091595932902,-15.298268984004233,7.4421487981276275
1.6013965811899857,2.1999448317706434,6.823123123154819,2.9821306475745666,-15.298021071317399,6.646725522357617
1.6233960295076921,2.0469646210574695,6.852944429630564,3.048597902798143,-15.287743895236442,5.914170532129092
1.6438656757182668,1.894087182105105,6.883430408658545,3.107739608119434,-15.266768517705113,5.245636806229731
1.662806547539318,1.7414194969280539,6.914507804739739,3.1601959761817313,-15.235142608761397,4.641969734087082
1.6802207425085984,1.5890680708404399,6.946109764501556,3.2066156735226023,-15.193540307971118,4.103704733423528
1.696111423217003,1.4371326677607288,6.978175921236782,3.2476527208568378,-15.143171290504036,3.6310786049040824
1.7104827498946102,1.2857009548556884,7.0106524484453505,3.2839635069058786,-15.08569004202413,3.224050131452261
1.7233397594431672,1.134844054435447,7.043492083514409,3.316204008220401,-15.023105791047051,2.882324985732944
1.7346881999875217,0.9846129965249765,7.076654123596613,3.3450272580777307,-14.95769281523357,2.6053795582730856
1.7445343299527714,0.8350360683726408,7.110104396177391,3.3710810536604616,-14.891899909307423,2.3924777490601805
1.7528846906364977,0.6861170692795665,7.143815206713995,3.3950058311510634,-14.828256649207553,2.2426739594556167
