th1 (rad),w1 (rad/s),th2 (rad),w2 (rad/s),a1 (rad/s^2),a2 (rad/s^2)
3.814365423619166,-1.5698688319324379,5.231464018135742,0.1437946607006109,5.719256615220783,5.198112296953995
3.798666735299842,-1.51267626578023,5.232901964742748,0.19577578367015083,5.632624707375778,5.468433572878831
3.7835399726420396,-1.4563500187064722,5.23485972257945,0.25046011939893914,5.557806636451138,5.724286449649068
3.768976472454975,-1.4007719523419608,5.2373643237734395,0.3077029838954298,5.494990051105351,5.966663308942438
3.7549687529315556,-1.3458220518309074,5.240441353612394,0.3673696169848542,5.444387942342296,6.196522242725467
3.7415105324132467,-1.2913781724074844,5.244115049782243,0.42933483941210887,5.406233452915768,6.414788492117885
3.7285967506891717,-1.2373158378783267,5.248408398176364,0.4934827243332877,5.380775474875498,6.622355342750326
3.7162235923103886,-1.1835080831295717,5.253343225419697,0.559706277760791,5.368274897373077,6.8200844950729165
3.7043885114790926,-1.1298253341558409,5.258940288197305,0.6279071227115202,5.369001373520822,7.008805914224787
3.693090258137534,-1.0761353204206325,5.26521935942442,0.6979951818537681,5.383230480135415,7.189317152102813
3.682328904933328,-1.0223030156192783,5.272199311242958,0.7698883533747962,5.411241147669671,7.362382123929564
3.672105874777135,-0.9681906041425816,5.279898194776706,0.8435121746140919,5.453313239637935,7.528729312678227
3.662423968735709,-0.9136574717462023,5.288333316522847,0.9187994677408742,5.509725161499706,7.68904936696444
3.653287394018247,-0.8585602201312053,5.2975213112002555,0.9956899614105186,5.580751378440688,7.843992051317416
3.644701791816935,-0.8027527063467984,5.30747821081436,1.0741298819236929,5.66665971997947,7.9941625020290035
3.6366742647534673,-0.7460861091470037,5.318219509633598,1.1540715069439829,5.767708347080923,8.140116737077573
3.629213403661997,-0.6884090256761944,5.329760224703038,1.2354726743147586,5.884142254788361,8.282356365074774
3.6223293134052352,-0.6295676031283108,5.342114951446185,1.3182962379655063,6.016189180692606,8.421322436056183
3.616033637373952,-0.5694057113213847,5.35529791382584,1.402509462326068,6.164054787335683,8.55738837664764
3.6103395802607383,-0.5077651634480279,5.369323008449101,1.4880833460925444,6.327916985523906,8.690851954265051
3.605261928626258,-0.44448599359278884,5.384203841910026,1.5749918656351949,6.507919266272796,8.821926220302238
3.6008170686903305,-0.37940680093006085,5.399953760566379,1.6632111278382173,6.7041629126713005,8.950729391672947
3.59702300068103,-0.31236517180334783,5.416585871844761,1.7527184217549467,6.9166979704784275,9.077273644736767
3.5938993489629967,-0.24319819209856355,5.43411305606231,1.8434911582023144,7.145512869107182,9.201452816879566
3.591467367042011,-0.17174306340749174,5.452547967644334,1.93550568637111,7.390522604382087,9.323029040326942
3.5897499364079364,-0.09783783736367087,5.471903024508045,2.0287359767743793,7.651555422856591,9.441618371752607
3.5887715580342996,-0.021322283135104952,5.492190384275789,2.1231521604919052,7.928337986490513,9.55667553155002
3.5885583352029484,0.05796109672980018,5.513421905880708,2.2187189158074054,8.22047904814932,9.667477929827914
3.5891379461702466,0.1401658872112934,5.535609095038782,2.3153936951056844,8.52745173469235,9.773109233568624
3.5905396050423595,0.2254404045582169,5.558763031989839,2.4131247874413706,8.848574617130124,9.872442821742325
3.5927940090879416,0.3139261507295181,5.582894279864253,2.5118492156587937,9.182991847714076,9.964125582458086
3.595933270595237,0.4057560692066589,5.6080127720208415,2.6114904714833744,9.529652762275411,10.04656262717532
3.5999908312873035,0.501052596829413,5.634127676735675,2.711956097755128,9.887291481736886,10.117903628600718
3.6050013572555977,0.5999255116467819,5.661247237713226,2.813135134041135,10.254407196709316,10.176031625909351
3.6110006123720657,0.702469583613875,5.6893785890536375,2.9148954503002287,10.629245978221984,10.218555275307656
3.6180253082082046,0.8087620433960949,5.71852754355664,3.0170810030533053,11.00978511762428,10.24280564436886
3.6261129286421654,0.9188598945723377,5.748698353587173,3.119509059496994,11.393721147633917,10.24583874008181
3.6353015275878886,1.032797106048677,5.779893444182143,3.221967446897812,11.778462818564549,10.22444500462179
3.6456294986483755,1.1505817342343223,5.812113118651121,3.3242118969440297,12.161130379218749,10.175166987829254
3.6571353159907187,1.2721930380265098,5.845355237620561,3.4259635668223223,12.538562517776656,10.094326287718875
3.669857246370984,1.3975786632042764,5.8796148732887845,3.526906829699511,12.907332229348654,9.9780606166819
3.683833033003027,1.526651985497763,5.91488394158578,3.62668743586633,13.26377266926363,9.822371481367222
3.6990995528580046,1.6592897121903993,5.951150815944443,3.7249111506800023,13.60401370410106,9.623182446020655
3.7156924499799087,1.79532984923141,5.988399927451243,3.821142975140209,13.924029373754541,9.376407282362905
3.733645748472223,1.9345701429689555,6.026611357202645,3.914907047963838,14.2196958287505,9.078026511882834
3.7529914499019124,2.0767671012564604,6.065760427682283,4.0056873130826665,14.486858527739175,8.72416995962246
3.7737591209144767,2.221635686533852,6.1058173008131105,4.092929012678891,14.721406613884852,8.311202029359137
3.795975477779815,2.3688497526727006,6.146746590939899,4.176041032972482,14.919351504885764,7.835805572555559
3.819663975306542,2.5180432677215583,6.188507001269624,4.254399088698038,15.076905923467946,7.295059574516989
3.8448444079837576,2.6688123269562376,6.231050992156605,4.327349684443208,15.190558976817655,6.6865055516944185
3.8715325312533198,2.8207179167244143,6.274324489001037,4.394214739960152,15.25714258693355,6.008197674038931
3.899739710420564,2.9732893425937497,6.318266636400638,4.454296716700541,15.2738846953684,5.258732305702533
3.9294726038465013,3.1260281895474336,6.362809603567643,4.5068840397575665,15.238445306353634,4.4372539643240385
3.9607328857419755,3.27841264261097,6.407878443965219,4.551256579400807,15.148932638511363,3.543436639182017
3.993517012168085,3.429901968996084,6.453391009759227,4.586690945792627,15.003898412880245,2.5774419088775433
4.027816031858046,3.5799409531248862,6.499257919217153,4.612465364881403,14.802313528254187,1.5398582019723295
4.063615441389294,3.727964088407428,6.545382572865967,4.627863946901126,14.543527906205696,0.43162861033263433
4.100895082273369,3.873399367469485,6.591661212334978,4.632180233004452,14.2272209072602,-0.746022409288062
4.139629075948064,4.015671576542087,6.637983014665023,4.624720008911572,13.853351161617658,-1.991650669924531
4.179785791713485,4.154205088158264,6.684230214754139,4.604803502212326,13.422116636586425,-3.303627854342991
4.221327842595067,4.288426254524128,6.730278249776262,4.571767223668896,12.933936994944634,-4.680136304501577
4.264212105140309,4.417765624473574,6.775995922012951,4.5249658606238805,12.389470521723577,-6.119109324696589
4.308389761385044,4.54166032969081,6.82124558061919,4.463774767376915,11.78967688319733,-7.618106195049317
4.353806364681952,4.659557098522783,6.865883328292959,4.387593705426422,11.135934544255843,-9.174115945803901
4.40040193566718,4.7709164439653415,6.9097592653472235,4.295852545968383,10.430217672599397,-10.783290904351016
4.448111100106833,4.875218620691336,6.952717790806908,4.1880196369248734,9.675331736731748,-12.440620091798694
4.496863286313746,4.971971938058654,6.9945979871761566,4.063613436006887,8.875199815041887,-14.139563494097759
4.546583005694333,5.060723936209072,7.0352341215362255,3.922217801065909,8.035183128653653,-15.871680501248644
4.5971902450564235,5.141075767495609,7.074456299546885,3.7635009960534225,7.1624100501180425,-17.626298338637287
4.64860100273138,5.21269986799679,7.112091309507419,3.58723801266705,6.2660788028625936,-19.39027741878843
4.700728001411347,5.275360656025415,7.14796368963409,3.3933352384791653,5.3576917279640695,-21.147937862277335
4.753481607971602,5.328937573305056,7.181897042018882,3.181855859856392,4.451175292794883,-22.881212105463135
4.806770983704652,5.373449326233004,7.213715600617446,2.9530437388017607,3.5628421288613827,-24.570079609585573
4.860505476966982,5.409077747521618,7.243246038005464,2.707342942705905,2.711161270701299,-26.193319036757032
4.914596254442198,5.436189360228631,7.270319467432523,2.4454097523383345,1.916321475504132,-27.729580493737515
4.968958148044485,5.455352574983672,7.294773564955906,2.1681139474009594,1.1995994146125468,-29.158738045203545
5.023511673794322,5.467348569129797,7.3164547044299155,1.876526566948924,0.5825767801689015,-30.463436586413785
5.07818515948562,5.473174336931486,7.335219970099405,1.5718922010847862,0.0862828062858768,-31.630706335547973
5.132916902854935,5.4740371649943445,7.3509388921102525,1.2555851377293066,-0.26963525509928266,-32.6534930870523
5.187657274504878,5.471340812443351,7.3634947434875455,0.9290502068587836,-0.4675980151438498,-33.531952063863955
5.2423706826293115,5.4666648322919125,7.372785245556133,0.593730686220144,-0.492524503236792,-34.274382387170945
5.2970373309522305,5.461739587259545,7.378722552418335,0.25098686234843454,-0.3319171389462866,-34.897735819114104
5.351654726824826,5.458420415870082,7.381232421041819,-0.09799049584270653,0.024454706316431794,-35.42770853252124
5.406238930983527,5.458664962933246,7.380252516083392,-0.4522675811679189,0.5852891509591074,-35.8985044224534
5.460825580612859,5.464517854442837,7.375729840271712,-0.8112526253924528,1.3588864897725597,-36.35242822098699
5.515470759157287,5.478106719340563,7.367617314017788,-1.1747769076023227,2.354645106710387,-36.83951495311638
5.570251826350693,5.501653170407667,7.355869544941765,-1.5431720571334866,3.58487544078976,-37.41742318564637
5.625268358054769,5.537501924815564,7.34043782437043,-1.9173462889899504,5.066899544930852,-38.15181175574789
5.680643377302925,5.588170920264873,7.321264361480531,-2.2988644065474295,6.825418731347115,-39.117380963166134
5.736525086505574,5.656425107578344,7.2982757174150565,-2.690038216179091,8.895127207470562,-40.39967438493486
5.793089337581357,5.74537637965305,7.271375335253266,-3.0940349600284396,11.323475400547208,-42.09755436072969
5.8505431013778875,5.858611133658521,7.240434985652982,-3.5150105036357364,14.17323253095172,-44.325842088613264
5.909129212714473,6.000343458968039,7.205284880616625,-3.958268924521869,17.523810274354503,-47.21660505215511
5.9691326473041535,6.175581561711584,7.165702191371406,-4.43043497504342,21.46859382434145,-50.915151197707736
6.030888462921269,6.390267499954999,7.121397841620972,-4.939586487020498,26.101396005438414,-55.56100817287284
6.0947911379208195,6.651281460009383,7.072001976750767,-5.495196568749226,31.475468228597737,-61.23063296242622
6.161303952520913,6.96603614229536,7.017050011063274,-6.107502898373489,37.49683837518533,-67.78829815695582
6.230964313943867,7.341004526047214,6.955974982079539,-6.785385879943047,43.67059813347884,-74.53120596352514
6.304374359204338,7.777710507382002,6.888121123280109,-7.530697939578299,48.56036848374495,-79.43313559679983
6.3821514642781585,8.263314192219452,6.812814143884326,-8.325029295546297,48.88001149117356,-77.87387801389175
6.464784606200353,8.752114307131189,6.729563850928863,-9.103768075685215,38.91458656877492,-61.83490225333762
6.552305749271665,9.141260172818939,6.638526170172011,-9.722117098218591,13.39477804373555,-23.950420691266867
6.643718350999854,9.275207953256293,6.541304999189825,-9.96162130513126,-23.078874877479038,29.251546161233428
6.736470430532417,9.044419204481503,6.441688786138513,-9.669105843518926,-52.5688450304597,72.52035206787389
6.826914622577232,8.518730754176906,6.344997727703324,-8.943902322840188,-62.95779424394836,88.81610989192488
6.912101930119001,7.8891528117374214,6.255558704474922,-8.05574122392094,-59.339144866391024,85.26307794400765
6.9909934582363755,7.295761363073511,6.175001292235712,-7.203110444480863,-50.84740142002418,74.66770978561894
7.063951071867111,6.78728734887327,6.102970187790904,-6.456433346624674,-42.22543959633252,63.70357236685176
7.131823945355843,6.365032952909945,6.038405854324657,-5.819397622956156,-34.88787289491259,54.38858386867276
7.195474274884942,6.016154223960819,5.980211878095096,-5.275511784269429,-28.965311151747564,46.937045717778844
7.25563581712455,5.726501112443343,5.927456760252402,-4.80614132709164,-24.24202191115146,41.06947705688593
7.312900828248983,5.484080893331829,5.879395346981485,-4.395446556522781,-20.46298018288364,36.44319290545844
7.367741637182301,5.279451091502992,5.8354408814162575,-4.031014627468197,-17.413158131287894,32.764865323492785
7.420536148097331,5.105319510190113,5.7951307351415755,-3.7033659742332694,-14.927539117783654,29.805962095599256
7.471589343199232,4.956044119012277,5.758097075399243,-3.4053063532772767,-12.88349556524144,27.39317202396229
7.5211497843893556,4.827209163359862,5.72404401186647,-3.131374633037654,-11.190797825475036,25.39524733847997
7.569421876022954,4.715301185105112,5.692730265536093,-2.877422159652854,-9.783129749368797,23.711791933286094
7.616574887874005,4.617469887611424,5.663956043939564,-2.6403042403199932,-8.611640339231364,22.264830620276797
7.662749586750119,4.53135348421911,5.6375530015363635,-2.4176559341172252,-7.640206527069344,20.99277879544767
7.7080631215923106,4.454951418948417,5.613376442195191,-2.2077281461627485,-6.84196260465198,19.846244366041805
7.752612635781794,4.386531792901897,5.591299160733564,-2.0092657025023306,-6.196722417137668,18.785172589212806
7.796477953710814,4.32456456873052,5.57120650370854,-1.8214139766102027,-5.689019739935308,17.776962256077596
7.839723599398119,4.267674371331167,5.552992363942438,-1.6436443540494268,-5.3065784139988885,16.795278734398774
7.8824003431114305,4.2146085871911785,5.536555920401943,-1.475691566705439,-5.03909036844823,15.81935695085465
7.9245464289833425,4.164217683506696,5.521799004734889,-1.3174979971968925,-4.877229039882476,14.833630694326501
7.9661886058184095,4.115445393107872,5.50862402476292,-1.1691616902536275,-4.811861242738068,13.82755175756752
8.007343059749488,4.067326780680491,5.496932407860384,-1.0308861726779524,-4.833444559300086,12.795481169692085
8.048016327556292,4.01899233508749,5.486623546133604,-0.9029313609810314,-4.9316110823504635,11.736551576949012
8.088206250907167,3.9696762242639854,5.477594232523794,-0.7855658452115413,-5.094942717972034,10.654419384167824
8.127903013149806,3.918726797084265,5.469738574071679,-0.679021651369863,-5.3109393602359996,9.556850025663588
8.167090281120648,3.865617403481905,5.46294835755798,-0.5834531511132272,-5.566170949045181,8.45510964638298
8.205746455155468,3.809955693991453,5.4571138260468475,-0.49890205464939735,-5.846590454185519,7.3631691312998315
8.243846012095384,3.751489789449598,5.452124805500353,-0.425270363336399,-6.1379705101983495,6.29675772378787
8.28136090998988,3.6901100843476144,5.447872101866989,-0.3623027860985203,-6.426415042212206,5.272328773418598
8.318262010833356,3.6258459339254925,5.444249074006004,-0.3095794983643343,-6.698891307488733,4.306015559242462
8.354520470172611,3.558857020850605,5.441153279022361,-0.2665193427719097,-6.943728567639359,3.412658576487741
8.390109040381118,3.4894197351742116,5.438488085594641,-0.23239275700703227,-7.151036855405934,2.604977392922455
8.42500323773286,3.4179093666201523,5.436164158024571,-0.2063429830778077,-7.3130115024006495,1.8929425269799052
8.459182331399061,3.3447792515961456,5.434100728193793,-0.18741355780800867,-7.424104005695166,1.2833794951249398
8.492630123915022,3.270538211539194,5.432226592615713,-0.17457976285675927,-7.481055054008067,0.7798123452705021
8.525335506030414,3.1957276609991134,5.430480794987146,-0.16678163940405424,-7.482799096089052,0.38253129308815653
8.557292782640404,3.1208996700382228,5.428812978593105,-0.16295632647317268,-7.430260349024612,0.088851138131997
8.588501779340787,3.0465970665479767,5.427183415328373,-0.16206781509185272,-7.32606695354135,-0.10648463884203453
8.618967750006266,2.973336397012563,5.425562737177454,-0.16313266148027306,-7.174213039812342,-0.21080453673157032
8.648701113976392,2.9015942666144396,5.423931410562652,-0.16524070684758876,-6.979698171564689,-0.23296440735819088
8.677717056642535,2.831797284898793,5.422279003494176,-0.16757035092117067,-6.748170668615758,-0.1828023664325401
8.706035029491524,2.7643155782126354,5.420603299984965,-0.1693983745854961,-6.485596485081097,-0.07062976180449645
8.73367818527365,2.6994596133618245,5.41890931623911,-0.17010467220354106,-6.197969482952457,0.09321525201982066
8.76067278140727,2.6374799185323,5.417208269517074,-0.16917251968334285,-5.891072864509822,0.2987352481383674
8.787047580592592,2.578569189887202,5.415516544320241,-0.16618516720195917,-5.570295855873627,0.5365553402223114
8.812833272491464,2.5228662313284658,5.413854692648221,-0.16081961379973606,-5.240504934355404,0.7981203277227863
8.838061934804749,2.470461181984912,5.412246496510224,-0.15283841052250818,-4.905965234487359,1.0758141327746586
8.862766546624599,2.4214015296400384,5.410718112404998,-0.1420802691947616,-4.570305334843423,1.3630123318781584
8.886980561921,2.3756984762916042,5.40929730971305,-0.12845014587598003,-4.236517348279096,1.6540805339232576
8.910737546683915,2.3333333028088132,5.40801280825429,-0.11190934053674745,-3.906983932419832,1.9443317407006158
8.934070879712003,2.294263463484615,5.406893714848923,-0.09246602312974128,-3.5835242685841973,2.2299550545091313
8.95701351434685,2.258428220798773,5.405969054617626,-0.07016647258464997,-3.2674519777934856,2.5079265809116436
8.979597796554836,2.225753701020838,5.40526738989178,-0.04508720677553354,-2.959639126423547,2.7759114760953874
9.001855333565045,2.1961573097566025,5.404816517824024,-0.017328092014579664,-2.660581738368296,3.0321640943618724
9.023816906662612,2.1695514923729196,5.404643236903878,0.012993548929039062,-2.370463442694414,3.2754313041179786
9.045512421586341,2.1458468579459753,5.404773172393169,0.04574786197021885,-2.0892149618092164,3.504862383804734
9.066970890165802,2.1249547083278832,5.405230651012871,0.08079648580826619,-1.8165680425490198,3.7199275412641435
9.088220437249081,2.106789027902393,5.406038615870953,0.11799576122090763,-1.5521031399828458,3.9203460322568153
9.109288327528105,2.0912679965025642,5.407218573483162,0.1571992215434758,-1.2952906908812816,4.106024066140977
9.130201007493131,2.0783150895937514,5.408790565698596,0.19825946220488555,-1.0455261827868183,4.277002141624424
9.150984158389068,2.0678598277658833,5.410773160320645,0.2410294836211298,-0.8021594629858004,4.433411108486416
9.171662756666727,2.059838233136025,5.413183455156856,0.285363594705994,-0.5645188677084018,4.5754360577055495
9.192261138998088,2.054193044458941,5.416037091103917,0.3311179552830495,-0.33193081165979205,4.7032870621745
9.212803069442677,2.0508737363423433,5.419348270656747,0.3781508259047945,-0.10373548388562731,4.817175789010258
9.2333118068061,2.049836381503487,5.423129778915795,0.42632258379489707,0.12070073387215963,4.917297055053467
9.253810170621135,2.0510433888422086,5.427393004753744,0.4754955543454317,0.34197556177163646,5.003814478625145
9.274320604509557,2.054463144459925,5.432147960297199,0.5255336991316831,0.5606433278949217,5.076849477749879
9.294865235954155,2.0600695777388744,5.437403297288515,0.5763021939091819,0.7772092513931557,5.136472967276029
9.315465931731545,2.067841670252806,5.443166319227607,0.6276669235819422,0.9921251350345156,5.182699207676731
9.336144348434074,2.0777629216031515,5.449442988463426,0.6794939156587095,1.2057861624344528,5.215481352579573
9.356921977650105,2.089820783227496,5.4562379276200135,0.7316487291845053,1.4185285530420344,5.234708327992842
9.37782018548238,2.1040060687579167,5.463554414911859,0.7839958124644337,1.6306278798833242,5.240202752871816
9.398860246169958,2.12031234755675,5.471394373036503,0.8363978399931519,1.8422979010889105,5.231719678084656
