th1 (rad),w1 (rad/s),th2 (rad),w2 (rad/s),a1 (rad/s^2),a2 (rad/s^2)
2.4724782044194997,-0.36638012376338314,4.53794214872607,-0.13146144374808522,-4.292044998610028,7.495517451587424
2.4688144031818657,-0.4093005737494834,4.536627534288589,-0.05650626923221097,-4.3328543874903875,7.435831967697872
2.4647213974443707,-0.4526291176243873,4.536062471596266,0.01785205044476776,-4.369371993768169,7.371431643622589
2.460195106268127,-0.49632283756206896,4.536240992100714,0.09156636688099365,-4.401932612234428,7.3021483126847775
2.455231877892506,-0.5403421636844132,4.5371566557695235,0.16458785000784143,-4.43091299570317,7.22783619491102
2.4498284562556623,-0.584651293641445,4.538802534269602,0.23686621195695162,-4.456732975556695,7.148367238253343
2.443981943319248,-0.629218623397012,4.541171196389172,0.30834988433948507,-4.479856595459975,7.0636256456828885
2.437689757085278,-0.6740171893516117,4.544254695232567,0.378986140796314,-4.500793298498404,6.973501615255741
2.4309495851917617,-0.7190251223365958,4.54804455664053,0.4487211569488714,-4.5200992137829346,6.877884327007943
2.4237593339683956,-0.7642261144744251,4.552531768210018,0.5175000002189508,-4.538378590846805,6.776654219291314
2.4161170728236514,-0.8096099003828932,4.557706768212208,0.5852665424118639,-4.556285428047484,6.669674608870778
2.4080209738198226,-0.855172754663368,4.5635594336363265,0.6519632885005717,-4.57452533352832,6.556782725237741
2.399469246273189,-0.9009180079986512,4.570079066521332,0.7175311157529491,-4.59385764256869,6.437780252265246
2.3904600661932025,-0.9468565844243381,4.5772543776788615,0.7819089182756016,-4.615097791375358,6.31242350245294
2.380991500348959,-0.9930075623380916,4.585073466861617,0.845033153300131,-4.639119911960411,6.18041339448478
2.371061424725578,-1.0393987614576958,4.593523798394618,0.9068372872449788,-4.666859562386685,6.0413854687541875
2.360667437111001,-1.0860673570815627,4.602592171267068,0.9672511419325207,-4.699316437105771,5.894900264435542
2.3498067635401854,-1.1330605214526204,4.6122646826863924,1.026200144576876,-4.73755680807288,5.740434503784748
2.3384761583256592,-1.1804360895333492,4.622526684132161,1.0836044896147234,-4.782715322337876,5.5773736946313495
2.326671797430326,-1.228263242756728,4.633362729028309,1.139378226561037,-4.835995618267795,5.405006982288627
2.314389165002759,-1.276623198939406,4.644756511293919,1.1934282963839233,-4.8986690119134595,5.222525370676094
2.301622933013365,-1.3256098890585406,4.6566907942577584,1.2456535500906842,-4.972070238460148,5.029024803290306
2.2883668341227796,-1.3753305914431422,4.669147329758665,1.2959437981235873,-5.057588903365418,4.823516060608587
2.274613528208348,-1.4259064804767965,4.682106767739901,1.344178958729673,-5.15665489917907,4.604943999995224
2.2603544634035804,-1.4774730294685872,4.695548557327198,1.3902283987296253,-5.270715579854179,4.372219335732173
2.2455797331088947,-1.5301801852671288,4.709450841314495,1.433950592086947,-5.401201970548386,4.124266910383014
2.2302779312562233,-1.5841922049726127,4.723790347235364,1.4751932611907772,-5.549480765627949,3.860095192824178
2.214436009206497,-1.6396870126288923,4.738542279847272,1.513794213119019,-5.716788403525668,3.5788924519634775
2.198039139080208,-1.696854896664149,4.753680221978462,1.5495831376386537,-5.904143227317286,3.2801555246515393
2.1810705901135665,-1.755896328937322,4.769176053354849,1.582384692885169,-6.1122318356988465,2.9638570481002957
2.163511626824193,-1.8170186472943104,4.784999900283701,1.612023263366172,-6.341266476372875,2.6306560626902447
2.1453414403512503,-1.8804313120580392,4.8011201329173625,1.6383298239930744,-6.590812099913226,2.2821544740625637
2.12653712723067,-1.9463394330571715,4.817503431157293,1.6611513687337,-6.859584918951999,1.92119733966288
2.107073732900098,-2.0149352822466913,4.834114944844631,1.6803633421303288,-7.145229461167815,1.5522076249421963
2.0869243800776314,-2.0863875768583693,4.850918578265934,1.6958854183797507,-7.444088505171722,1.1815354170301904
2.0660605043090476,-2.1608284619100866,4.867877432449731,1.7077007725500526,-7.750989947439375,0.8177875162157422
2.044452219689947,-2.2383383613844803,4.884954440175232,1.71587864771221,-8.059085911406783,0.4720867086591434
2.022068836076102,-2.318929220498548,4.902113226652354,1.7205995147988016,-8.359790601516378,0.1581931986438414
1.9988795438711167,-2.402527126513712,4.919319221800341,1.72218144678524,-8.642871548348309,-0.10759208679458926
1.9748542726059795,-2.4889558419971953,4.936541036268194,1.7211055259172943,-8.896749742887694,-0.30682511115996525
1.9499647141860075,-2.5779233394260723,4.953752091527367,1.7180372748056947,-9.109052860634549,-0.4196850273587908
1.9241854807917467,-2.669013868032418,4.970932464275424,1.7138404245321068,-9.26743835304629,-0.42613817703775847
1.8974953421114225,-2.761688251562881,4.988070868520745,1.7095790427617292,-9.360658797261866,-0.30746447575202734
1.8698784595957936,-2.8552948395354996,5.005166658948362,1.706504398004209,-9.379785217971504,-0.04802706561374239
1.8413255112004385,-2.9490926917152147,5.022231702928404,1.7060241273480716,-9.319446533814071,0.36292103595569436
1.8118345842832864,-3.0422871570533556,5.039291944201885,1.7096533377076286,-9.178901598513718,0.929665542943243
1.781411712712753,-3.1340761730384927,5.056388477578961,1.718949993137061,-8.962751939020498,1.6489854443203331
1.750070950982368,-3.223703692428698,5.073577977510332,1.7354398475802644,-8.681139364946102,2.5098770345630186
1.717833914058081,-3.310515086078159,5.090932375986134,1.7605386179258946,-8.349351612245943,3.4941784238023006
1.6847287631972994,-3.394008602200618,5.108537762165393,1.7954804021639177,-7.986864831224044,4.578069772930355
1.650788677175293,-3.473877250512859,5.126492566187032,1.8412610998932213,-7.615957254729106,5.734264630366253
1.6160499046701644,-3.55003682306015,5.144905177185964,1.8986037461968839,-7.260105756292705,6.934586448445451
1.580549536439563,-3.622637880623077,5.163891214647933,1.9679496106813383,-6.94240708436106,8.152572621378173
1.5443231576333323,-3.6920619514666875,5.183570710754746,2.04947533689512,-6.684244339849284,9.365775192605414
1.5074025381186653,-3.7589043948651804,5.204065464123698,2.143133088821174,-6.50435778054463,10.55751865049606
1.4698134941700136,-3.8239479726706267,5.225496795011909,2.248708275326135,-6.4183977273974,11.718001408774887
1.4315740144433073,-3.8881319499446008,5.24798387776517,2.365888289413884,-6.4389581973759915,12.844755321014699
1.3926926949438614,-3.952521531918361,5.271642760659309,2.494335842624031,-6.57602980270418,13.942580337844566
1.3531674796246778,-4.018281829945403,5.296586119085549,2.6337616460024766,-6.837777957651264,15.023135235741023
1.3129846613252236,-4.086659609521916,5.322923735545574,2.783992998359887,-7.231547826583065,16.104389393973236
1.2721180652300044,-4.158975087787747,5.350763665529173,2.945036892299619,-7.765015329103107,17.210133740374445
1.2305283143521268,-4.2366252410787775,5.380214034452169,3.1171382297033636,-8.447436072089392,18.3697248200633
1.188162061941339,-4.321099601799672,5.411385416749202,3.3008354779039966,-9.290983871364968,19.61820823780099
1.1449510659233424,-4.414009440513321,5.444393771528242,3.4970175602820066,-10.312212119332518,20.996947372146646
1.1008109715182093,-4.5171315617066465,5.479363947131062,3.706987034003473,-11.533711393411897,22.554876628400695
1.0556396559011427,-4.632468675640766,5.516433817471096,3.93253580028748,-12.986072945209134,24.35050621848941
1.0093149691447352,-4.762329405092857,5.5557591754739715,4.176040862472374,-14.710294864103,26.454819464024986
0.9616916750938066,-4.909432353733887,5.597519584098695,4.440589057112624,-16.760769704320825,28.95519816367656
0.9125973515564677,-5.077040050777096,5.641925474669821,4.73014103874939,-19.208923121775474,31.96041847505061
0.8618269510486968,-5.26912928199485,5.689226885057315,5.0497452234998965,-22.147309356319752,35.60640402837666
0.8091356582287483,-5.490602375558048,5.739724337292314,5.405809263783663,-25.69319218878059,40.061357858984294
0.7542296344731678,-5.747534297445854,5.79378242993015,5.806422842373506,-29.988533756452355,45.525981522351884
0.6967542914987093,-6.047419635010377,5.851846658353885,6.261682657597024,-35.18781239151595,52.216841776153466
0.6362800951486055,-6.399297758925536,5.914463484929856,6.783851075358559,-41.41108027256796,60.301403701227585
0.5722871175593501,-6.813408561651216,5.982301995683441,7.386865112370835,-48.60535597576589,69.70526474878089
0.504153031942838,-7.299462121408875,6.05617064680715,8.083917759858643,-56.18124588015153,79.60531794152573
0.4311584107287493,-7.861274580210391,6.1370098244057365,8.8799709392739,-62.168677335695804,87.24959081516818
0.35254566492664535,-8.48296135356735,6.225809533798476,9.752466847425582,-61.69245244230575,85.82233342099717
0.2677160513909719,-9.099885877990406,6.323334202272731,10.610690181635555,-46.05820488951769,63.15952147209317
0.17671719261106783,-9.560467926885583,6.429441104089086,11.242285396356486,-8.642017686503879,9.993624783816179
0.081112513342212,-9.646888103750621,6.541863958052652,11.342221644194648,38.5786474084303,-56.916969545706074
-0.015356367695294207,-9.261101629666317,6.655286174494598,10.773051948737587,67.778860847633,-98.72380682231643
-0.10796738399195738,-8.583313021189987,6.763016693981974,9.785813880514423,71.11032192781104,-104.55345075583716
-0.19380051420385724,-7.872209801911876,6.860874832787117,8.740279372956051,61.803806670510234,-92.86405573639802
-0.272522612222976,-7.254171735206774,6.948277626516678,7.811638815592071,50.396741030583115,-78.29026061141433
-0.34506432957504374,-6.750204324900943,7.026394014672598,7.028736209477927,40.45437567888046,-65.7656118262818
-0.4125663728240532,-6.345660568112138,7.0966813767673775,6.371080091215109,32.493332022870604,-56.00088514472898
-0.47602297850517455,-6.020727247883432,7.160392177679529,5.81107123976782,26.221281202871655,-48.59034780279696
-0.5362302509840089,-5.758514435854716,7.218502890077207,5.32516776173985,21.245554930675826,-42.9893507890517
-0.593815395342556,-5.546058886547957,7.271754567694605,4.895274253849333,17.239944248158395,-38.742279123952706
-0.6492759842080356,-5.373659444066373,7.320707310233098,4.507851462609806,13.962530863089102,-35.50534438790218
-0.7030125786486993,-5.234034135435482,7.365785824859197,4.152798018730785,11.240672357156592,-33.02446233467128
-0.7553529200030541,-5.121627411863916,7.407313805046504,3.822553395384072,8.953323080611286,-31.109688298598787
-0.8065691941216933,-5.032094181057802,7.445539339000345,3.511456512398084,7.017029077344715,-29.614919129351783
-0.8568901359322713,-4.961923890284355,7.480653904124326,3.215307321104566,5.375857245038546,-28.423319779508105
-0.9065093748351148,-4.90816531783397,7.512806977335371,2.931074123309485,3.994272195075729,-27.437319080216106
-0.9555910280134545,-4.868222595883213,7.542117718568466,2.656700932507324,2.8519452260575666,-26.57205652098758
-1.0042732539722867,-4.839703143622637,7.568684727893539,2.3909803672974483,1.939694920464765,-25.75149468308892
-1.052670285408513,-4.82030619441799,7.5925945315665135,2.133465420466559,1.2559844474614854,-24.90669247784221
-1.100873347352693,-4.807746349943375,7.6139291857711795,1.884398495688137,0.8036038283149491,-23.975886639522045
-1.1489508108521267,-4.799710311660225,7.632773170728061,1.6446396292929166,0.5863582268493884,-22.906049264876994
-1.196947913968729,-4.793846729391731,7.649219567020991,1.4155791366441466,0.6057748769442471,-21.65550038749051
-1.2448863812626463,-4.787788980622289,7.663375358387432,1.1990241327692415,0.8580218450678431,-20.197002759302187
-1.2927642710688692,-4.779208762171611,7.675365599715124,0.9970541051762196,1.3313708269576947,-18.520621560771655
-1.3405563586905853,-4.7658950539020335,7.6853361407668865,0.8118478895685031,2.0045917397726543,-16.635578058919133
-1.3882153092296057,-4.745849136504307,7.693454619662572,0.6454921089793118,2.8466059322111805,-14.570432166469434
-1.4356738005946488,-4.717383077182196,7.6999095407523654,0.49978778731461737,3.8175458783850904,-12.371214270853976
-1.4828476313664707,-4.679207618398345,7.7049074186255115,0.3760756446060776,4.871114467871713,-10.09754080707856
-1.5296397075504542,-4.630496473719628,7.708668175071573,0.27510023653529203,5.957882978548413,-7.817179510666424
-1.5759446722876504,-4.570917643934144,7.711419177436926,0.19692844142862778,7.028994355281903,-5.599850646660738
-1.6216538487269918,-4.500627700381325,7.7133884618512125,0.1409299349620204,8.039697713277901,-3.51116966951387
-1.6666601257308051,-4.4202307232485465,7.714797761200833,0.10581823826688169,8.952231071314817,-1.6075391669470152
-1.7108624329632907,-4.330708412535398,7.7158559435835015,0.08974284659741154,9.73774826013265,0.06745959492209287
-1.7541695170886447,-4.233330929934072,7.716753372049475,0.09041744254663246,10.377190115926313,1.4849478185766032
-1.7965028263879854,-4.129559028774809,7.717657546474942,0.10526692073239849,10.861175614753789,2.6309727888440206
-1.8377984166757335,-4.020947272627271,7.718710215682266,0.1315766486208387,11.189106105359624,3.5053588923727843
-1.8780078894020062,-3.9090562115736742,7.720025982168474,0.16663023754456655,11.367730724860824,4.119585662444736
-1.917098451517743,-3.795378904325066,7.72169228454392,0.2078260941690139,11.409424865241672,4.4941173688824225
-1.9550522405609936,-3.6812846556726493,7.7237705454856105,0.25276726785783815,11.330403249678913,4.655568371311427
-1.9918650871177201,-3.56798062317586,7.726298218164189,0.2993229515709524,11.149040612591062,4.634009683672231
-2.0275448933494786,-3.4564902170499496,7.729291447679898,0.3456630484076747,10.884418192508958,4.460627767804729
-2.0621097955199783,-3.34764603512486,7.732748078163975,0.390269326085722,10.555161516219993,4.165853512969326
-2.095586255871227,-3.24209441996266,7.736650771424832,0.43192786121541527,10.178589610052052,3.77799901281214
-2.1280072000708534,-3.1403085238621395,7.740970050036986,0.46970785134353665,9.77016085706398,3.322378413551636
-2.159410285309475,-3.0426069152914996,7.745667128550421,0.5029316354790531,9.343177315324265,2.820848760189837
-2.18983635446239,-2.949175142138257,7.750696444905212,0.5311401230809515,8.908696852559785,2.291686008135936
-2.2193281058837724,-2.860088173612659,7.756007846136021,0.5540569831623109,8.475599133101863,1.7497065440760196
-2.247928987619899,-2.7753321822816406,7.761548415967645,0.5715540486030711,8.05075483473273,1.2065509847051623
-2.2756823094427157,-2.694824633934313,7.767263956453675,0.5836195584501227,7.639254883386306,0.6710600294348537
-2.3026305557820588,-2.61843208510045,7.773100152038176,0.5903301587444713,7.244665703917137,0.1496878152257264
-2.3288148766330634,-2.545985428061279,7.779003453625621,0.5918270368967286,6.869285791708755,-0.3530862705446177
-2.354274730913676,-2.4772925701441912,7.7849217239945885,0.5882961741912823,6.514387229367083,-0.8343727389449398
-2.3790476566151177,-2.41214869785052,7.790804685736501,0.5799524468018329,6.180432566253194,-1.2925285809740792
-2.403169143593623,-2.350344372187988,7.796604210204519,0.567027160992092,5.867262612367415,-1.7268616097970477
-2.426672587315503,-2.291671746064314,7.80227448181444,0.5497585448941216,5.574254294573894,-2.137383286325147
-2.449589304776146,-2.235929203118575,7.807772067263381,0.5283847120308701,5.300450035232989,-2.524607224414736
-2.471948596807332,-2.182924702766245,7.813055914383689,0.5031386397867228,5.044661433996967,-2.889388622589799
-2.4937778438349945,-2.1324780884262755,7.818087300781556,0.4742447535608248,4.805550640562,-3.2327990350771536
-2.5151026247192574,-2.0844225820206557,7.822829748317164,0.44191676321005324,4.58169293432643,-3.5560307944043177
-2.535946850539464,-2.0386056526773912,7.827248915949265,0.40635645526601005,4.37162385915582,-3.8603257388991374
-2.5563329070662375,-1.994889414085833,7.831312480501925,0.36775319787701866,4.173873931235056,-4.146923471972722
-2.576281801207096,-1.9531506747734826,7.834990012480695,0.3262839631572914,3.9869935367740816,-4.417025045305264
-2.5958133079548307,-1.9132807394057418,7.838252852112268,0.2821137127042388,3.809570222851154,-4.671768626612022
-2.614946115348888,-1.8751850371772303,7.84107398923931,0.23539602643811858,3.640240193657887,-4.912214333878919
-2.6336979657206605,-1.8387826352406513,7.843427949503691,0.18627388309932938,3.4776954739692574,-5.139335966832039
-2.652085792073067,-1.8040056805009588,7.845290688334684,0.13488052343100898,3.320687899031938,-5.35401783444988
-2.670125848878077,-1.7707988015106393,7.846639493568994,0.08134034508651018,3.1680308357976346,-5.557055265944839
-2.687833836893183,-1.7391184931526629,7.847452897019859,0.025769792427061795,3.0185993313102206,-5.749157708615549
-2.7052250218247096,-1.7089324998395607,7.84771059494413,-0.03172178465909369,2.871329215043564,-5.930953568528128
-2.7223143468231052,-1.6802192076891251,7.847393377097538,-0.09103132034437497,2.7252155474191415,-6.102996148975866
-2.7391165388999963,-1.6529670522149338,7.846483063894095,-0.15206128183413364,2.5793107010425236,-6.26577019653836
-2.7556462094221454,-1.6271739452045086,7.844962451075753,-0.21471898379951726,2.4327222792918484,-6.419698683818039
-2.7719179488741905,-1.60284672241159,7.842815261237758,-0.2789159706376977,2.2846110143144234,-6.565149548925966
-2.7879464160983063,-1.5800006122684458,7.8400261015313815,-0.3445674661269573,2.1341887394612926,-6.702442180689642
-2.803746422220991,-1.5586587248738328,7.836580426870112,-0.41159188793385376,1.9807164965764756,-6.831853490426526
-2.8193330094697293,-1.538851559908068,7.832464507990774,-0.479910422838119,1.8235028137934215,-6.953623450047641
-2.83472152506881,-1.520616531770134,7.827665403762393,-0.5494466573385954,1.6619021724983618,-7.067960005461221
-2.849927690386511,-1.5039975100451504,7.822170937189007,-0.6201262573932076,1.4953136712285469,-7.175043296265645
-2.8649676654869625,-1.4890443733328649,7.815969674615075,-0.6918766903558641,1.3231798881391597,-7.275029129502844
-2.879858109220291,-1.4758125744514732,7.809050907711516,-0.7646269816508925,1.1449859412149896,-7.368051668269035
-2.894616234964806,-1.4643627150393232,7.801404637895007,-0.8383074983335829,0.9602587457464018,-7.454225306358435
-2.9092598621151993,-1.4547601275818591,7.793021562911671,-0.9128497513971672,0.7685664710165389,-7.533645708667023
-2.923807463391018,-1.4470744628716938,7.783893065397699,-0.9881862084838374,0.5695182020645243,-7.606390004405302
-2.938278208019735,-1.4413792808510486,7.7740112033128606,-1.0642501085278904,0.3627638172956601,-7.672516126693866
-2.952692000828246,-1.437751642678092,7.763368702227582,-1.140975269794829,0.14799409817214904,-7.7320612981588335
-2.9670695172550268,-1.4362717016963706,7.751958949529634,-1.2182958827764174,-0.07505890714486796,-7.7850396679410165
-2.9814322342719906,-1.4370222907678194,7.73977599070187,-1.2961462794558276,-0.306621238865118,-7.8314391112715365
-2.9958024571796686,-1.4400885031564705,7.726814527907312,-1.374460670568543,-0.546876067041834,-7.871217208613294
-3.0102033422112333,-1.4455572638268888,7.713069921201626,-1.453172842654676,-0.7959623829681896,-7.904296427486283
-3.024658914849502,-1.4535168876565707,7.69853819277508,-1.5322158069295388,-1.053973300955316,-7.9305585366635505
-3.0391940837260676,-1.4640566206661239,7.683216034705784,-1.6115213922961744,-1.320953929297902,-7.949838289645982
-3.0538346499327287,-1.4772661599591028,7.667100820782822,-1.6910197751926341,-1.5968987693070391,-7.961916422433961
-3.0686073115323196,-1.4932351476521732,7.650190623030896,-1.7706389394169737,-1.8817486034117892,-7.966512019882204
-3.083539663008841,-1.5120526336862912,7.632484233636726,-1.8503040596157958,-2.175386837837944,-7.963274315654814
-3.098660189345704,-1.5338065020646705,7.613981193040567,-1.929936802772344,-2.4776352726133735,-7.951774003324014
