th1 (rad),w1 (rad/s),th2 (rad),w2 (rad/s)
5.579976037982164,1.5780915075835797,1.6084397023878487,0.35267453739134114
5.595756953058,1.6099256329417302,1.6119664477617621,0.25785307022289916
5.611856209387417,1.639987680221395,1.6145449784639911,0.16061407629965463
5.628256086189631,1.6683951899753398,1.6161511192269877,0.06102665882105808
5.644940038089384,1.6952812677305935,1.6167613858151983,-0.040830849790604404
5.66189285076669,1.7207945503209476,1.6163530773172923,-0.14487237256815633
5.6791007962699,1.7450989964478054,1.6149043535916108,-0.25100590389561867
5.6965517862343775,1.768373508420808,1.6123942945526546,-0.3591356566368785
5.714235521318586,1.790811401662259,1.6088029379862858,-0.4691645302730574
5.732143635335208,1.8126197484723463,1.6041112926835552,-0.580996880343724
5.7502698328199315,1.8340186322636562,1.598301323880118,-0.6945415615751336
5.768610019142568,1.8552403575212972,1.5913559082643667,-0.8097152115081347
5.787162422717781,1.8765286687334644,1.5832587561492852,-0.9264457388816484
5.805927709405116,1.8981380381807225,1.5739942987604687,-1.0446759820055773
5.824909089786923,1.9203330876296267,1.563547538940413,-1.164367507203551
5.844112420663219,1.9433882126725708,1.5519038638683775,-1.28550452625357
5.863546302789945,1.967587480887016,1.5390488186058418,-1.408097924542489
5.883222177598815,1.9932248765073606,1.524967839360417,-1.5321894081522134
5.903154426363888,2.0206049653916627,1.5096459452788948,-1.6578557979614195
5.9233604760178045,2.0500440552791215,1.4930673872992806,-1.7852135216460978
5.943860916570595,2.0818719282340252,1.4752152520828197,-1.9144233797135923
5.964679635852936,2.116434225227764,1.4560710182856837,-2.0456956888673967
5.985843978105214,2.1540955672631545,1.4356140613970099,-2.1792959343966265
6.007384933777845,2.1952435030964232,1.4138211020530436,-2.3155510919031945
6.029337368808809,2.240293379485908,1.3906655911340116,-2.454856805774251
6.051740302603668,2.2896942336682886,1.3661170230762691,-2.5976856341487515
6.074637244940351,2.3439358047717964,1.3401401667347816,-2.744596581664985
6.098076602988069,2.4035567423936746,1.3126942009181317,-2.8962461307628464
6.122112170412006,2.4691540407535557,1.2837317396105032,-3.0534009291054316
6.146803710819541,2.5413936173401246,1.253197730319449,-3.21695215730298
6.172217646992943,2.621021735411413,1.2210282087464193,-3.3879313200837466
6.198427864347057,2.7088765507957953,1.1871488955455818,-3.5675266545002824
6.225516629855015,2.8058982872376808,1.151473629000579,-3.7570983151440793
6.253575612727392,2.913135132601005,1.1139026458491381,-3.958188596133875
6.282706964053402,3.031739413122941,1.0743207598877993,-4.17252000940131
6.313024358184631,3.1629441036751027,1.0325955597937861,-4.401967890950115
6.344653799221382,3.3080018603935177,0.9885758808842849,-4.6484833864364425
6.377733817825317,3.468055298072181,0.9420910470199205,-4.9139240597608085
6.412414370806038,3.6438851217058916,0.8929518064223124,-5.1997186484629685
6.448853222023097,3.8354491905911754,0.8409546199376827,-5.506245641937147
6.487207713929009,4.041083225491755,0.7858921635183113,-5.831745658301997
6.527618546183927,4.256206444489137,0.7275747069352912,-6.170547633692836
6.570180610628818,4.471446161309926,0.6658692305983629,-6.510483922577571
6.614895072241918,4.670466246900798,0.6007643913725872,-6.829880733071359
6.661599734710926,4.828751882999747,0.5324655840418736,-7.095852476788265
6.7098872535409235,4.916060266809513,0.46150705927399094,-7.267655475247713
6.759047856209019,4.905352069892199,0.3888305045215138,-7.3090028474244235
6.808101376907941,4.786203815736584,0.31574047604726957,-7.206542352689345
6.855963415065307,4.572584088252672,0.24367505252037613,-6.980441270231821
6.901689255947833,4.2961758167000905,0.17387063981805792,-6.674936468036609
6.944651014114834,3.9909874946226176,0.10712127513769183,-6.336986617849716
6.98456088906106,3.68234738446526,0.043751408959194674,-6.001201843062865
7.021384362905713,3.384729912290309,-0.016260609471433977,-5.687057796040882
7.055231662028616,3.1044554025369715,-0.0731311874318428,-5.4027803310533455
7.086276216053986,2.843052608692709,-0.12715899074237624,-5.150055221721425
7.114706742140913,2.5996713378469467,-0.1786595429595905,-4.9273677637897
7.1407034555193825,2.372478861339226,-0.2279332205974875,-4.7319143251566835
7.1644282441327745,2.1593756924109377,-0.2752523638490543,-4.560568025289703
7.186022001056884,1.9583280889040493,-0.32085804410195135,-4.410316752686532
7.205605281945925,1.767503309616717,-0.3649612116288167,-4.278432487066949
7.223280315042092,1.5853095887923232,-0.4077455364994862,-4.162512687671208
7.239133410930015,1.4103931555911158,-0.4493706633761983,-4.060465365822242
7.253237342485926,1.2416180395964533,-0.4899753170344207,-3.970472719749071
7.265653522881891,1.0780408198419495,-0.5296800442319114,-3.890949592715546
7.276433931080311,0.9188857242665223,-0.5685895401590668,-3.820503854228584
7.285622788322976,0.7635222094043328,-0.6067945787013527,-3.757901413844868
7.293258010417019,0.6114456075053143,-0.6443735928398013,-3.7020365483356654
7.2993724664920725,0.4622607404716715,-0.681393958323158,-3.6519073443470504
7.30399507389679,0.3156681269443522,-0.7179130317666285,-3.6065957281999044
7.307151755166233,0.17145233209320507,-0.7539789890486275,-3.5652514754152045
7.308866278487165,0.029472021637316548,-0.7896315038027795,-3.527079620289251
7.309160998703538,-0.11034866977303043,-0.824902300005672,-3.491330751267428
7.308057512005807,-0.24802778505037454,-0.8598156075183463,-3.457293749257381
7.305577234155304,-0.38353247371821525,-0.8943885450109201,-3.424290590073603
7.301741909418121,-0.5167854133329519,-0.9286314509116562,-3.391672884556134
7.2965740552847915,-0.6476708806293685,-0.9625481797572175,-3.358819870443036
7.290097346478498,-0.7760405831429742,-0.9961363784616479,-3.3251376005920568
7.282336940647068,-0.9017193214438723,-1.0293877544675685,-3.2900590951690387
7.2733197474326285,-1.0245105175450706,-1.0622883454192589,-3.253045243609463
7.263074642257178,-1.1442016166533848,-1.0948187978553534,-3.213586257978569
7.251632626090644,-1.2605693473729127,-1.126954660435139,-3.171203494871984
7.239026932616915,-1.3733848098481714,-1.158666695383859,-3.1254514797540702
7.225293084518434,-1.4824183520783987,-1.1899212101813996,-3.0759199865592524
7.2104689009976495,-1.5874441914195736,-1.2206804100469921,-3.0222360467761193
7.194594459083453,-1.688244740473672,-1.2509027705147533,-2.964065785767835
7.177712011678716,-1.7846146031759569,-1.2805434283724317,-2.9011160088837173
7.159865865646957,-1.8763642166748506,-1.309554588461269,-2.833135484700347
7.141102223480209,-1.9633231261011983,-1.3378859433082724,-2.759915895972398
7.121468992219197,-2.0453428910170217,-1.3654851022679964,-2.6812924490134984
7.101015563309026,-2.1222996327619548,-1.3922980267581313,-2.5971441478768176
7.079792566981407,-2.194096239838941,-1.4182694682368995,-2.5073937498340073
7.057851604583018,-2.260664253003988,-1.4433434057352394,-2.4120074227367185
7.035244962052978,-2.3219654523895055,-1.4674634799626067,-2.310994122961428
7.0120253075290835,-2.3779931658237414,-1.490573421192221,-2.2044047054802904
6.9882453758708465,-2.4287733110191545,-1.512617468247024,-2.0923307664372985
6.963957642760655,-2.47436517542926,-1.5335407759113968,-1.9749032051737292
6.939213991006363,-2.51486192758832,-1.553289807963134,-1.8522904789739205
6.914065371730479,-2.5503908441232066,-1.5718127127528734,-1.7246965120244355
6.888561463289247,-2.581113228878197,-1.5890596778731176,-1.5923582122039976
6.862750331000465,-2.607223996116205,-1.6049832599951577,-1.4555425470066867
6.836678091039303,-2.6289508896672955,-1.6195386854652245,-1.3145431342534535
6.810388582142631,-2.6465533148805496,-1.632684116807759,-1.169676314663113
6.783923048993826,-2.6603207704707583,-1.6443808799543902,-1.0212766914250906
6.757319841289118,-2.6705708824399434,-1.654593646868641,-0.8696921454182318
6.730614132464718,-2.6776470612427867,-1.6632905683228234,-0.7152783616954517
6.70383766185229,-2.681915824827895,-1.6704433519397779,-0.5583929307873318
6.677018503604011,-2.6837638523662664,-1.676027281247651,-0.399389114450198
6.6501808650803484,-2.6835948544792068,-1.680021172392153,-0.23860938688062144
6.623344916535556,-2.681826363785377,-1.6824072662609593,-0.07637887664765208
6.596526652897703,-2.678886563080358,-1.6831710550274357,0.08700116022152651
6.5697377872669,-2.6752112763964244,-1.6823010434252204,0.2512597104770687
6.542985674502935,-2.6712412501124634,-1.6797884463204498,0.41616210679480786
6.5162732620018105,-2.667419847373544,-1.6756268252525017,0.5815157779404752
6.489599063528075,-2.6641912701015404,-1.669811667473097,0.7471755923467394
6.46295715082706,-2.6619994100584052,-1.6623399115496296,0.9130487793807788
6.436337156726475,-2.661287415262116,-1.6532094237558217,1.0790994535247806
6.409724282573854,-2.6624980420982443,-1.642418429220574,1.2453528080968446
6.383099302152871,-2.6660748480586975,-1.6299649011396053,1.4118990844986727
6.356438553672284,-2.67246426604116,-1.6158459102946185,1.5788974579298725
6.329713911011872,-2.6821185886522096,-1.6000569357153198,1.7465800087067884
6.30289272512535,-2.6954998789172726,-1.582591135628252,1.9152559670251272
6.275937726336177,-2.7130848094582927,-1.5634385759580007,2.0853164243022317
6.248806878241594,-2.735370410231673,-1.5425854117149784,2.257239689715016
6.221453174139278,-2.7628806659584395,-1.5200130148178284,2.431597425068796
6.193824367479693,-2.796173832496407,-1.4956970405671404,2.6090615951115055
6.165862629154729,-2.835850209788648,-1.4696064246160254,2.79041208965133
6.137504127056842,-2.8825598726114317,-1.441702303719512,2.9765445491503586
6.108678528330728,-2.937009443355975,-1.4119368582280085,3.168477355219067
6.079308433897168,-2.9999662661754094,-1.380252084675818,3.367355758453729
6.049308771235414,-3.0722570960755267,-1.3465785270912807,3.574449415993085
6.018586200274659,-3.1547562980213084,-1.31083403293135,3.791136713519041
5.987038637294446,-3.2483549920782098,-1.2729226657961594,4.018864361717414
5.954555087373664,-3.3538967068898105,-1.2327340221789853,4.259062663178094
5.921016120304766,-3.472055694309933,-1.1901433955472043,4.512983822531332
5.886295563361666,-3.6031197786317,-1.145013557321891,4.781410813344175
5.85026436557535,-3.7466201787383384,-1.0971994491884491,5.0641571177051095
5.812798163787966,-3.900730622696642,-1.046557878011398,5.359249155093189
5.773790857561,-4.061355994469364,-0.9929653864604661,5.661679198665948
5.733177297616306,-4.22089858260796,-0.9363485944738066,5.961708968182698
5.690968311790226,-4.366933697935437,-0.8767315047919796,6.243040410512779
5.647298974810872,-4.481571023926703,-0.8143011006868518,6.481925190500149
5.602483264571605,-4.543014617021961,-0.7494818487818503,6.6493074287848435
5.557053118401385,-4.530863759963402,-0.6829887744940019,6.718132998434007
5.5117444808017515,-4.434382492935483,-0.6158074445096617,6.674736656011289
5.467400655872397,-4.258710653203059,-0.5490600779495488,6.527314651447466
5.424813549340366,-4.023254146050783,-0.4837869314350741,6.30352555967913
5.384581007879858,-3.7530237508890276,-0.4207516758382828,6.0383918245354655
5.347050770370968,-3.4698865853182537,-0.36036775759292816,5.762224158212866
5.312351904517786,-3.1886438060538342,-0.3027455160107995,5.495325554415319
5.2804654664572475,-2.9173876894733763,-0.24779226046664632,5.248619412999543
5.251291589562514,-2.659515610661062,-0.19530606633665087,5.02652015174036
5.224696433455903,-2.415673730165156,-0.14504086481924727,4.829657279021708
5.200539696154252,-2.1851043452770127,-0.09674429202903019,4.65674447371769
5.1786886527014815,-1.966444637452133,-0.050176847291853295,4.505676156370627
5.1590242063269605,-1.7581565819570517,-0.005120085728147025,4.374109528873509
5.14144264050739,-1.55874021699535,0.03862100956058807,4.259746784570717
5.1258552383374365,-1.3668288726124,0.08121847740629523,4.160455358567465
5.112186949611313,-1.1812234557122703,0.1228230309919699,4.074305506354073
5.10037471505419,-1.000896965098967,0.16356608605551062,3.999568224630329
5.0903657454032,-0.8249856217310905,0.2035617683018139,3.9346959800398777
5.082115889185889,-0.6527749370706121,0.2429087281022127,3.878297589568757
5.075588139815183,-0.48368476123295967,0.2816917039979003,3.829112739319994
5.0707512922028535,-0.3172551234577171,0.31998283139110023,3.7859886103209464
5.067578740968276,-0.1531335412148283,0.3578427174943097,3.7478595627537525
5.0660474055561275,0.00893608646410815,0.3953213131218472,3.713730094713717
5.066136766420769,0.1691231464921816,0.4324586140689844,3.6826609573236984
5.067827997885691,0.3275187910884316,0.46928522364222136,3.6537581744199574
5.071103185796575,0.48414350747791257,0.5058228053864209,3.6261646774748812
5.075944620871354,0.638954045007317,0.5420844521611697,3.5990542709357345
5.082334161321428,0.7918499368310294,0.578074994870527,3.5716276624819625
5.090252660689738,0.9426798152184824,0.6137912714953466,3.543110313736987
5.099679458841923,1.091247678468631,0.6492223746327165,3.512751884115555
5.110591935626609,1.2373192261094634,0.684349893473872,3.4798270521128627
5.122965127887704,1.3806283390875242,0.7191481639950006,3.4436375048780183
5.136771411278579,1.520883744129407,0.7535845390437808,3.403514889796993
5.151980248719873,1.6577758673300826,0.7876196879417506,3.358824522853657
5.168558007393174,1.7909838521461472,0.8212079331702872,3.308969649536622
5.186467845914636,1.920182692068388,0.8542976296656534,3.2533960565163738
5.205669672835319,2.045050408816693,0.8868315902308171,3.1915968372562404
5.226120176923486,2.165275193120553,0.9187475586033795,3.123117122585936
5.247772928854692,2.2805624168149876,0.9499787298292389,3.0475585979047115
5.270578553022842,2.390641421497456,0.980454315808286,2.964583641418373
5.294484967237817,2.495271989429452,1.0101001522224697,2.8739189316200155
5.319437687132111,2.594250405602312,1.0388393415386699,2.7753583859463387
5.345380191188134,2.687415024781535,1.0665929253981332,2.668765305179606
5.37225434143595,2.774651262952963,1.0932805784499293,2.554073609136468
5.400000854065479,2.8558959383608,1.118821314541294,2.431288058529638
5.428559813449088,2.9311408932232603,1.1431341951265903,2.3004833663713864
5.45787122238132,3.000435833787501,1.1661390287903042,2.1618021113550627
5.487875580719195,3.063890334712201,1.1877570499038548,2.015451377230984
5.518514484066317,3.121674965259458,1.2079115636761646,1.8616980583555287
5.549731233718912,3.174021510927709,1.2265285442597198,1.700862794106302
5.581471448828189,3.221222286200818,1.2435371722007829,1.5333125247204575
5.613683671690198,3.2636285626809753,1.2588702974479875,1.359451698143672
5.646319957317007,3.301648171826092,1.2724648144294242,1.1797122000430484
5.679336439035268,3.3357423816549105,1.2842619364298546,0.9945421241192531
5.712693862851817,3.3664221899893945,1.294207357671047,0.8043935428653651
5.746358084751711,3.394244220201467,1.3022512930997008,0.6097094747875454
5.7803005269537255,3.4198064457605253,1.3083483878475763,0.41091026753926163
5.814498591411331,3.443744003946018,1.312457490522969,0.20837962280375658
5.848936031450791,3.4667253842193086,1.3145412867510065,0.0024504748823369893
5.883603285292985,3.4894492911249624,1.3145657914998299,-0.20660910036066849
5.918497778204235,3.5126424843842607,1.312499700496223,-0.41860982498608157
5.9536242030480775,3.5370588900210516,1.3083136022463624,-0.6334549572426658
5.988994791948288,3.5634802560829555,1.3019790526739357,-0.8511538596184756
6.0246295945091175,3.5927185940017408,1.293467514077751,-1.071835507013794
6.060556780449135,3.6256205982460026,1.282749159007613,-1.2957621080789676
6.096812986431595,3.6630741631288273,1.2697915379268234,-1.5233430359315965
6.1334437280628835,3.7060169959885703,1.2545581075675074,-1.755149211669242
6.170503898022769,3.7554471205695137,1.237006615450815,-1.9919278943779333
6.208058369228464,3.8124346991924245,1.2170873365070356,-2.2346173991023366
6.246182716220388,3.878133942971812,1.1947411625160123,-2.484360403130548
6.284964055650106,3.9537926858997823,1.1698975584847067,-2.74251287998473
6.324501982509104,4.040755046219014,1.1424724296848594,-3.0106427332454135
6.364909532971295,4.140448744725392,1.1123660023524053,-3.2905068607341295
6.406314020418549,4.2543418270927225,1.079460933745064,-3.5839859028804386
6.448857438689476,4.383841680436839,1.0436210747162595,-3.892939439045489
6.492695855493844,4.53008929414335,1.0046916803258046,-4.21891663103855
6.537996748435278,4.693570221937931,0.9625025140154191,-4.562613404398698
6.584932450654657,4.873420224660053,0.9168763799714321,-4.922906543242287
6.633666652901257,5.066262832748501,0.8676473145390092,-5.295238026964058
6.6843292812287425,5.26444039235152,0.8146949342693687,-5.669156594016371
6.7369736851522575,5.45376115777862,0.758003368329205,-6.025187921282065
6.791511296730044,5.611694991396963,0.6977514891163844,-6.332337141758069
6.847628246644014,5.708445613098681,0.6344281176988037,-6.5496178933743305
6.904712702775001,5.714240690077984,0.5689319387650604,-6.636272055217295
6.96185510967578,5.612822835067782,0.5025692182128875,-6.570624392652816
7.0179833380264585,5.412432897721847,0.43686297428635934,-6.365346088156381
7.072107667003677,5.1427592467626555,0.3732095134047955,-6.063023831478833
7.1235352594713035,4.839637933988978,0.3125792750900072,-5.714643073271782
7.171931638811193,4.531466850802993,0.2554328443572894,-5.360584914929696
7.217246307319223,4.235066575851201,0.20182699520799247,-5.024901128034077
7.259596973077735,3.957959008021419,0.1515779839276517,-4.71855943467153
7.299176563157949,3.7020493932904475,0.10439238958093641,-4.444624288492916
7.336197057090853,3.466424718482011,0.05994614669600725,-4.202182967451536
7.370861304275674,3.249002022337675,0.017924317021491887,-3.98865497398123
7.4033513244990505,3.047374125192832,-0.021962232718320415,-3.8009762863606222
7.433825065750979,2.859199209424674,-0.05997199558192664,-3.636144927872285
7.462417057845225,2.682356445474672,-0.09633344486064949,-3.4914390618138724
7.489240622299971,2.5149897645495587,-0.1312478354787882,-3.3644783814694863
7.514390519945467,2.3555020413723016,-0.1648926192934831,-3.2532158066193877
7.53794554035919,2.202529982725936,-0.19742477735967695,-3.155901819457268
7.559970840186449,2.054913828491916,-0.22898379555424964,-3.0710411713765375
7.580519978471369,1.911668025883572,-0.259694207268015,-2.9973506079846475
7.599636658730204,1.7719552390288604,-0.28966771334786146,-2.933720964679387
7.617356211120493,1.635064301894744,-0.3190049229946553,-2.8791845417881095
7.63370685413944,1.5003919602797118,-0.34779676841253643,-2.8328876081158207
7.648710773742237,1.367427958163665,-0.3761256444936946,-2.794067479645417
7.662385053323874,1.2357429503382402,-0.4040663192901488,-2.7620335209654305
7.674742482827257,1.1049787434874343,-0.4316866544998031,-2.7361514485637968
7.685792270262131,0.9748404230468671,-0.45904816898544104,-2.7158303953253053
7.6955406744926,0.845089986343294,-0.4862064729386941,-2.700512286503563
7.703991574356032,0.7155411622914025,-0.5132115958037298,-2.6896631626804
7.711146985978947,0.5860551502913949,-0.5401082274305338,-2.682766158598596
7.7170075374818605,0.45653705532548017,-0.5669358890165197,-2.6793159068004915
7.721572908035116,0.3269328334392205,-0.5937290480845246,-2.678814182304563
7.724842236369508,0.19722659315722865,-0.6205171899075703,-2.680766640451119
7.72681450230108,0.0674381253102739,-0.6473248563120815,-2.684680526096202
7.727488883554183,-0.062379442531801194,-0.6741716615730435,-2.6900632500606867
7.726865089128865,-0.19214194934744094,-0.7010722940736505,-2.6964217396042844
7.724943669635391,-0.3217365240709412,-0.7280365114696933,-2.703262475081239
7.721726304394682,-0.4510239727563218,-0.7550691362205056,-2.710092126201745
7.717216064667119,-0.5798412554220599,-0.7821700574825231,-2.7164186998190227
