th1 (rad),w1 (rad/s),th2 (rad),w2 (rad/s)
4.850155328075468,0.12626748960648915,5.7109029212344735,-1.877986982256642
4.851418002971533,0.24459321202674178,5.692123051411907,-1.9021688471924112
4.8538639350918,0.3635139114370627,5.673101362939983,-1.9273174582005679
4.857499074206171,0.483152949328347,5.653828188357977,-1.9538221401347955
4.862330603699454,0.603643159859755,5.634289966956629,-1.9820685273756178
4.868367035298052,0.7251249910914056,5.614469281682873,-2.012435447226826
4.875618285208966,0.8477435857911512,5.594344927210605,-2.045290333804811
4.884095721066878,0.9716444356311283,5.573892023872556,-2.08098261349207
4.8938121654231885,1.0969671230494493,5.553082197737636,-2.119834332486683
4.904781836653683,1.2238365212440925,5.531883854412769,-2.1621270920941846
4.917020201866124,1.352350660618137,5.510262583491826,-2.208084126649641
4.930543708472305,1.4825643077317707,5.48818174222533,-2.2578461283646503
4.945369351549623,1.6144671810814395,5.465603280941684,-2.311439250998916
4.961514023360437,1.7479557251548854,5.442488888431694,-2.3687337218442472
4.978993580611986,1.8827976164500722,5.418801551213252,-2.4293918534604977
4.997821556776487,2.018588897297545,5.394507632678647,-2.492805279426156
5.018007445749463,2.154705125191283,5.369579579884386,-2.558023370250866
5.039554497001376,2.2902505307117353,5.343999346181877,-2.6236785088818744
5.062457002308493,2.4240131366244073,5.317762561093058,-2.6879195684528394
5.086697133674737,2.5544389153388147,5.29088336540853,-2.7483722804188435
5.112241522828125,2.6796432037846296,5.263399642604342,-2.802152593781911
5.139037954865971,2.7974800964693127,5.2353781166665225,-2.8459628467167963
5.167012755830664,2.9056862525935485,5.206918488199355,-2.876294713587171
5.1960696183566,3.0021004225747676,5.178155541063483,-2.8897416504983795
5.226090622582348,3.0849337556240988,5.149258124558499,-2.88338645283147
5.256939960138588,3.153036362764255,5.120424260030185,-2.855187413730859
5.288470323766231,3.206088581887168,5.091872385892876,-2.8042618480625836
5.320531209585103,3.2446564872345043,5.06382976741225,-2.7309805277927177
5.352977774457448,3.2700919249155684,5.0365199621343235,-2.6368433262029733
5.385678693706604,3.28430919358617,5.010151528872294,-2.524179274886025
5.418521785642465,3.2895061317757146,4.984909736123433,-2.395764943655701
5.451416846960222,3.287900986134681,4.960952086686876,-2.2544610466439208
5.484295856821569,3.2815332702456947,4.938407476220437,-2.1029354758882888
5.517111189524026,3.2721448807338187,4.917378121461554,-1.943496599212366
5.549832638331364,3.2611328621364697,4.89794315546943,-1.7780258396219726
5.582443966952729,3.249553349811006,4.88016289707321,-1.6079817332181092
5.614939500450839,3.2381551318310344,4.864083079741029,-1.4344458485099985
5.647321051769149,3.227425829108975,4.849738621255929,-1.2581870609751595
5.679595310060239,3.217639642708827,4.8371567506461774,-1.079728798830436
5.711771706487327,3.20890069269436,4.826359462657873,-0.8994108423074069
5.7438607134142705,3.201179485785165,4.8173653542347985,-0.7174420926899404
5.775872508272122,3.1943421332727393,4.810190933307899,-0.5339435985507662
5.807815929604849,3.1881729966528543,4.8048514973223915,-0.3489825807546828
5.839697659571377,3.182391856340225,4.801361671514845,-0.16259877055939365
5.87152157813478,3.1766667668729456,4.799735683809251,0.025175536038592822
5.903288245803509,3.170623663604784,4.799987439169637,0.21430044574415347
5.934994482439556,3.1638536255068708,4.802130443627079,0.40471742077538375
5.966633018694625,3.15591852973265,4.806177617834833,0.596341415173068
5.998192203991952,3.1463556795213323,4.812141031986564,0.7890556020060593
6.029655760787165,3.1346818552917544,4.820031588006625,0.9827082707358319
6.061002579340082,3.1203971291295973,4.829858670713983,1.1771116071587047
6.092206550631378,3.1029886918476413,4.84162978678557,1.372042166140141
6.1232364375498545,3.081934865153636,4.855350208446971,1.5672429146689133
6.154055786201391,3.056709405276163,4.8710226375936605,1.7624267645789502
6.184622880254152,3.026786145559011,4.88864690523945,1.957281535199678
6.214890741709742,2.991643971863761,4.908219720591447,2.151476290303696
6.24480718142838,2.9507720748673596,4.929734483494483,2.3446689847406157
6.2743149021770535,2.9036753770924406,4.953181173341889,2.5365153375563216
6.303351655947978,2.84987999006811,4.978546326717452,2.7266788235657065
6.331850455848659,2.788938519279214,5.005813114953109,2.9148416476085113
6.359739841041451,2.7204350028592374,5.034961531429194,3.100716538384761
6.386944191070043,2.6439892459514125,5.065968696813042,3.2840591750673114
6.413384083529557,2.559260298094902,5.098809288563715,3.4646810428284827
6.4389766865105065,2.465948817706296,5.133456098992,3.6424625055464825
6.4636361746875695,2.3637980774836125,5.169880724047465,3.81736588704111
6.487274155462406,2.2525933890737573,5.208054382917876,3.989448366746272
6.509800089353144,2.132159766449355,5.247948866585339,4.1588745203897215
6.531121687017637,2.002357707541083,5.289537611789235,4.325928366843713
6.551145264093048,1.8630770566417596,5.3327968954576725,4.4910248104905675
6.569776034659466,1.71422902290768,5.377707143562578,4.654720379577776
6.586918324888543,1.5557365857654775,5.424254347358356,4.817723130750363
6.602475690746197,1.387523739485276,5.4724315786658595,4.980901478441727
6.61635092814105,1.209504357875904,5.5222405934502765,5.145291450276499
6.628445971719809,1.0215719674140646,5.573693507953042,5.312101360276501
6.638661691393949,0.8235925241657523,5.626814521555807,5.4827119571889
6.646897616635607,0.6154035976233176,5.681641641127696,5.658668462466576
6.65305165261184,0.39682549918379784,5.738228325752361,5.841658103476962
6.657019907603678,0.16769336538056812,5.796644906787131,6.033462051311449
6.658696841257483,-0.07207523079280151,5.856979527300246,6.23586301293988
6.657976088949555,-0.32235393512603916,5.919338157429645,6.450477672729067
6.654752549598294,-0.5825867413904626,5.983842934156936,6.678465336001201
6.648926682184389,-0.8514206782607693,6.0506275875169475,6.9200407558355455
6.6404124754017815,-1.1261256857112465,6.119827995075303,7.1736968692205
6.629151218544669,-1.4017407406920874,6.191564963767508,7.435046387688105
6.615133811137748,-1.6699566856432508,6.265915427644389,7.695282748202657
6.598434244281315,-1.9179704673121174,6.342868255126415,7.939560993431402
6.579254539608194,-2.1280121672406365,6.422263865060729,8.146234432453715
6.557974417935788,-2.2788384644730155,6.503726209385266,8.28870015983899
6.535186033291057,-2.350467867004665,6.586613210983656,8.341601744302514
6.511681354621011,-2.3315412405394755,6.6700292284266816,8.290578455777592
6.488365942215617,-2.2252229153975955,6.752935012984458,8.140046057302715
6.466113713061641,-2.048649146626567,6.834335473557485,7.912306989104751
6.445627221595375,-1.825847974881633,6.913458543448533,7.638013753207724
6.427368741846559,-1.5795763195573465,6.98983868098061,7.345413100809245
6.411572978650986,-1.3268081340596056,7.063292811988703,7.054650020665813
6.39830489731039,-1.0782049255761255,7.133839312195361,6.777393297169685
6.387522848054629,-0.839554070055431,7.201613245167058,6.518972183527642
6.379127307354074,-0.6134986842902765,7.266802967002334,6.280777857514815
6.372992320511171,-0.4008769058088416,7.329610745577482,6.062062557614019
6.368983551453083,-0.20158762005485242,7.3902313711536225,5.861068794817614
6.366967675252535,-0.015097396728990214,7.448842059101799,5.675668622064132
6.366816701285245,0.15928206457860297,7.50559874532244,5.5036983947167295
6.368409521931031,0.3222515088890511,7.560635729269608,5.3431198016637005
6.371632037019921,0.4744573631755745,7.6140669272862445,5.192087161264989
6.376376610651677,0.6164658903491758,7.665987798898894,5.048966549909833
6.382541269555169,0.7487586686854065,7.716477464397992,4.912331634317146
6.390028856242023,0.8717385951561846,7.765600780741163,4.780949340750016
6.398746242193585,0.9857405559565543,7.813410274148663,4.653762050367637
6.408603647753151,1.0910436433974178,7.85994789465234,4.529869550024456
6.419514084187125,1.1878832964905812,7.905246590152585,4.4085121491106225
6.431392917152031,1.2764625563594236,7.949331711643691,4.289055444241611
6.444157542715626,1.356962066182922,7.992222266086107,4.17097676226491
6.457727163377455,1.4295486797092563,8.033932033708757,4.053853113729465
6.472022650174547,1.4943826664826065,8.07447056484605,3.9373504220782394
6.486966476839373,1.551623567201918,8.113844069066833,3.821213792679998
6.502482712511393,1.601434786884171,8.152056206993633,3.7052586150266134
6.518497060380234,1.6439870315304226,8.189108793143898,3.589362332053668
6.5349369306955385,1.6794607034346185,8.225002416464434,3.4734567526231093
6.551731537729885,1.7080473749043068,8.259736983990665,3.35752082167735
6.5688120114789275,1.7299504617140253,8.293312192207438,3.2415737950932577
6.586111516096068,1.7453852168127886,8.32572793015837,3.125668792015169
6.603565368264196,1.7545781619421108,8.356984618078522,3.0098867164762684
6.621111149883617,1.7577660700363749,8.387083485243284,2.894330552964929
6.6386888105839805,1.7551946047271412,8.416026790772934,2.7791200480611464
6.656240756631252,1.7471167151770643,8.443817991253546,2.6643867932875054
6.6737119237830225,1.733790875120934,8.470461859186422,2.5502697238496417
6.691049832534232,1.7154792447398965,8.495964556424918,2.4369110449086016
6.708204624981631,1.6924458232159845,8.520333666874004,2.3244525922780706
6.725129083213791,1.664954648880692,8.543578192796785,2.213032628711074
6.741778629702599,1.6332680931280965,8.565708519083895,2.1027830708477175
6.75811131063388,1.5976452840074957,8.586736349792371,1.9938271359241264
6.774087763473955,1.5583406858817022,8.606674621151612,1.8862773918554996
6.789671170332772,1.515602852911078,8.625537395070166,1.780234189552339
6.804827198861883,1.4696733665141721,8.64333973696569,1.675784452458962
6.819523932527025,1.4207859604208524,8.660097581490279,1.5730007953855694
6.833731792131233,1.3691658314814987,8.675827589444134,1.4719409427423022
6.847423450446048,1.3150291299946764,8.690546998871557,1.3726474152295092
6.860573741745994,1.2585826199037151,8.704273473023852,1.2751474538117777
6.873159567945031,1.2000234967060368,8.717024947561969,1.1794531503008248
6.885159802912091,1.1395393492203352,8.728819479064978,1.0855617549788672
6.896555196404295,1.0773082503611522,8.739675096614766,0.9934561332906265
6.907328278907906,1.013498961671653,8.749609657947673,0.9031053456021785
6.917463268524623,0.948271236459622,8.758640711403695,0.8144653262589424
6.926945980889219,0.881776206870659,8.766785364666283,0.7274796405737187
6.935763742957925,0.8141568410256727,8.77406016107202,0.6420803008511936
6.943905311368182,0.7455484573655018,8.780480964080532,0.5581886250328147
6.951360795941837,0.6760792845118979,8.78606285033086,0.4757161239633272
6.958121588786956,0.6058710562089356,8.790820011570492,0.3945654055878593
6.964180299349046,0.5350396321994311,8.79476566562637,0.3146310865481293
6.9695306956710406,0.46369563717323153,8.797911976491852,0.2358007036303601
6.974167652042773,0.3919451111625425,8.800269983528155,0.15795561930718255
6.978087103154398,0.3198901659253025,8.801849539721227,0.0809719172002019
6.981286004813652,0.24762964292887046,8.802659258893229,0.00472128466427249
6.98376230124294,0.17525976950629416,8.80270647173987,-0.07092811914095189
6.985514898938003,0.1028748105940905,8.80199719054846,-0.14611081036820056
6.986543647043944,0.03056771416547878,8.80053608244478,-0.22096314270599932
6.986849324185599,-0.04156925095886774,8.798326451017719,-0.2956224840596546
6.98643363167601,-0.11344386581202803,8.795370226177122,-0.3702264066592639
6.98529919301789,-0.18496334109547963,8.791667962110528,-0.4449118893587143
6.983449559606935,-0.25603370656033747,8.787218843216941,-0.5198145308533819
6.9808892225413315,-0.32655921039751434,8.782020697908408,-0.5950677726711916
6.977623630437356,-0.3964417292024276,8.776070020181695,-0.670802131077095
6.973659213145332,-0.46558018933267853,8.769361998870924,-0.7471444374714574
6.969003411252006,-0.5338700008534915,8.76189055449621,-0.8242170874561012
6.963664711243471,-0.6012025057581109,8.753648383621648,-0.9021372994865478
6.95765268618589,-0.6674644427494125,8.744627010626782,-0.9810163849245314
6.950978041758396,-0.7325374315629712,8.734816846777537,-1.060959032350237
6.943652667442766,-0.7962974805861597,8.724207256454035,-1.1420626101872706
6.935689692636904,-0.858614522364524,8.712786630352163,-1.2244164930318173
6.927103547413259,-0.9193519824635551,8.700542465421846,-1.3081014185549409
6.917910027588624,-0.9783663880441239,8.687461451236295,-1.3931888834541928
6.908126363708183,-1.0355070233808388,8.673529562401754,-1.479740588653671
6.897771293474374,-1.0906156403658211,8.658732156515217,-1.5678079457708698
6.886865137070716,-1.1435262327505495,8.643054077057508,-1.6574316587579794
6.875429874743211,-1.1940648834330456,8.626479760469929,-1.7486413965511916
6.86348922590888,-1.2420496944370123,8.608993346504416,-1.841455574482534
6.851068728964511,-1.2872908092867512,8.59057879075959,-1.9358812640750431
6.838195820871643,-1.329590537183455,8.57121997811884,-2.0319142525959615
6.824899915499809,-1.3687435876562601,8.55090083559288,-2.1295392753193076
6.811212479623246,-1.4045374231133536,8.529605442839687,-2.2287304447784857
6.797167105392113,-1.4367527348720055,8.507318138391902,-2.329451902298784
6.7827995780433925,-1.4651640457222224,8.484023619368914,-2.4316587177171907
6.76814793758617,-1.4895404388050726,8.459707032191742,-2.5352980633578457
6.753252533198119,-1.5096464085051873,8.434354051558165,-2.6403106879836042
6.738156069113067,-1.5252428241288218,8.407950944678328,-2.746632715556407
6.722903640871779,-1.5360879913525118,8.380484617522765,-2.8541977922100292
6.707542760958254,-1.5419387898057273,8.351942639600665,-2.9629396029064394
6.692123373060197,-1.5425518577593595,8.322313243571601,-3.0727947768986295
6.676697854482603,-1.5376847868455021,8.291585295802616,-3.183706198503101
6.6613210066141475,-1.5270972812046057,8.259748233817584,-3.29562673700208
6.646050033802101,-1.5105522266784275,8.226791966447562,-3.4085234070205392
6.630944511535317,-1.4878166069453114,8.192706732377356,-3.5223819687835785
6.616066345465864,-1.4586621952099204,8.15748291268952,-3.6372119766183646
6.601479723513765,-1.4228659426859889,8.121110792923337,-3.7530522842796503
6.587251064086905,-1.3802099792399796,8.08358027008054,-3.8699770174336394
6.573448964294505,-1.3304811379581596,8.044880499906204,-3.9881020270303282
6.560144152914923,-1.273469915089648,8.0049994796359,-4.107591842061705
6.547409453764026,-1.2089687812768704,7.963923561215283,-4.228667145420114
6.535319765951257,-1.1367697714379765,7.921636889761082,-4.35161280019941
6.523952068236878,-1.0566613026201834,7.878120761759088,-4.47678645191971
6.513385455210676,-0.9684242072829563,7.833352897239891,-4.604627717818124
6.503701213137846,-0.8718270331562886,7.78730662006171,-4.735667935444971
6.494982942806284,-0.7666207655848413,7.73994994070726,-4.870540358797947
6.4873167351504355,-0.6525332999548107,7.691244537119281,-5.009990526536962
6.480791402150888,-0.5292642733861237,7.641144631853911,-5.15488622551871
6.475498759417026,-0.39648132766717614,7.589595769598724,-5.306225937245593
6.4715339461403545,-0.2538196371467592,7.536533510226269,-5.465143724034513
6.468995749768887,-0.10088778862337419,7.481882072985924,-5.6329069205418305
6.467986871882653,0.0627148446704271,7.4255530037805055,-5.81090031368627
6.468614020329357,0.23736075140104393,7.367444000643643,-6.000586038635554
6.470987627843368,0.4233231253208899,7.307438140257288,-6.203421168633843
6.475220859096576,0.6206487902290507,7.2454039285709495,-6.420703557955115
6.481427346998867,0.8289409778013623,7.181196892991398,-6.653299521263808
6.489716756776881,1.0470020287764852,7.11466389777876,-6.9011844240084015
6.500186777064646,1.272271331586948,7.045652053538676,-7.162704917289947
6.512909490380515,1.4999963495955835,6.974025004365776,-7.433471103523469
6.527909453876471,1.7221366602659929,6.899690293330542,-7.704865704742909
6.54513082047913,1.926204676456805,6.822641636283112,-7.9624283660977015
6.564392867243698,2.0946855340416892,6.743017352622135,-8.184967563165161
6.585339722584115,2.2062735244703657,6.661167676990483,-8.346068152651815
6.607402457828818,2.2402614892510577,6.577706995463965,-8.419812458131796
6.629805072721329,2.1837688511565223,6.493508870882646,-8.390302250389084
6.651642761232894,2.038072354748647,6.409605848378756,-8.2599373675778
6.6720234847803805,1.8188745824961683,6.327006474702977,-8.049529349450514
6.690212230605343,1.5497218455362765,6.246511181208472,-7.78934185789654
6.705709449060706,1.2536671792301284,6.1686177626295065,-7.508051315724823
6.718246120853007,0.9482856683633145,6.093537249472258,-7.22642300973714
6.727728977536641,0.64481259846946,6.021273019374887,-6.956532219830572
6.734177103521335,0.34947716050906935,5.951707697176581,-6.703806251452643
6.737671875126426,0.06525177339902732,5.884669634662055,-6.4694865395363585
6.738324392860417,-0.20675861403665685,5.819974769266691,-6.252517556088382
6.73625680672005,-0.46640943642895427,5.7574495937058074,-6.050746834052477
6.73159271235576,-0.7139843577598837,5.6969421253652825,-5.861610419984628
6.724452868778162,-0.9499057044857451,5.638326021165437,-5.682496067391905
6.714953811733304,-1.1745886141347293,5.581501060491518,-5.510922297184344
6.703207925591957,-1.3883762344983883,5.526391837519674,-5.344618316780058
6.689324163246973,-1.591519129215155,5.472945654351874,-5.181553199858587
6.673408971954822,-1.784178022061425,5.421130122353288,-5.019940590226588
6.655567191734208,-1.9664382697925722,5.3709307164510225,-4.858232601778863
6.635902809036282,-2.1383296377076197,5.322348390433234,-4.695109667841034
6.614519512659206,-2.29984780128606,5.275397293754824,-4.529469384740103
6.5915210346463455,-2.450975548392823,5.230102599907423,-4.36041546157341
6.567011279162418,-2.5917025017627635,5.186498445291689,-4.187246928030583
6.54109425414479,-2.7220426511443643,5.144625976011383,-4.009447323471201
6.513873827633346,-2.8420492600613603,5.104531502776672,-3.8266734515965446
6.485453335032733,-2.951826891380125,5.066264768260706,-3.638743302509592
6.455935066118932,-3.0515404295475994,5.02987733523561,-3.4456228424183184
6.425419661823456,-3.14142108999841,4.995421106811427,-3.2474115066621874
6.394005450923472,-3.2217695077505626,4.962946991744805,-3.044326377171244
6.361787755845966,-3.2929560897283623,4.932503727973093,-2.836685163668349
6.328858194948682,-3.3554188971454044,4.90413687633641,-2.6248882276566543
6.295304005977228,-3.409659392166657,4.877887994059844,-2.4093999823869945
6.261207412055562,-3.4562364338085696,4.853793994235974,-2.1907300666683756
6.226645047717476,-3.4957589391254125,4.83188669356929,-1.9694147243767521
6.191687458326221,-3.528877635778559,4.812192546325522,-1.7459988260406876
6.156398681968436,-3.5562763209148387,4.794732558065116,-1.521018947284272
6.120835918759288,-3.5786630098153323,4.779522368592273,-1.294987876406408
6.085049288661135,-3.596761307777376,4.766572489828209,-1.0683808667714296
6.049081675583361,-3.6113022723579133,4.755888681160495,-0.841623887063375
6.012968652859782,-3.6230169525617266,4.747472442289861,-0.6150840629223251
5.976738483334165,-3.632629698249903,4.741321601660638,-0.3890624570075718
5.940412186351666,-3.6408522270412353,4.737430977090562,-0.16378931198468533
5.904003664081253,-3.6483783151888085,4.735793083970715,0.06057810562020491
5.867519880929366,-3.6558788382085265,4.736398865026917,0.28395485938304965
5.83096109254728,-3.663996717308941,4.739238413620748,0.5063245633087967
5.794321125374191,-3.6733411148845923,4.744301659253836,0.7277319190978473
5.7575877142253455,-3.684479946789786,4.751578978444814,0.9482706885539566
5.720742914757448,-3.6979294155422964,4.761061685330354,1.1680657402101196
