th1 (rad),w1 (rad/s),th2 (rad),w2 (rad/s),a1 (rad/s^2),a2 (rad/s^2)
3.2081210221296943,-2.3173305658822185,0.07092932962906799,-1.3147206942320828,0.6244901970723397,-0.046407406537140435
3.184947716470872,-2.311085663911495,0.057782122686747164,-1.3151847682974542,0.3356244866091182,-0.15330625061732095
3.161836859831757,-2.307729419045404,0.04463027500377262,-1.3167178308036274,0.047174060738660595,-0.26021353206507786
3.138759565641303,-2.307257678438017,0.031463096695736346,-1.319319966124278,-0.24060567468412405,-0.36621383990314044
3.1156869888569227,-2.3096637351848583,0.018269897034493568,-1.3229821045233094,-0.5274703317710115,-0.4704108196180265
3.0925903515050743,-2.3149384385025686,0.005040075989260474,-1.3276862127194897,-0.8131791470040537,-0.5719155854032272
3.0694409671200487,-2.3230702299726094,-0.008236786137934424,-1.333405368573522,-1.097487677002933,-0.669835278211564
3.0462102648203224,-2.334045106742639,-0.021570839823669644,-1.3401037213556377,-1.3801405646302538,-0.7632617677276071
3.022869813752896,-2.3478465123889416,-0.03497187703722602,-1.3477363390329138,-1.6608643589418457,-0.8512605000093363
2.9993913486290067,-2.36445515597836,-0.048449240427555156,-1.3562489440330072,-1.9393603780535527,-0.9328595013817943
2.975746797069223,-2.3838487597588953,-0.06201172986788523,-1.3655775390468252,-2.215297612735085,-1.0070385633437058
2.951908309471634,-2.406001735886246,-0.07566750525835349,-1.3756479246802622,-2.4883056807169224,-1.0727186530718655
2.9278482921127718,-2.430884792693415,-0.08942398450515611,-1.3863751112109808,-2.757967857679476,-1.1287516200096637
2.9035394441858378,-2.4584644712702097,-0.10328773561726592,-1.3976626274110775,-3.0238142311572527,-1.1739103015424381
2.8789547994731355,-2.4887026135817822,-0.1172643618913767,-1.4094017304265019,-3.285315048689846,-1.20687917049442
2.854067773337318,-2.5215557640686805,-0.13135837919564172,-1.421470522131446,-3.5418743620998683,-1.2262457147374695
2.828852215696631,-2.556974507689679,-0.14557308441695618,-1.4337329792788207,-3.792824106408255,-1.2304927951131441
2.8032824706197346,-2.5949027487537615,-0.1599104142097444,-1.446037907229952,-4.037418795204744,-1.2179922924816446
2.7773334431321968,-2.635276936705809,-0.1743707932820439,-1.4582178301547686,-4.274831064751102,-1.1870004280256579
2.7509806737651386,-2.67802524735332,-0.1889529715835916,-1.4700878344350252,-4.5041483569463745,-1.135655222406959
2.7242004212916053,-2.723066730922784,-0.20365384992794183,-1.4814443866590947,-4.724371096377804,-1.061976647638612
2.6969697539823776,-2.770310441886562,-0.21846829379453278,-1.4920641531354808,-4.9344127882730815,-0.963870118083704
2.669266649563512,-2.8196545697692925,-0.2333889353258876,-1.5017028543163178,-5.133102540662398,-0.8391340597541768
2.6410701038658186,-2.8709855951759167,-0.24840596386905076,-1.5100941949138595,-5.319190592684769,-0.6854723839577188
2.6123602479140593,-2.9241775011027644,-0.26350690581818936,-1.5169489187534366,-5.491357507427797,-0.5005127636673798
2.5831184729030316,-2.9790910761770424,-0.2786763950057237,-1.5219540463901104,-5.648227755726375,-0.2818316570199568
2.5533275621412614,-3.035573353734306,-0.29389593546962484,-1.52477236296031,-5.788388468375751,-0.026987026786819704
2.5229718286039184,-3.093457238418064,-0.3091436590992279,-1.5250422332281783,-5.910414156970896,0.2664403516286719
2.4920372562197377,-3.1525613799877727,-0.3243940814315097,-1.5223778297118915,-6.012898183952031,0.6007962410287419
2.46051164241986,-3.212690361827293,-0.3396178597286286,-1.5163698673016042,-6.094491683583638,0.9782924490236471
2.428384738801587,-3.273635278663129,-0.35478155840164466,-1.5065869428113676,-6.153950478597561,1.4009363742058805
2.3956483860149556,-3.3351747834491046,-0.3698474278297583,-1.4925775790693088,-6.1901902824042105,1.8704510265232113
2.3622966381804646,-3.3970766862731465,-0.3847732036204514,-1.4738730688040766,-6.2023501059496535,2.388186692737413
2.328325871317733,-3.459100187332643,-0.3995119343084922,-1.4499912018767025,-6.189863288228505,2.9550263501665084
2.2937348694444064,-3.520998820214928,-0.41401184632725924,-1.4204409383750374,-6.152534936471917,3.571288052652346
2.258524881242257,-3.582524169579647,-0.42821625571100963,-1.384728057848514,-6.090623807702909,4.236628787546756
2.2226996395464607,-3.643430407656676,-0.4420635362894948,-1.3423617699730463,-6.004925820807997,4.949955661889682
2.1862653354698938,-3.703479665864756,-0.45548715398922524,-1.2928622133541494,-5.896855518011716,5.709351608204025
2.149230538811246,-3.762448221044873,-0.46841577612276675,-1.2357686972721091,-5.768520988386511,6.512023949240483
2.1116060566007975,-3.8201334309287382,-0.48077346309548785,-1.1706484577797043,-5.622787146576157,7.354284930824124
2.07340472229151,-3.8763613023945,-0.4924799476732849,-1.097105608471463,-5.463321974668318,8.231573503156243
2.0346411092675654,-3.930994522141183,-0.5034510037579996,-1.0147898734399006,-5.294620541555215,9.138526988927525
1.9953311640461535,-3.983940727556735,-0.5135989024923986,-0.9234046035506254,-5.122002456205543,10.06910965340798
1.955491756770586,-4.035160752118791,-0.5228329485279049,-0.8227135070165456,-4.951579988932568,11.016802516723184
1.9151401492493982,-4.0846765520081165,-0.5310600835980703,-0.7125454818493138,-4.790196430187282,11.97485510028524
1.874293383729317,-4.132578516309989,-0.5381855384165635,-0.5927969308464613,-4.645337265341555,12.936595445073303
1.832967598566217,-4.179031888963404,-0.5441135077250281,-0.4634309763957283,-4.525020221257989,13.895790147966355
1.791177279676583,-4.224282091175985,-0.5487478174889854,-0.3244730749160647,-4.437673869936277,14.847041976744562
1.7489344587648232,-4.268658829875347,-0.551992548238146,-0.17600265514861907,-4.392017868432088,15.786209588922166
1.7062478704660697,-4.312579008559668,-0.5537525747896322,-0.01814055925939742,-4.396960681821547,16.71083272676912
1.6631220803804732,-4.356548615377884,-0.5539339803822262,0.14896776800829378,-4.461532470851313,17.620547579730427
1.6195565942266943,-4.401163940086397,-0.5524443027021433,0.3251732438055981,-4.594871593924695,18.517481122789146
1.5755449548258302,-4.447112656025643,-0.5491925702640873,0.5103480550334896,-4.806282978303617,19.40662014939528
1.5310738282655738,-4.495175485808679,-0.5440890897137524,0.7044142565274424,-5.105385824200978,20.29616008604185
1.486122073407487,-4.546229344050689,-0.537044947148478,0.9073758573878609,-5.502367316921139,21.197849922616232
1.44065977996698,-4.6012530172199,-0.5279711885745993,1.1193543566140232,-6.008358984106423,22.127362030712394
1.394647249794781,-4.6613366070609645,-0.5167776450084591,1.340627976921147,-6.635953808598335,23.104728609948076
1.3480338837241714,-4.727696145146948,-0.5033713652392476,1.5716752630206279,-7.399885772287505,24.154899400287356
1.300756922272702,-4.801695002869823,-0.48765461260904136,1.8132242570235015,-8.317899253057307,25.308487371486006
1.2527399722440038,-4.884873995400397,-0.46952237003880637,2.0663091307383614,-9.411842641418632,26.60277869431004
1.2038912322899997,-4.978992421814583,-0.44885927873142273,2.3323369176814617,-10.709025359746725,28.0830860125906
1.1541013080718538,-5.08608267541205,-0.4255359095546081,2.6131677778073676,-12.243871596653657,29.80450849486273
1.1032404813177334,-5.208521391378587,-0.39940423177653445,2.911212862755995,-14.059867044983651,31.834100406298965
1.0511552674039475,-5.349120061828423,-0.3702921031489745,3.2295538668189847,-16.211678926921422,34.25327560861361
0.9976640667856632,-5.511236851097638,-0.33799656448078463,3.572086622905121,-18.76702361031284,37.15983325294385
0.9425516982746869,-5.698907087200767,-0.3022756982517334,3.943684955434559,-21.807103163057878,40.667919731224465
0.8855626274026792,-5.916978118831346,-0.26283884869738783,4.3503641527468035,-25.422639846778942,44.901712918397905
0.8263928462143657,-6.171204517299135,-0.21933520716991978,4.799381281930783,-29.698361693867287,49.972742018420576
0.7646808010413744,-6.468188134237808,-0.17134139435061194,5.299108702114989,-34.66931989348039,55.91745549233442
0.6999989196989963,-6.814881333172612,-0.11835030732946206,5.858283257038333,-40.212098912016536,62.54314011474565
0.6318501063672701,-7.217002322292777,-0.059767474759078724,6.483714658185789,-45.79625483213191,69.0774039873819
0.5596800831443424,-7.6749648706140965,0.005069671822779169,7.1744886980596085,-49.98006255897142,73.45878562304138
0.4829304344382014,-8.174765496203811,0.07681455880337526,7.9090765542900225,-49.629389157288095,71.24012943469792
0.40118277947616326,-8.671059387776692,0.1559053243462755,8.621477848637001,-39.60278454198906,55.15316812943698
0.31447218559839635,-9.067087233196583,0.2421201028326455,9.17300952993137,-15.647451057165497,19.199877383279016
0.22380131326643052,-9.223561743768238,0.3338501981319592,9.36500830376416,17.549301386964444,-29.997857866702127
0.13156569582874814,-9.048068729898594,0.4275002811696008,9.065029725097139,44.34598043522392,-70.35666997997788
0.0410850085297622,-8.604608925546355,0.5181505784205722,8.36146302529736,54.351077586349255,-87.13320575964144
-0.04496108072570135,-8.061098149682863,0.6017652086735458,7.490130967700945,51.62006683752161,-85.89995368436612
-0.12557206222252998,-7.544897481307647,0.6766665183505552,6.631131430857284,44.025158363882305,-77.6631027053928
-0.20102103703560645,-7.104645897668823,0.7429778326591281,5.854500403803356,35.95560997140402,-68.60046750398291
-0.2720674960122947,-6.745089797954783,0.8015228366971616,5.168495728763527,28.872726765353462,-60.799443380930704
-0.3395183939918425,-6.456362530301249,0.8532077939847968,4.56050129495422,23.008775692202352,-54.61722791943803
-0.404082019294855,-6.226274773379225,0.8988128069343391,4.01432901575984,18.22456887800638,-49.877201070995476
-0.46634476702864724,-6.044029084599161,0.9389560970919375,3.5155570050498848,14.315003740262755,-46.29746896014466
-0.5267850578746388,-5.900879047196533,0.9741116671424364,3.052582315448438,11.097934985544004,-43.61704243114167
-0.5857938483466041,-5.7898996973410926,1.0046374902969208,2.6164118911370213,8.431587931304986,-41.62181513635938
-0.643692845320015,-5.7055838180280425,1.030801609208291,2.2001937397734275,6.211359640200813,-40.14143277213983
-0.7007486835002954,-5.643470221626035,1.0528035466060253,1.798779412052029,4.362239006985767,-39.03995542371382
-0.7571833857165557,-5.599847831556177,1.0707913407265455,1.4083798578148907,2.8315104249312486,-38.20705187600231
-0.8131818640321176,-5.571532727306865,1.0848751393046945,1.0263093390548677,1.5827445137327458,-37.55129743076623
-0.8688971913051862,-5.555705282169537,1.0951382326952432,0.6507963647472053,0.5910247219769674,-36.99560171590732
-0.9244542441268815,-5.549795034949767,1.1016461963427153,0.28084034758813203,-0.16086168119238847,-36.474398710882745
-0.9799521944763792,-5.551403651761691,1.1044545998185966,-0.0839036395206954,-0.6855100445707837,-35.9321741610573
-1.0354662309939962,-5.558258752207399,1.1036155634233897,-0.44322538113126836,-0.9934154816892297,-35.32292784885186
-1.09104881851607,-5.568192907024291,1.099183309612077,-0.796454659619787,-1.0949890302443501,-34.61019918126149
-1.1467307475863129,-5.5791427973267345,1.0912187630158792,-1.142556651432402,-1.0020808163527748,-33.76731602359088
-1.2025221755595803,-5.5891636054902625,1.0797931965015553,-1.4802298116683108,-0.7289897113614933,-32.77756851469301
-1.258413811614483,-5.596453502603877,1.0649908983848722,-1.808005496815241,-0.29294259880739165,-31.634072008488445
-1.3143783466405217,-5.599382928591951,1.0469108434167198,-2.1243462169001255,0.28594334143527816,-30.33916911738725
-1.3703721759264411,-5.596523495177599,1.0256673812477186,-2.427737908073998,0.9851557896517127,-28.903322879566083
-1.4263374108782172,-5.586671937281082,1.0013900021669786,-2.7167711368696588,1.7806325329809918,-27.343555844218518
-1.482204130251028,-5.5688656119512725,0.974222290798282,-2.990206695311844,2.647813937126285,-25.681574674628074
-1.5378927863705407,-5.5423874725800095,0.9443202238451636,-3.2470224420581246,3.5627463951477827,-23.941771217398834
-1.5933166610963407,-5.5067600086285315,0.9118499994245823,-3.486440154232113,4.503092326897887,-22.14930171061622
-1.648384261182626,-5.461729085359552,0.8769855978822612,-3.707933171338275,5.448935376500153,-20.328418904124778
-1.7030015520362216,-5.407239731594551,0.8399062661688784,-3.9112173603795224,6.383314889292674,-18.5011786454391
-1.7570739493521672,-5.343406582701624,0.8007940925650832,-4.096229146833913,7.2924710686770275,-16.68657820173425
-1.8105080151791835,-5.270481872014853,0.759831801096744,-4.263094928851256,8.165822547051187,-14.900122662201678
-1.8632128338993321,-5.188823646544342,0.7172008518082315,-4.4120961554732725,8.995726128794347,-13.153768338883957
-1.9151010703647755,-5.0988663852563985,0.6730798902534987,-4.543633838862112,9.777082769183352,-11.456162736510398
-1.9660897342173396,-5.001095557564565,0.6276435518648775,-4.658195466227216,10.506856106369606,-9.813089042818058
-2.016100689792985,-4.8960269965008685,0.5810615972026054,-4.756326356655396,11.183563413333195,-8.228025645960436
-2.065060959757994,-4.784191362367537,0.5334983336360515,-4.838606613115001,11.806787393470419,-6.7027430686623735
-2.1129028733816693,-4.666123488432833,0.48511226750490144,-4.905634043801625,12.376743974211452,-5.237877272254519
-2.1595641082659975,-4.542356048690718,0.4360559270668852,-4.95801281652417,12.893928371961488,-3.833435918412335
-2.2049876687529046,-4.413416764971103,0.38647579890164346,-4.996347175708293,13.358850452719329,-2.489210560757996
-2.2491218364026158,-4.27982826044391,0.33651232714456053,-5.021239281315873,13.771861277417939,-1.2050816955514791
-2.291920119007055,-4.142109647669731,0.2862999343314018,-5.033290098271388,14.133065699383724,0.01878522566715717
-2.3333412154837525,-4.000778990675894,0.2359670333486879,-5.033102246014717,14.442310746206731,1.1818462100927027
-2.3733490053905113,-3.8563558832138263,0.18563601088854073,-5.021283783913789,14.699235995166172,2.2831747953379997
-2.4119125642226495,-3.7093635232621645,0.13542317304940282,-4.998452035960409,14.903370014135062,3.321530871392384
-2.449006199455271,-3.560329823120814,0.08543865268979872,-4.965236727246485,15.054256036880064,4.295482959087685
-2.4846094976864794,-3.4097872627520136,0.03578628541733387,-4.922281897655608,15.15159027414759,5.203563823687245
-2.5187073703139995,-3.2582713600105375,-0.013436533559222218,-4.870246259418736,15.195357540520007,6.044439880144157
-2.551290083914105,-3.1063177846053374,-0.06213899615340958,-4.809801860617295,15.185951077510982,6.817076668327043
-2.5823532617601583,-2.9544582738302276,-0.11023701475958253,-4.741631093934025,15.124266387563273,7.520885530995322
-2.6118978444984604,-2.803215609954595,-0.15765332569892276,-4.6664222386240715,15.011762303705028,8.155840235047805
-2.639930000598006,-2.653097986917545,-0.20431754808516348,-4.584863836273594,14.850486096508702,8.722556297365895
-2.6664609804671815,-2.5045931259524576,-0.2501661864478994,-4.497638273299935,14.643062839550995,9.22232984021972
-2.691506911726706,-2.3581624975569477,-0.29514256918089876,-4.405414974897738,14.392652221547293,9.657136551623248
-2.7150885367022757,-2.2142359753414746,-0.33919671892987613,-4.308843609381506,14.102878281545719,10.029594466518475
-2.7372308964556904,-2.0732071925260174,-0.3822851550236912,-4.208547664716321,13.777739023040555,10.342896613073496
-2.7579629683809506,-1.9354298022956118,-0.4243706316708544,-4.105118698585587,13.421503508870874,10.600720994703098
-2.7773172664039065,-1.801214767206903,-0.4654218186567103,-3.999111488638556,13.038603922623466,10.807125922831233
-2.7953294140759755,-1.6708287279806684,-0.5054129335430958,-3.8910402294102435,12.633529347976793,10.966438489294232
-2.812037701355782,-1.5444934345009005,-0.5443233358371983,-3.781375844517301,12.210726850783681,11.083143143422062
-2.827482635700791,-1.4223861659930637,-0.5821370942823713,-3.6705444130830807,11.774514045635991,11.161776118008769
-2.841706497360722,-1.3046410255367038,-0.618842538413202,-3.558926651902993,11.32900586868484,11.206830028824113
-2.854752907616089,-1.1913509668498554,-0.654431804932232,-3.4468583516147517,10.878056906411446,11.222671526494306
-2.8666664172845873,-1.082570397785741,-0.6889003884483795,-3.3346316363498087,10.42521944702318,11.213473540254803
-2.8774921212624447,-0.9783182033155092,-0.7222467048118776,-3.222496900947261,9.973716484038716,11.183162508366307
-2.8872753032956,-0.878581038475122,-0.7544716738213502,-3.1106652758635978,9.526428228362274,11.13538008562956
-2.8960611136803514,-0.7833167561914993,-0.7855783265799862,-2.999311475007302,9.085890263628169,11.073458164824977
-2.9038942812422666,-0.6924578535552176,-0.8155714413300592,-2.888576893359052,8.654301277685626,11.000405630364567
-2.9108188597778186,-0.6059148407783613,-0.8444572102636497,-2.7785728370554064,8.233538277969938,10.918905046762054
-2.916878008185602,-0.5235794579986619,-0.8722429386342038,-2.669383786587786,7.825177304315183,10.831317431349433
-2.9221138027655886,-0.44532768495551006,-0.8989367765000816,-2.5610706122742917,7.430517846114262,10.739693328059333
-2.9265670796151437,-0.3710225064943674,-0.9245474826228246,-2.4536736789936984,7.0506094140886875,10.64578854805171
-2.9302773046800876,-0.30051641235348053,-0.9490842194127616,-2.347215793513181,6.68627898021921,10.551083140079538
-2.9332824688036223,-0.2336536225512884,-0.9725563773478934,-2.2417049621123857,6.33815826026697,10.45680237208672
-2.9356190050291353,-0.17027203994861873,-0.9949734269690172,-2.1371369383915186,6.006710056563169,10.363938725735506
-2.9373217254286215,-0.11020493938298703,-1.0163447963529324,-2.0334975511341637,5.692253095169985,10.273274113670087
-2.9384237748224513,-0.05328240843128718,-1.036679771864274,-1.9307648099974628,5.3949849766699876,10.185401716828999
-2.9389565989067643,0.0006674413354126954,-1.0559874199642485,-1.8289107928291728,5.115003012768908,10.100747001603168
-2.9389499244934103,0.05181747146310178,-1.0742765278925401,-1.727903322813141,4.852322843011528,10.019587612707053
-2.938431749778779,0.10034069989321706,-1.0915555611206715,-1.6277074466860706,4.606894820083897,9.942071947989561
-2.937428342779847,0.14640964809405604,-1.1078326355875323,-1.5282867272061749,4.378618222026119,9.868236308088198
-2.9359642462989064,0.19019583031431725,-1.123115502859594,-1.429604364125293,4.167353399068144,9.798020579591427
-2.934062287995763,0.2318693643049987,-1.137411546500847,-1.3316241583293786,3.9729319954818454,9.731282458293018
-2.9317435943527133,0.27159868425981715,-1.1507277880841407,-1.2343113337464484,3.7951654062585924,9.66781025228005
-2.929027607510115,0.3095503383224031,-1.1630709014216052,-1.137633231223648,3.633851637591209,9.607334325895343
-2.925932104126891,0.3458888546983152,-1.1744472337338416,-1.0415598879646946,3.4887807416187444,9.549537257669764
-2.922473215579908,0.3807766621145027,-1.1848628326134887,-0.946064515387997,3.3597389917827067,9.494062790405104
-2.918665448958763,0.41437405203232974,-1.1943234777673686,-0.851123887483946,3.2465119571266916,9.440523651630125
-2.9145217084384396,0.44683917160359665,-1.202834716642208,-0.7567186509676447,3.1488866232625474,9.38850831924086
-2.910053316722404,0.47832803783622213,-1.2104019031518845,-0.662833567775236,3.0666526955305726,9.337586801553336
-2.905270036344042,0.5089945647915278,-1.2170302388296368,-0.5694576997597027,2.999603206850272,9.28731549425268
-2.9001800906961264,0.5389905968600306,-1.222724815827234,-0.47658454481717594,2.947534539442931,9.23724116959178
-2.894790184727526,0.5684659422544599,-1.2274906612754057,-0.3842121331212581,2.9102459564038137,9.186904146252987
-2.8891055253049815,0.597568401818498,-1.2313327826066183,-0.29234309165872824,2.8875387262908516,9.135840681950842
-2.8831298412867965,0.6264437890814065,-1.2342562135232056,-0.20098468483921983,2.879214911675453,9.083584625404871
