th1 (rad),w1 (rad/s),th2 (rad),w2 (rad/s),a1 (rad/s^2),a2 (rad/s^2)
3.470259735494149,-0.9491088923772228,1.4858829602241288,3.026783424743753,-3.076072013762107,-10.17607631515971
3.460768646570377,-0.979869612514844,1.5161507944715664,2.925022661592156,-2.7116465690338964,-9.881763449515695
3.4509699504452285,-1.006986078205183,1.545401021087488,2.826205027096999,-2.3681258188691987,-9.61717058821076
3.4409000896631765,-1.030667336393875,1.573663071358458,2.7300333212148917,-2.0446054957337023,-9.381284667271078
3.4305934162992378,-1.051113391351212,1.600963404570607,2.636220474542181,-1.7400466251023443,-9.172875458685636
3.4200822823857258,-1.0685138576022355,1.6273256093160287,2.5444917199553245,-1.453348876717468,-8.990576610831473
3.4093971438097035,-1.0830473463694101,1.6527705265155819,2.4545859538470096,-1.1834040178092813,-8.832943985339368
3.3985666703460096,-1.0948813865475029,1.6773163860540519,2.366256513993616,-0.9291341339443708,-8.698496729861155
3.3876178564805346,-1.1041727278869466,1.7009789511939881,2.2792715466950044,-0.6895182800794277,-8.585745389098117
3.376576129201665,-1.111067910687741,1.7237716666609382,2.1934140928040233,-0.46361039964282635,-8.493210425796454
3.3654654500947876,-1.1157040146841692,1.7457058075889784,2.1084819885460586,-0.2505506854138128,-8.419433775846851
3.354308409947946,-1.1182095215383074,1.766790627474439,2.02428765078759,-0.04957203005981279,-8.362985468914239
3.343126314732563,-1.1187052418389056,1.7870335039823149,1.940657796098448,0.13999719648037354,-8.322466880052852
3.3319392623141737,-1.117305269874102,1.8064400819432993,1.8574331272979194,0.3187331220170898,-8.296511812961041
3.320766209615433,-1.114117938653931,1.8250144132162784,1.774468009168309,0.4871184191813225,-8.283786329863227
3.3096250302288936,-1.1092467544621178,1.8427590933079616,1.6916301458696767,0.64554592379171,-8.282988018168325
3.2985325626842723,-1.1027912952242007,1.8596753947666584,1.6088002656879934,0.7943234550759539,-8.29284520528172
3.28750464973203,-1.0948480606734412,1.8757633974235384,1.525871813635176,0.9336795615299256,-8.312116488663168
3.276556169125296,-1.085511265058142,1.89102211555989,1.4427506487485444,1.063769979643366,-8.339590829629161
3.265701056474714,-1.0748735652617083,1.9054496220473756,1.3593547404522528,1.1846846332313166,-8.374088360085196
3.254952320822097,-1.0630267189293952,1.9190431694518981,1.2756138568514008,1.2964550244152506,-8.414461966946655
3.244322053632803,-1.0500621686852427,1.931799308020412,1.1914692371819342,1.3990618782894388,-8.459599646740998
3.2338214319459504,-1.0360715499023483,1.9437140003922315,1.1068732407145243,1.4924429062340951,-8.508427561391716
3.223460716446927,-1.0211471208400074,1.9547827327993768,1.0217889651006071,1.576500551413607,-8.559913675088595
3.2132492452385266,-1.0053821153258713,1.9650006224503829,0.9361898283497212,1.6511095774540547,-8.613071811757521
3.203195424085268,-0.9888710195513307,1.9743625207338802,0.850059110232146,1.7161243603550538,-8.666965943622785
3.1933067138897546,-0.9717097759477802,1.9828631118362017,0.7633894507959181,1.7713857465283365,-8.720714504417408
3.183589616130277,-0.9539959184824969,1.990497006344161,0.6761823057517441,1.8167273480178339,-8.77349451641178
3.174049656945452,-0.9358286450023185,1.9972588294016784,0.5884473605876263,1.8519811603051255,-8.824545328584438
3.164691370495429,-0.9173088333992673,2.0031433030075547,0.5002019073017818,1.8769824087797369,-8.87317178328381
3.1555182821614363,-0.8985390093114699,2.0081453220805727,0.4114701894689437,1.891573556381131,-8.918746659218321
3.1465328920683215,-0.8796232737476586,2.012260023975262,0.3222827228767605,1.8956074358730732,-8.960712277427232
3.137736659330845,-0.8606671993889279,2.01548285120403,0.2326756001024882,1.8889495039344077,-8.998581201264862
3.1291299873369556,-0.8417777043495838,2.017809607205055,0.14268978808983956,1.8714792486262863,-9.031936008182706
3.1207122102934597,-0.8230629118633209,2.0192365050859533,0.052370428008012504,1.843090814552102,-9.060428156842828
3.1124815811748263,-0.8046320037177999,2.0197602093660336,-0.03823385356041578,1.8036929389557752,-9.083776014570471
3.1044352611376484,-0.7865950743282422,2.0193778708304295,-0.1290716137061205,1.7532083151762508,-9.101762144466644
3.096569310394366,-0.7690629911764797,2.0180871546933683,-0.22008923515078693,1.6915725158171355,-9.114229976393343
3.088878680482601,-0.7521472660183084,2.0158862623418603,-0.31123153491472033,1.6187326158133355,-9.12108000006554
3.081357207822418,-0.735959939860175,2.0127739469927133,-0.40244233491537573,1.5346456550497467,-9.12226562109456
3.0739976084238165,-0.7206134833096776,2.0087495236435595,-0.49366499112632134,1.4392770717386147,-9.117788812406685
3.06679147359072,-0.7062207125922915,2.003812873732296,-0.5848428792503881,1.332599222421068,-9.107695675232726
3.059729266464797,-0.6928947203680808,1.9979644449397924,-0.6759198360027154,1.2145900837468249,-9.092071997754816
3.052800319261116,-0.6807488195306125,1.9912052465797652,-0.7668405559802636,1.0852322069731144,-9.071038867930593
3.04599283106581,-0.6698964974608813,1.9835368410199625,-0.8575509446595695,0.9445119704605941,-9.044748362694484
3.0392938660912012,-0.6604513777562754,1.9749613315733667,-0.9479984282865144,0.7924191503937709,-9.013379301401352
3.0326893523136387,-0.6525271862523376,1.9654813472905015,-1.038132221300528,0.628946807433905,-8.977133019593385
3.026164080451115,-0.6462377181779986,1.9551000250774961,-1.1279035514964617,0.4540914686591388,-8.936229092133818
3.019701703269335,-0.6416968034914072,1.9438209895625316,-1.2172658424177998,0.2678535712077414,-8.890900914147469
3.013284735234421,-0.6390182677793298,1.9316483311383537,-1.3061748515592744,0.07023812730623764,-8.841391035121466
3.0068945525566275,-0.6383158865062675,1.9185865826227608,-1.394588761910489,-0.13874442986424143,-8.787946136391042
3.000511393691565,-0.6397033308049099,1.9046406950036558,-1.4824682232743995,-0.3590772539180146,-8.730811544877893
2.994114360383516,-0.6432941033440901,1.8898160127709118,-1.5697763387231785,-0.5907359693048304,-8.67022518561356
2.9876814193500754,-0.6492014630371384,1.87411824938368,-1.656478590579314,-0.8336874378545429,-8.60641089106142
2.981189404719704,-0.6575383374156839,1.857553463477887,-1.7425426994899282,-1.0878883942063426,-8.539571005024849
2.9746140213455474,-0.6684172213577473,1.8401280364829877,-1.8279384095401767,-1.3532839147792195,-8.469878241315008
2.96792984913197,-0.6819500605055395,1.8218486523875859,-1.9126371919533267,-1.6298056628964515,-8.397466780674755
2.9611103485269146,-0.6982481171345041,1.8027222804680525,-1.9966118597600742,-1.9173698318554946,-8.32242261220878
2.9541278673555693,-0.717421815453059,1.7827561618704517,-2.079836085882162,-2.215874689567078,-8.244773146552589
2.946953649201039,-0.7395805623487298,1.7619578010116301,-2.162283817347688,-2.5251976141250383,-8.16447614643759
2.9395578435775516,-0.7648325384899802,1.7403349628381533,-2.243928578812064,-2.845191500343538,-8.081408035874505
2.9319095181926516,-0.7932844534934156,1.7178956770500327,-2.324742659170809,-3.1756804137113104,-7.995351662093012
2.9239766736577173,-0.8250412576305287,1.6946482504583245,-2.4046961757917393,-3.5164543709498575,-7.9059835953513575
2.915726261081412,-0.8602058013400273,1.6706012887004071,-2.483756011745253,-3.8672631358356666,-7.812861061920488
2.907124203068012,-0.898878432698384,1.6457637285829545,-2.561884622364458,-4.227808935449772,-7.715408616469213
2.898135418741028,-0.9411565220528817,1.6201448823593099,-2.63903870852915,-4.597738025792845,-7.612904673498647
2.8887238535204993,-0.9871339023108101,1.5937544952740184,-2.7151677552641362,-4.976631067001118,-7.504468035292286
2.878852514497391,-1.0369002129808214,1.5666028177213769,-2.7902124356170592,-5.363992307528375,-7.3890445779532
2.868483512367583,-1.0905401360561051,1.5387006933652063,-2.864102881396591,-5.759237624019917,-7.265394289239221
2.857578111007022,-1.1481325122963042,1.5100596645512403,-2.936756824288983,-6.161681519680181,-7.132078893543195
2.846096785884059,-1.209749327493106,1.4806920963083505,-3.0080776132244154,-6.57052324925823,-6.987450351534163
2.833999292609128,-1.2754545599856881,1.4506113201761064,-3.0779521167397568,-6.984832313846358,-6.829640585135977
2.821244747009271,-1.3453028831241518,1.4198317990087088,-3.1462485225911165,-7.403533653855859,-6.656552852398966
2.8077917181780294,-1.4193382196627105,1.3883693137827977,-3.212814051115106,-7.82539296383545,-6.465855280243004
2.7935983359814025,-1.4975921493010649,1.3562411732716466,-3.2774726039175364,-8.249002657752639,-6.254977153760311
2.778622414488392,-1.5800821758785912,1.3234664472324713,-3.3400223754551397,-8.6727691267419,-6.02110865523999
2.762821592729606,-1.6668098671460103,1.2900662234779199,-3.4002334620075394,-9.094902050922506,-5.761204839337736
2.746153494058146,-1.7577588876552355,1.2560638888578446,-3.457845510400917,-9.513406649256003,-5.471994716271173
2.728575905181594,-1.8528929541477954,1.2214854337538354,-3.5125654575636287,-9.926079871653602,-5.1499963842464025
2.710046975640116,-1.9521537528643313,1.1863597791781992,-3.5640654214060925,-10.330511649159066,-4.791539195407018
2.6905254381114725,-2.055458869355922,1.1507191249641384,-3.6119808133601627,-10.724092412863534,-4.39279394462315
2.669970849417913,-2.1626997934845575,1.1145993168305368,-3.6559087528063943,-11.104028160514474,-3.9498120240915044
2.6483438514830673,-2.273740075089702,1.078040229302473,-3.6954068730473093,-11.467364380495205,-3.458574374588766
2.62560645073217,-2.3884137188946544,1.0410861605719999,-3.729992616793197,-11.81102012404543,-2.9150508714129324
2.6017223135432235,-2.5065239201351086,1.003786234404068,-3.7591431255073267,-12.131833436164746,-2.3152704949915983
2.576657074341872,-2.627842254496756,0.9661948031489948,-3.7822958304572425,-12.42661920222198,-1.655402239610818
2.5503786517969047,-2.752108446518976,0.9283718448444224,-3.7988498528533508,-12.692240231352475,-0.9318461980261239
2.522857567331715,-2.8790308488325005,0.8903833463158889,-3.808168314833612,-12.92569207281104,-0.1413336179808441
2.49406725884339,-3.008287769560611,0.8523016631675527,-3.80958165101342,-13.12420164550556,0.7189660428309153
2.463984381147784,-3.1395297860156663,0.8142058466574186,-3.802391990585111,-13.2853392576395,1.651333929216564
2.432589083287627,-3.272383178592061,0.7761819267515675,-3.785878651292945,-13.40714301345511,2.657390336734467
2.3998652515017067,-3.4064546087266123,0.7383231402386381,-3.7593047479256003,-13.488253966549554,3.737987954587247
2.3658007054144408,-3.541337148392108,0.7007300927593821,-3.7219248683797277,-13.528059712906147,4.893115907274716
2.3303873339305197,-3.6766177455211695,0.6635108440755848,-3.6729937093069807,-13.526843461687065,6.121821853419049
2.293621156475308,-3.81188618013804,0.626780906982515,-3.61177549077279,-13.485935031123992,7.422160503441053
2.255502294673928,-3.94674553044928,0.590663152074787,-3.5375538857383795,-13.407859758849185,8.791177894521706
2.216034839369435,-4.080824128037772,0.5552876132174033,-3.4496421067931626,-13.296481076210279,10.224941520924016
2.1752265980890573,-4.213788938799875,0.5207911921494717,-3.3473926915839223,-13.157132578235013,11.718626857755707
2.1330887087010586,-4.345360264582226,0.48731726523363245,-3.2302064230063654,-12.996735945837012,13.2666708301214
2.0896351060552365,-4.475327624040596,0.4550152010035688,-3.0975397147051513,-12.823902177545923,14.863002271223042
2.0448818298148304,-4.603566645816056,0.4240398038565173,-2.9489096919929207,-12.649015398465117,16.501358317877983
1.9988461633566699,-4.730056799800707,0.3945507069365881,-2.7838961088141407,-12.484301150242926,18.175694003439006
1.951545595358663,-4.854899811303136,0.3667117458484467,-2.602139168779751,-12.343884596970549,19.880690101167776
1.9029965972456315,-4.978338657272841,0.3406903541606492,-2.4033322677680733,-12.243848491130278,21.612361709821833
1.8532132106729031,-5.100777142184144,0.3166570314829685,-2.187208650669855,-12.202305872457814,23.368767377001397
1.8022054392510616,-5.222800200908723,0.29478494497626995,-1.953520976899841,-12.239507937437544,25.150815883176158
1.7499774372419743,-5.345195280283098,0.27524973520727153,-1.7020128180680794,-12.378012565207014,26.963164989891887
1.6965254844391433,-5.4689754059351685,0.25822960702659076,-1.4323811681691605,-12.642942209411958,28.815202446236587
1.6418357303797917,-5.595404828029288,0.24390579534489915,-1.1442291437067946,-13.062358603542698,30.72209137179221
1.5858816820994988,-5.726028414064715,0.2324635039078312,-0.8370082299888726,-13.667770782730546,32.705842813834096
1.5286213979588517,-5.862706121892021,0.22409342160794246,-0.5099498018505316,-14.494761838025418,34.796332724557104
1.4699943367399315,-6.007653740272275,0.21899392358943714,-0.16198647460496057,-15.583647109062094,37.03207731083906
1.4099177993372087,-6.1634902113628955,0.21737405884338754,0.20833429850343,-16.97991763663287,39.460354703572364
1.3482828972235799,-6.3332893877292245,0.21945740182842183,0.6029378455391536,-18.733885086779367,42.13577882494873
1.2849500033462875,-6.520628238597018,0.22548678028381336,1.024295633788641,-20.898237065773497,45.11542121937992
1.2197437209603172,-6.729610609254753,0.23572973662169977,1.4754498459824403,-23.520748801331262,48.44649387377163
1.1524476148677698,-6.964818097268066,0.2504842350815242,1.9599147847201566,-26.62643609243306,52.138411692525004
1.0827994338950893,-7.231082458192397,0.27008338292872575,2.4812989016454066,-30.177711900255996,56.10299746789537
1.0104886093131653,-7.532859577194957,0.2948963719451798,3.04232887632436,-33.99118663332537,60.03274014324133
0.9351600135412157,-7.872771443528211,0.32531966070842344,3.6426562777567733,-37.57721722344502,63.16985131448467
0.8564322991059335,-8.24854361576266,0.36174622348599117,4.27435479090162,-39.87175653268113,63.925174868300765
0.773946862948307,-8.64726118108947,0.40448977139500736,4.913606539584628,-38.925672061611294,59.44430426697184
0.6874742511374122,-9.036517901705583,0.45362583679085366,5.508049582254347,-31.980277714721492,45.73738367946682
0.5971090721203564,-9.356320678852798,0.5087063326133971,5.9654234190490145,-16.973857706010524,19.86327172624611
0.5035458653318283,-9.526059255912903,0.5683605668038872,6.164056136311475,4.115002190090063,-15.258767418226283
0.40828527277269927,-9.484909234012003,0.630001128167002,6.011468462129213,23.93865301878963,-48.90961595899193
0.31343618043257926,-9.245522703824106,0.6901158127882941,5.522372302539294,35.42141055413949,-70.61940949652528
0.2209809533943382,-8.891308598282711,0.7453395358136871,4.816178207574041,37.84609099805825,-78.98755051024278
0.1320678674115111,-8.512847688302129,0.7935013178894275,4.026302702471614,34.86192787058466,-79.00927889386188
0.04693939052848982,-8.164228409596282,0.8337643449141436,3.2362099135329947,29.936507841798,-75.59379324434875
-0.034702893567473,-7.864863331178302,0.8661264440494736,2.480271981089507,24.92898071356083,-71.4311918445781
-0.11335152687925602,-7.615573524042694,0.8909291638603687,1.765960062643726,20.56270013914796,-67.59338628858586
-0.18950726211968297,-7.4099465226512145,0.9085887644868059,1.0900261997578673,17.028054633847443,-64.36766809887799
-0.2636067273461951,-7.2396659763127404,0.9194890264843846,0.44634951876908746,14.314263240755164,-61.72825248791551
-0.33600338710932254,-7.096523343905189,0.9239525216720754,-0.17093300611006768,12.351357813274197,-59.545276972534815
-0.40696862054837446,-6.9730097657724475,0.9222431916109748,-0.7663857758354158,11.06250070859938,-57.66766526433187
-0.47669871820609894,-6.862384758686454,0.9145793338526206,-1.3430624284787345,10.37953181114509,-55.95346494627239
-0.5453225657929635,-6.758589440575003,0.9011487095678332,-1.9025970779414583,10.244661484829683,-54.27995141647103
-0.6129084601987135,-6.656142825726706,0.8821227387884186,-2.4453965921061687,10.607537567548976,-52.546528414461996
-0.6794698884559806,-6.550067450051216,0.857668772867357,-2.9708618762507886,11.421288077871496,-50.675357256272456
-0.7449705629564927,-6.435854569272501,0.8279601541048491,-3.477615448813513,12.638924727397894,-48.611374615743834
-0.8093291086492177,-6.309465321998522,0.793183999616714,-3.9637291949709517,14.210632673261124,-46.322080135347406
-0.8724237618692029,-6.167358995265912,0.7535467076670045,-4.426949996324426,16.082131497546563,-43.797018783786584
-0.934097351821862,-6.006537680290446,0.7092772077037602,-4.864920184162292,18.194141414395833,-41.04677098090157
-0.9941627286247665,-5.824596266146488,0.6606280058621373,-5.275387893971308,20.482902638121836,-38.10129621940087
-1.0524086912862314,-5.619767239765269,0.6078741269224243,-5.656400856165317,22.881631478293354,-35.00756441991912
-1.108606363683884,-5.390950924982336,0.5513101183607712,-6.006476500364508,25.322741671393086,-31.826511447031304
-1.1625158729337075,-5.137723508268405,0.49124535335712605,-6.324741614834821,27.740612085545333,-28.629450897047928
-1.2138931080163915,-4.860317387412952,0.4279979372087778,-6.6110361238053,30.074644518681545,-25.49415424408554
-1.262496281890521,-4.559570942226136,0.36188757597072485,-6.865977666246155,32.27233256737449,-22.50087096882511
-1.3080919913127824,-4.236847616552391,0.2932277993082633,-7.090986375934406,34.292061187744444,-19.728594899255835
-1.3504604674783063,-3.893927004674947,0.22231793554891927,-7.2882723249269645,36.105383482136894,-17.251886959386876
-1.3893997375250557,-3.532873169853578,0.14943521229964962,-7.460791194520834,37.69857985105971,-15.138532511952727
-1.4247284692235915,-3.1558873713429807,0.07482730035444128,-7.612176519640361,39.07339087537724,-13.44824174504984
-1.4562873429370213,-2.7651534625892085,-0.0012944648419623284,-7.746658937090859,40.24691514429542,-12.232498067459089
-1.4839388775629134,-2.3626843111462543,-0.07876105421287093,-7.86898391776545,41.250753117549706,-11.53553019391123
-1.507565720674376,-1.9501767799707572,-0.15745089339052543,-7.984339219704562,42.12952676140376,-11.396233054684915
-1.5270674884740836,-1.5288815123567197,-0.23729428558757104,-8.098301550251412,42.93887326213945,-11.85067809758559
-1.5423563035976509,-1.099492779735325,-0.3182773010900852,-8.216808331227268,43.742845431834674,-12.93458263949926
-1.5533512313950042,-0.6620643254169783,-0.4004453844023579,-8.34615415762226,44.61025879746145,-14.684621635454084
-1.559971874649174,-0.21596173744236385,-0.4839069259785805,-8.493000373976802,45.608725006727454,-17.136491012915076
-1.5621314920235976,0.24012551262491072,-0.5688369297183485,-8.664365284105953,46.793545040680016,-20.31563428553586
-1.5597302368973485,0.708060963031711,-0.6554805825594081,-8.867521626961311,48.18564289098539,-24.212549405200452
-1.5526496272670314,1.1899173919415649,-0.7441557988290213,-9.109647121013316,49.72729762464455,-28.727111644454148
-1.5407504533476157,1.6871903681880105,-0.8352522700391545,-9.396918237457857,51.19594595229963,-33.55430630716489
-1.5238785496657357,2.1991498277110066,-0.929221452413733,-9.732461300529506,52.048572252834695,-37.972028988038836
-1.5018870513886255,2.719635550239354,-1.0265460654190282,-10.112181590409895,51.185238142255855,-40.51152958845808
-1.474690695886232,3.2314879316619125,-1.1276678813231271,-10.517296886294476,46.737263705509896,-38.64925906260002
-1.442375816569613,3.6988605687170115,-1.232840850186072,-10.903789476920476,36.33687075876353,-29.142279053349434
-1.4053872108824428,4.062229276304647,-1.3418787449552767,-11.19521226745397,18.731455636326306,-10.196643640408752
-1.3647649181193964,4.24954383266791,-1.4538308676298164,-11.297178703858057,-3.4338684770547947,14.75958008363083
-1.3222694797927173,4.215205147897362,-1.5668026546683969,-11.149582903021749,-23.40884394927883,36.8140456664849
-1.2801174283137435,3.9811167084045738,-1.6782984836986143,-10.7814424463569,-35.58852628397437,48.69322509574264
