th1 (rad),w1 (rad/s),th2 (rad),w2 (rad/s),a1 (rad/s^2),a2 (rad/s^2)
3.162008965966956,1.9313529731687125,1.643139067149347,1.2313713788791143,-0.4006015612017345,-6.028478138400157
3.1813224956986432,1.927346957556695,1.6554527809381383,1.1710865974951128,-0.15999452541558615,-6.046800385723037
3.20059596527421,1.925747012302539,1.6671636469130895,1.1106185936378825,0.07461669254581194,-6.051404704509131
3.2198534353972357,1.9264931792279971,1.6782698328494683,1.0501045465927912,0.3032951917264166,-6.04252308939102
3.2391183671895156,1.9295261311452614,1.6887708783153963,0.989679315698881,0.5261577173620284,-6.020346743750721
3.258413628500968,1.9347877083188816,1.6986676714723852,0.9294758482613737,0.7433747643831786,-5.985028290775993
3.277761505584157,1.9422214559627133,1.707962429954999,0.8696255653536138,0.9551707286700465,-5.936683445458776
3.297183720143784,1.9517731632494137,1.716658685608535,0.810258730899026,1.161824111589715,-5.875392074977849
3.3167014517762783,1.963391404365311,1.7247612729175252,0.7515048101492475,1.3636677814153713,-5.801198585081008
3.3363353658199313,1.9770280821794646,1.7322763210190177,0.6934928242984375,1.5610892946437065,-5.714111580629461
3.356105646641726,1.9926389751259017,1.7392112492620022,0.6363517084921428,1.7545312806944768,-5.6141027594331465
3.376032036392985,2.0101842879328466,1.7455747663469237,0.5802106808978114,1.9444918946465513,-5.501105009951136
3.3961338792723135,2.0296292068793123,1.7513768731559018,0.5251996307983,2.131525344134108,-5.375009695449765
3.4164301713411067,2.0509444603206535,1.7566288694638847,0.47144953384380234,2.31624249783059,-5.235663119946248
3.436939615944313,2.0741068852989595,1.7613433648023227,0.41909290264433985,2.4993115835565174,-5.08286218494133
3.4576806847973027,2.0991000011345244,1.7655342938287661,0.36826428079492657,2.6814589833573703,-4.916349260900537
3.478671684808648,2.1259145909680983,1.7692169366367154,0.3191007881859212,2.8634701302238272,-4.735806314179017
3.499930830718329,2.1545492922703366,1.7724079445185745,0.271742725044131,3.046190505687915,-4.5408483493099485
3.521476323641032,2.1850111973272157,1.7751253717690159,0.22633424155103152,3.230526728430329,-4.331016249271514
3.543326435614304,2.217316464611519,1.7773887141845262,0.18302407905831639,3.417447710245697,-4.105769123828154
3.5654996002604196,2.2514909417139757,1.7792189549751094,0.14196638782003485,3.6079858360369754,-3.8644763100320754
3.5880145096775595,2.2875708000743455,1.7806386188533097,0.1033216247197141,3.803238097550855,-3.606409211678502
3.610890217678303,2.3256031810498543,1.7816718351005068,0.06725753260292908,4.004367074687484,-3.3307332187037373
3.6341462494888015,2.365646851796729,1.782344410426536,0.0339502004158917,4.212601611508385,-3.0365000166081457
3.657802718006769,2.407772867911813,1.782683912430695,0.0035852002498102456,4.4292369743060895,-2.722640684088534
3.681880446685887,2.452065237654874,1.7827197644331931,-0.023641206591075097,4.655634203746631,-2.3879600890285864
3.7064010990624356,2.4986215796923403,1.7824833523672823,-0.04752080748136096,4.893218279308277,-2.031133234403531
3.7313873148593593,2.547553762485423,1.7820081442924687,-0.06783213982539626,5.143474598951946,-1.6507043827192687
3.7568628524842134,2.5989885084749424,1.7813298228942147,-0.08433918365258895,5.407943137055434,-1.2450900069375297
3.782852737568963,2.6530679398454966,1.780486431057689,-0.09679008372196425,5.688209476275415,-0.8125868839925593
3.809383416967418,2.7099500346082506,1.7795185302204692,-0.10491595256188985,5.985891712105597,-0.3513869697115008
3.8364829173135004,2.7698089517293067,1.7784693706948504,-0.10842982225900485,6.302622002014467,0.1403989251222658
3.8641810068307936,2.8328351717494513,1.7773850724722604,-0.10702583300778219,6.640021276512679,0.6647061989442288
3.892509358548288,2.899235384514578,1.7763148141421825,-0.1003787710183399,6.999665354171391,1.2234673153019557
3.9215017123934337,2.9692320380562918,1.7753110264319991,-0.08814409786532035,7.383040420170214,1.818544978408005
3.9511940327739965,3.0430624422579937,1.7744295854533458,-0.0699586480812403,7.791485561903429,2.451643632011186
3.9816246571965763,3.120977297877028,1.7737299989725335,-0.04544221176112845,8.226119842493198,3.1241948149828493
4.012834430175347,3.20323849630196,1.7732755768549222,-0.014200263611299953,8.687751288265806,3.8372115748921924
4.044866815138366,3.2901160091846178,1.7731335742188092,0.02417185213762197,9.176765245342644,4.59110706823164
4.077767975230213,3.381883661638044,1.7733752927401853,0.07008292281993837,9.692989923708646,5.385472828291001
4.1115868118465935,3.4788135608751305,1.7740761219683847,0.12393765110284838,10.235537718663759,6.2188131715630295
4.146374947455345,3.581168938061768,1.7753154984794133,0.1861257828184787,10.80262222176302,7.088234095920984
4.182186636835962,3.6891951602793984,1.777176756307598,0.25700812377768856,11.391352851599187,7.9890880773441175
4.219078588438756,3.8031086887953904,1.7797468375453749,0.33689900455112975,11.997511869351023,8.914580659793385
4.25710967532671,3.9230838074889007,1.7831158275908863,0.4260448111490636,12.61532224539446,9.855350835403433
4.296340513401599,4.049237029942845,1.787376275702377,0.524598319503098,13.237219330383663,10.799044928717722
4.336832883701028,4.1816092232466815,1.792622258897408,0.6325887687902751,13.853644270915453,11.729912721836916
4.378648975933495,4.320145665955836,1.7989481465853105,0.7498878960086444,14.452882034977138,12.628464139748123
4.421850432593053,4.464674486305608,1.806447025545397,0.8761725374061256,15.020970901459687,13.471233668938265
4.466497177456109,4.614884195320204,1.8152087509194583,1.0108848740955083,15.541712168657442,14.23070597505937
4.512646019409311,4.770301317006779,1.8253175996604134,1.153191933846102,15.996807373013091,14.875457709646867
4.560349032579379,4.9302693907369095,1.8368495189988745,1.3019465109425707,16.366144388700675,15.370565081316304
4.609651726486748,5.093930834623916,1.8498689841083003,1.4556521617557339,16.628242938632468,15.67831294350758
4.660591034832986,5.260213264010241,1.8644255057258576,1.6124352911908097,16.76085495687041,15.759218964929019
4.713193167473089,5.427821813578944,1.8805498586377658,1.7700274808401,16.74169807719505,15.573358184511578
4.767471385608879,5.5952387943508946,1.8982501334461668,1.9257610626852157,16.54928497599016,15.081943689092977
4.8234237735523875,5.7607316441107965,1.9175077440730188,2.0765804995761457,16.163802005183733,14.249094974368477
4.881031089993495,5.922369664162634,1.9382735490687804,2.2190714493198302,15.567991863778571,13.043713716477844
4.940254786635122,6.0780495828004195,1.9604642635619787,2.3495085864846086,14.748009361481937,11.441391937209753
5.001035282463126,6.225529676415239,1.9839593494268248,2.463922505856706,13.694245394017706,9.42629973062407
5.063290579227278,6.362472130355417,2.008598574485392,2.558185503162947,12.402146217864717,6.993031853872467
5.1269153005308326,6.486493592534064,2.034180429517021,2.6281158217016714,10.873082640830456,4.148420583150616
5.191780236456173,6.595224418942369,2.060461587734038,2.6696000275331775,9.115333505241214,0.9133274081080663
5.257732480645597,6.686377753994781,2.0871575880093696,2.6787333016142583,7.145226233635432,-2.675610969396409
5.324596258185545,6.757830016331135,2.1139449210255123,2.6519771919202944,4.988414071747843,-6.564399646506391
5.392174558348856,6.807714157048613,2.140464692944715,2.5863331954552304,2.681162882454466,-10.680530829471035
5.460251699919342,6.834525785873158,2.1663280248992676,2.47952788716052,0.27138125912956346,-14.93270304562819
5.528596957778073,6.837239598464453,2.1911233037708726,2.3302008567042383,-2.1810134912855355,-19.212020457385304
5.596969353762717,6.815429463551598,2.214425312337915,2.1380806521303852,-4.604892839491146,-23.395338022200793
5.665123648398233,6.769380535156687,2.2358061188592186,1.9041272719083773,-6.9203531181541935,-27.351280800828462
5.7328174537498,6.700177003975145,2.2548473915783025,1.6306144639000926,-9.04306342239179,-30.949057468197566
5.799819223789552,6.609746369751226,2.2711535362173034,1.321123889218117,-10.890399027438846,-34.06951349658926
5.865916687487064,6.500842379476838,2.2843647751094847,0.9804287542522243,-12.388698607556819,-36.61706396967642
5.930925111281833,6.3769553934012695,2.294169062652007,0.6142581145554601,-13.48047153526169,-38.5304813245117
5.994694665215846,6.242150678048652,2.3003116437975613,0.22895330131034308,-14.130110529685684,-39.79031534584625
6.0571161719963325,6.1008495727517955,2.302601176810665,-0.16894985214811947,-14.326811507524445,-40.42120850663477
6.11812466772385,5.957581457676551,2.3009116782891836,-0.5731619372144672,-14.083988523122438,-40.48848715714446
6.177700482300616,5.816741572445327,2.295180058917039,-0.9780468087859118,-13.435316177731542,-40.08980100272706
6.235867898025069,5.682388410668012,2.2853995908291798,-1.3789448188131823,-12.428321895779202,-39.343737798921474
6.292691782131749,5.55810519171022,2.2716101426410478,-1.772382196802397,-11.116899634788954,-38.37785093635824
6.348272834048851,5.446936195362331,2.2538863206730237,-2.1561607061659793,-9.554107616013642,-37.31830354372631
6.402742196002475,5.351395119202194,2.232324713611364,-2.5293437416032423,-7.786231566311848,-36.28256879103534
6.456256147194496,5.273532803539076,2.2070312761953317,-2.892169429513596,-5.84855061800624,-35.37570266286016
6.508991475229887,5.215047297359013,2.1781095819001957,-3.245926456142197,-3.7627442868160146,-34.689947370702725
6.561141948203478,5.177419854490853,2.1456503173387738,-3.5928259298492247,-1.5355505420215616,-34.30699064379623
6.612916146748386,5.162064349070637,2.1097220580402816,-3.935895836287187,0.8418460945472398,-34.30208867621367
6.664536790239093,5.17048281001611,2.07036309967741,-4.278916723049324,3.3941835942951344,-34.74934206444562
6.716241618339254,5.204424645959062,2.0275739324469164,-4.62641014369378,6.162572710209903,-35.72753360954957
6.768285864798845,5.2660503730611605,1.9813098310099786,-4.983685479789276,9.205043335837875,-37.32590212288977
6.820946368529456,5.3581008064195395,1.931472976212086,-5.356944501018174,12.596606823982547,-39.64874760381624
6.874527376593651,5.484066874659365,1.8779035312019041,-5.753431977056336,16.426977987568247,-42.81625771383694
6.929368045340245,5.648336654535047,1.8203692114313408,-6.181594554194706,20.791186667763842,-46.95508824412368
6.985851411885595,5.856248521212685,1.7585532658893936,-6.651145436635942,25.7615674838204,-52.16298796877418
7.044413897097722,6.11386419605089,1.6920418115230342,-7.172775316323684,31.314384707982754,-58.41062285058692
7.105552539058231,6.4270080431307175,1.6203140583597975,-7.756881544829554,37.15254853495715,-65.29935449918955
7.169822619489539,6.798533528480289,1.5427452429115018,-8.40987508982145,42.31356827022507,-71.52022323254883
7.2378079547743415,7.221669211182539,1.4586464920132873,-9.125077322146938,44.436551045192445,-73.83634147673982
7.310024646886167,7.666034721634464,1.367395718791818,-9.863440736914336,38.929575439302575,-65.92100751573224
7.386684994102512,8.055330476027489,1.2687613114226746,-10.522650812071658,19.93567866885231,-39.69525465505329
7.467238298862787,8.254687262716013,1.163534803301958,-10.919603358622192,-12.994450308554141,5.391275665899651
7.5497851714899475,8.124742759630472,1.054338769715736,-10.865690601963195,-46.76123853629564,51.09663794091588
7.631032599086252,7.657130374267515,0.9456818636961041,-10.354724222554037,-64.93875954926717,74.76000086100875
7.707603902828927,7.007742778774843,0.8421346214705637,-9.60712421394395,-66.4888552290294,75.22698836175827
7.777681330616676,6.342854226484549,0.7460633793311242,-8.854854330326367,-60.20638234650468,64.84220988020996
7.841109872881521,5.740790403019503,0.6575148360278605,-8.206432231524268,-52.47356103401985,52.43619928393278
7.898517776911716,5.216054792679304,0.5754505137126179,-7.68207023868494,-45.68041464550845,41.25771808973663
7.95067832483851,4.75925064622422,0.4986298113257685,-7.269493057787574,-40.31687114846627,31.93067430684827
7.998270831300752,4.3560819347395565,0.42593488074789276,-6.950186314719091,-36.270398900111125,24.25959698062987
8.041831650648147,3.993377945738445,0.35643301760070184,-6.707590344912792,-33.30537919874082,17.889607234279392
8.081765430105532,3.660324153751037,0.28935711415157395,-6.528694272569998,-31.20287368432745,12.496339910649684
8.118368671643042,3.3482954169077623,0.22407017142587396,-6.403730873463502,-29.789029239308512,7.823738165914275
8.15185162581212,3.0504051245146773,0.16003286269123895,-6.325493491804359,-28.93182714870023,3.679817683630312
8.182355677057267,2.761086853027675,0.09677792777319537,-6.288695314968056,-28.530953966262857,-0.07563111565454633
8.209966545587543,2.4757773133650463,0.033890974623514813,-6.289451626124602,-28.507673333600003,-3.5420089665229875
8.234724318721193,2.190700580029046,-0.02900354163773121,-6.324871715789832,-28.796096171106203,-6.785592103474246
8.256631324521484,1.902739618317984,-0.09225225879562952,-6.392727636824574,-29.335725419221497,-9.844053337018758
8.275658720704664,1.6093823641257692,-0.15617953516387528,-6.4911681701947614,-30.06487070016724,-12.728415204847318
8.291752544345922,1.3087336571240968,-0.2210912168658229,-6.618452322243234,-30.91464573118064,-15.423123366462908
8.304839880917163,0.9995871998122905,-0.28727574008825524,-6.7726835559078635,-31.803539581690508,-17.88502656001112
8.314835752915286,0.6815518039953854,-0.3550025756473339,-6.951533821507975,-32.63294221448418,-20.042278921197884
8.32165127095524,0.35522238185054356,-0.42451791386241366,-7.151956610719954,-33.28449151295477,-21.79455909397344
8.325203494773746,0.02237746672099583,-0.4960374799696132,-7.369902201659689,-33.62063532157137,-23.016450642919196
8.325427269440956,-0.3138288864947179,-0.5697365019862102,-7.600066708088881,-33.490199346208954,-23.56613423488511
8.322288980576008,-0.6487308799568074,-0.645737169067099,-7.835728050437732,-32.74069451529665,-23.301312773008053
8.31580167177644,-0.976137825109774,-0.7240944495714763,-8.068741178167812,-31.238137811791578,-22.10301568221751
8.306040293525342,-1.2885192032276898,-0.8047818613531544,-8.289771334989988,-28.892941883873103,-19.905244230994402
8.293155101493065,-1.5774486220664208,-0.8876795747030544,-8.488823777299931,-25.687121541329795,-16.72462337749772
8.277380615272401,-1.8343198374797187,-0.9725678124760537,-8.656070011074908,-21.694837229518637,-12.680784800788125
8.259037416897604,-2.0512682097749053,-1.0591285125868029,-8.78287785908279,-17.08727391882915,-7.997610312752119
8.238524734799855,-2.222140948963197,-1.1469572911776307,-8.86285396221031,-12.116010677655593,-2.9798026933727244
8.216303325310223,-2.3433010557397527,-1.2355858307997338,-8.892651989144039,-7.076282043865025,2.032010055020459
8.192870314752826,-2.414063876178403,-1.3245123506911742,-8.872331888593834,-2.2596835677577634,6.715382651207706
8.168729675991042,-2.43666071185598,-1.4132356695771127,-8.805178062081756,2.0897589547832824,10.813169857987768
8.144363068872481,-2.4157631223081473,-1.5012874501979303,-8.69704636350188,5.8043184322692465,14.161109696802155
8.1202054376494,-2.357719937985455,-1.5882579138329491,-8.555435266533857,8.801230615955795,16.692059313413573
8.096628238269545,-2.269707631825897,-1.6738122664982877,-8.388514673399722,11.073953789703584,18.421531800274966
8.073931161951286,-2.158968093928861,-1.757697413232285,-8.204299355396973,12.673089713231972,19.42343419381684
8.052341481011997,-2.032237196796541,-1.8397404067862546,-8.010065013458805,13.684448910476206,19.804514137763302
8.03201910904403,-1.8953927076917791,-1.9198410569208426,-7.812019872081172,14.2095803357873,19.683008860778084
8.013065181967113,-1.7532969043339062,-1.9979612556416544,-7.615189783473391,14.351283061533374,19.173658773455795
7.995532212923774,-1.6097840737185725,-2.074113153476388,-7.423453195738833,14.204432322667522,18.378895011660465
7.979434372186588,-1.4677397504918972,-2.1483476854337766,-7.239664245622229,13.851249286199476,17.38487009400699
7.964756974681669,-1.3292272576299025,-2.220744327889999,-7.065815544682159,13.359746629493127,16.260751498557813
7.95146470210537,-1.1956297913349712,-2.2914024833368205,-6.9032080296965805,12.784157004310195,15.059915162964302
7.93950840419202,-1.0677882212918692,-2.3604345636337865,-6.752608878066938,12.166420149102292,13.822046197183667
7.928830521979101,-0.9461240198008463,-2.427960652414456,-6.614388416095101,11.538099421940503,12.575508465461228
7.919369281781093,-0.8307430255814412,-2.494104536575407,-6.488633331440489,10.92234467733763,11.339619002227748
7.911061851525279,-0.7215195788080648,-2.558990869889812,-6.375237141418212,10.33569610234298,10.12665013326901
7.9038466557371985,-0.618162617784635,-2.622743241303994,-6.273970640085522,9.789639352181874,8.943497415625565
7.897665029559352,-0.5202662242628162,-2.685482947704849,-6.184535665929266,9.291891035124491,7.793015787551793
7.892462367316724,-0.4273473139115713,-2.747328304364142,-6.106605508053748,8.84743024298994,6.675057679497905
7.888188894177608,-0.3388730114816719,-2.808394359444679,-6.039854931258769,8.45930830037542,5.587258607750274
7.884800164062791,-0.2542799284779177,-2.868792908757267,-5.983982345181266,8.129273597909105,4.5256168854714165
7.882257364778012,-0.17298719249882666,-2.9286327322090795,-5.9387261763265515,7.858246719564962,3.484910125390638
7.880527492853024,-0.09440472530317703,-2.988019993972345,-5.9038770750726455,7.646676340865573,2.4589854810588454
7.879583445599992,-0.017937961894521293,-3.0470587647230714,-5.879287220262057,7.494800353421671,1.4409549666285417
7.8794040659810465,0.05701004163969542,-3.105851636925692,-5.864877670595772,7.4028301766571145,0.4233227986602729
7.879974166397443,0.13103834340626658,-3.1645004136316497,-5.860644442609169,7.371069414226799,-0.6019307504596004
7.881284549831506,0.20474903754853457,-3.2231068580577413,-5.866663750113765,7.399970587192412,-1.6432843107445532
7.883332040206991,0.2787487434204587,-3.281773495558879,-5.88309659322121,7.490124885048682,-2.709600738539934
7.8861195276411955,0.3536499922709455,-3.340604461491091,-5.910192600606609,7.6421684845567155,-3.8100055393937016
7.889656027563905,0.4300716771165127,-3.399706387497157,-5.948292656000547,7.856573105262099,-4.953664905286495
7.89395674433507,0.5086374081691336,-3.459189314057163,-5.997829305053411,8.133265296763964,-6.149382606551586
7.8990431184167615,0.5899700611367733,-3.519167607107697,-6.059323131118927,8.470984466073881,-7.404891169281465
7.904942819028129,0.6746799057975121,-3.579760838418886,-6.133372042811742,8.866238444202908,-8.725644776433796
7.911689618086104,0.7633422902395413,-3.6410945588470036,-6.22062849057608,9.311641158659334,-10.112819824170986
7.919323040988499,0.8564587018261346,-3.7033008437527646,-6.32175668881779,9.793315118629785,-11.560086262686788
7.9278876280067605,0.9543918530124325,-3.7665184106409426,-6.437357551444658,10.286917107097334,-13.048533131232402
7.937431546536885,1.0572610240834057,-3.830891986155389,-6.567842882756983,10.75173463597548,-14.538959782749208
7.948004156777719,1.1647783704431605,-3.896570414982959,-6.713232480584475,11.122317780019033,-15.960730385941606
7.959651940482151,1.2760015482433509,-3.963702739788804,-6.872839784443891,11.297542345746539,-17.1969181919468
7.972411955964584,1.3889769717008162,-4.032431137633243,-7.044808966363359,11.128443825864382,-18.06735308624914
7.986301725681592,1.50026140995946,-4.102879227296877,-7.22548249722585,10.409596088618503,-18.31578398255559
8.001304339781187,1.6043573708456451,-4.175134052269136,-7.4086403370514065,8.885106869924916,-17.61591869385112
8.017347913489644,1.6932084395448943,-4.24922045563965,-7.5847995239899175,6.288033075879441,-15.621741378285776
8.034279997885093,1.7560887703036887,-4.325068450879549,-7.741016937772775,2.432615909999587,-12.088606931666003
