th1 (rad),w1 (rad/s),th2 (rad),w2 (rad/s)
1.8639161409407297,2.2773487999336184,3.263415509710707,-1.9746376361268088
1.8866896289400659,2.205029334596224,3.243669133349439,-2.0015050270949954
1.9087399222860282,2.133831163777015,3.223654083078489,-2.023925600245104
1.9300782339237983,2.063493741021122,3.2034148270760383,-2.042140114168634
1.9507131713340096,1.9937709611770391,3.182993425934352,-2.0563603021967176
1.97065088094578,1.9244308684251865,3.162429822912385,-2.066772475022946
1.9898951896300319,1.8552555234648351,3.1417620981621552,-2.0735411298250765
2.00844774486468,1.7860410492089447,3.1210266868639045,-2.0768125576227487
2.0263081553567694,1.7165978619205133,3.100258561287677,-2.076718440460674
2.0434741339759745,1.646751082279797,3.07949137688307,-2.0733794251916344
2.0599416447987724,1.5763411081185787,3.058757582631154,-2.0669086518744253
2.075705055879958,1.5052243174828495,3.0380884961124095,-2.057415202964411
2.0907572990547867,1.4332738575838473,3.017514344082765,-2.0450074256560966
2.105090037630625,1.3603804626934712,2.9970642698262044,-2.0297960653290197
2.1186938422575596,1.2864532330751872,2.9767663091729144,-2.0118971347470715
2.1315583745883115,1.2114202988149148,2.956647337825444,-1.9914344334118415
2.143672577576461,1.1352292882659354,2.9367329934913253,-1.9685416263212157
2.1550248704591204,1.0578475220434278,2.917047577228113,-1.943363793255332
2.1656033456795547,0.9792618611216178,2.8976139392955598,-1.9160583700920175
2.1753959642907708,0.8994781521022851,2.8784533555946394,-1.8867954232703221
2.1843907458117937,0.8185202338970139,2.859585401361936,-1.8557572270463378
2.192575948150764,0.7364284967749511,2.841027829091473,-1.8231371490599364
2.199940233118513,0.6532580149658697,2.8227964576008735,-1.78913789017014
2.2064728132681717,0.5690763050463769,2.8049050786991723,-1.7539691657504397
2.2121635763186354,0.4839607910512445,2.787365387041668,-1.7178449533688427
2.217003184229148,0.3979960805660919,2.7701869375079795,-1.6809804618104907
2.220983145034809,0.31127117142154337,2.7533771328898746,-1.6435889952889058
2.2240958567490243,0.22387671440907636,2.7369412429369855,-1.6058788923107226
2.226334623893115,0.1359024532527443,2.720882454013878,-1.5680507105444654
2.2276936484256424,0.047434949708005186,2.7052019469084336,-1.5302948084352934
2.2281679979227227,-0.04144431901814502,2.6898989988240807,-1.492789443884413
2.227753554732541,-0.13066042875526004,2.6749711043852367,-1.4556994736982813
2.2264469504449886,-0.2201460083305135,2.660414109648254,-1.4191756986640431
2.2242454903616835,-0.3098417631408707,2.6462223526616135,-1.3833548617124782
2.221147072730275,-0.39969653811605915,2.632388804044489,-1.3483602736401823
2.217150107349114,-0.4896669551003835,2.618905201308087,-1.3143030142185794
2.2122534377981102,-0.5797166738405951,2.605762171165901,-1.2812836370784957
2.206456271059704,-0.6698153348367045,2.592949334795116,-1.2493942944140008
2.1997581177113372,-0.7599372468321194,2.580455391850976,-1.2187211914428
2.1921587452430162,-0.8500598825717769,2.5682681799365477,-1.189347279373796
2.1836581464172986,-0.9401622446732691,2.5563747071428096,-1.1613550978601315
2.174256523970566,-1.0302231600491505,2.544761156164208,-1.1348296821005472
2.1639542923700743,-1.1202195571594296,2.5334128593432026,-1.1098614546564511
2.15275209679848,-1.210124776112627,2.5223142447966382,-1.0865490267684315
2.1406508490373537,-1.299906957666191,2.511448754528954,-1.065001837954554
2.1276517794606917,-1.3895275536367293,2.5007987361494086,-1.0453425658072082
2.1137565039243245,-1.478939998012193,2.4903453104913367,-1.0277092403824184
2.0989671039442026,-1.5680885748561308,2.4800682180875127,-1.0122569999005009
2.0832862181956413,-1.6569075154554578,2.469945648088508,-0.9991594273776452
2.0667171430410867,-1.7453203525533816,2.4599540538147315,-0.9886094121415151
2.0492639395155527,-1.8332395533893147,2.4500679596933166,-0.9808194868256103
2.0309315439816595,-1.920566445180979,2.4402597648250604,-0.976021600154654
2.0117258795298496,-2.0071914363471643,2.430499548823514,-0.9744662991524076
1.991653965166378,-2.092994524160601,2.42075488583199,-0.9764213114767853
1.970724019924772,-2.1778460649498648,2.4109906727172223,-0.9821695390853767
1.9489455592752734,-2.2616077671207977,2.4011689773263685,-0.9920064974806935
1.9263294816040655,-2.3441338511912146,2.3912489123515615,-1.0062372589577504
1.9028881430921534,-2.425272306077325,2.381186539761984,-1.0251729817010444
1.8786354200313802,-2.5048661585583143,2.3709348099449734,-1.0491271271039175
1.853586758445797,-2.5827546646904005,2.3604435386739344,-1.0784114831486702
1.827759211798893,-2.658774329237872,2.3496594238424477,-1.1133321202259419
1.8011714685065143,-2.732759662805379,2.3385261026401882,-1.1541854061276766
1.7738438718784606,-2.804543596575092,2.3269842485789116,-1.2012541987145293
1.7457984359127097,-2.8739574909870758,2.3149717065917663,-1.2548043185200535
1.717058861002839,-2.9408306963157522,2.302423663406566,-1.3150813808695765
1.6876505540396816,-3.0049896483302243,2.28927284959787,-1.3823080403252799
1.6576006575563793,-3.066256509207382,2.275449769194617,-1.456681672289867
1.6269380924643055,-3.1244473906577497,2.2608829524717184,-1.538372490407956
1.595693618557728,-3.179370221076049,2.245499227567639,-1.6275220767409655
1.5638999163469676,-3.2308223400798433,2.2292240068002296,-1.7242422867202452
1.531591692946169,-3.2785879211950095,2.211981583933027,-1.8286144839640357
1.4988058137342188,-3.3224353363625045,2.1936954390933865,-1.940689061637988
1.465581460370594,-3.3621145845248006,2.1742885484770067,-2.06048521673448
1.431960314525346,-3.3973549113012993,2.153683696309662,-2.187990960271488
1.3979867654123328,-3.427862748381334,2.1318037867069473,-2.3231633681985775
1.3637081379285194,-3.4533201005145244,2.1085721530249613,-2.4659291025457564
1.329174936923374,-3.4733835055839344,2.0839128619995035,-2.6161852575641533
1.2944411018675348,-3.4876836898477723,2.057751009423862,-2.7738006085715403
1.259564264969057,-3.4958260366217657,2.0300130033381465,-2.938617359008891
1.2246060046028393,-3.497391983109858,2.0006268297480574,-3.1104534906432266
1.1896320847717408,-3.491941457724347,1.969522294841625,-3.289105819310978
1.1547126701944972,-3.4790164706210613,1.9366312366485152,-3.4743538398367333
1.1199225054882866,-3.45814597590636,1.9018876982501478,-3.6659644035516834
1.085341045729223,-3.4288521392716023,1.865228054214631,-3.8636972034542896
1.051052524336507,-3.3906581762844494,1.826591082180088,-4.067310936556444
1.0171459425736624,-3.3430979841919424,1.7859179728145236,-4.276569858084622
0.983714962731743,-3.28572788846448,1.7431522742336774,-4.491250220823916
0.9508576838470981,-3.218140985185662,1.6982397720254383,-4.711145780815725
0.9186762739952415,-3.139984810427407,1.651128314217281,-4.936071113772422
0.8872764258909674,-3.050983446132633,1.6017676030795567,-5.165860877763768
0.8567665914296411,-2.950965727045526,1.550108994301919,-5.400362314065991
0.8272569341591858,-2.839902000448561,1.496105371161259,-5.639417121827782
0.7988579141547002,-2.7179529613548774,1.4397111999429812,-5.882827291866853
0.7716783845411515,-2.585535456986957,1.3808829270243128,-6.130297490576973
0.7458230299712819,-2.443411736516368,1.3195799521185432,-6.381344216676921
0.7213889126061183,-2.2928100713433714,1.255766509951774,-6.6351595938368835
0.6984608118926845,-2.1355851078884074,1.1894149140134052,-6.890416381448194
0.6771049608138004,-1.9744238535469187,1.1205107501989233,-7.1450029850395715
0.6573607222783313,-1.8130943235812738,1.0490607203485276,-7.3956875406608695
0.6392297790425185,-1.6567130650256796,0.9751038449419189,-7.637735985197597
0.6226626483922617,-1.511968628275905,0.8987264850899429,-7.864559347014937
0.6075429621095026,-1.387178808538463,0.8200808916197936,-8.067543590613667
0.5936711740241181,-1.2919962333452342,0.7394054557136569,-8.236301205903343
0.5807512116906657,-1.236561966477578,0.6570424436546235,-8.359609094437204
0.5683855920258899,-1.2300286450821345,0.5734463527102515,-8.427145056079063
0.5560853055750685,-1.278690913748388,0.4891749021494608,-8.431727949999432
0.5432983964375846,-1.3843578095315605,0.40485762264946645,-8.37125427499908
0.529454818342269,-1.5437416117047693,0.32114507989947566,-8.249351735121863
0.5140174022252213,-1.7492372963306027,0.23865156254825703,-8.074304022904206
0.4965250292619153,-1.9907286457214117,0.15790852231921498,-7.856757495575942
0.47661774280470115,-2.2575843914004805,0.07934094736345557,-7.607301525955642
0.45404189889069635,-2.5401364697922926,0.0032679321038991405,-7.334802889349269
0.4286405341927734,-2.83040614125183,-0.07008009678959355,-7.045738248178339
0.40033647278025514,-3.1222274267084202,-0.14053747927137694,-6.744282208798383
0.36911419851317095,-3.4110410228101724,-0.20798030135936077,-6.432774172762515
0.3350037882850692,-3.69357973749312,-0.2723080430869859,-6.112276118816119
0.298067990910138,-3.9675682725695656,-0.3334308042751471,-5.783070486467572
0.25839230818444237,-4.231483866002117,-0.3912615091398228,-5.445047262836357
0.2160774695244212,-4.4843822768405,-0.4457119817681864,-5.097981152675448
0.1712336467560162,-4.725776213218051,-0.49669179329494084,-4.741719178983788
0.1239758846238357,-4.955548972868465,-0.5441089850847787,-4.376302653290234
0.07442039489515104,-5.173887118422865,-0.587872011617681,-4.002045348384906
0.022681523710922386,-5.381218482421179,-0.6278924651015301,-3.619586784202919
-0.03113066111328941,-5.578143960796382,-0.6640883329435593,-3.2299376450414017
-0.08691210072125323,-5.765352797077539,-0.6963877093939733,-2.8345338817787815
-0.14456562869202863,-5.9435113278917875,-0.7247330482117611,-2.4353167319476854
-0.2040007419709465,-6.113114833590929,-0.749086215531238,-2.034856893738519
-0.2651318903068558,-6.274292260981996,-0.7694347844686232,-1.6365407215766115
-0.32787481291667575,-6.42655643681453,-0.7858001916843893,-1.244831188966971
-0.39214037728482104,-6.568502321425273,-0.798248503574059,-0.86560025023893
-0.4578254004990738,-6.6974798797880855,-0.8069045060764483,-0.5064922591994498
-0.5248001992969547,-6.8093145290055235,-0.8119694286684428,-0.17720898101232757
-0.5928933445870099,-6.898218877479785,-0.813741518478566,0.11049630581089503
-0.6618755333618078,-6.957111984158225,-0.8126365554204571,0.34343081257692054
-0.7314466532033901,-6.978564803573817,-0.8092022472946879,0.5084926917668922
-0.8012323012391283,-6.9564084657203855,-0.804117320377019,0.59515862756831
-0.8707963858963321,-6.887626519575558,-0.7981657341013358,0.5983544927725006
-0.9396726510920878,-6.77371352009827,-0.7921821891736108,0.5204920995302752
-1.0074097862930704,-6.620687980326456,-0.786977268178308,0.3714646875716028
-1.0736166660963349,-6.437632223049673,-0.783262621302592,0.16640142891180168
-1.1379929883268316,-6.23450359450345,-0.7815986070134741,-0.0777245215635178
-1.2003380242718662,-6.0202405467174795,-0.7823758522291092,-0.34510388144583615
-1.260540429739041,-5.801743752969623,-0.7858268910435676,-0.6228164559514509
-1.3185578672687372,-5.583701015841972,-0.7920550556030821,-0.9012780861228016
-1.374394877427157,-5.36891427010182,-0.8010678364643101,-1.1738920179993908
-1.4280840201281753,-5.158796236094942,-0.812806756644304,-1.4363953896988093
-1.4796719824891247,-4.953839993058605,-0.8271707105412921,-1.686203160128002
-1.5292103824197107,-4.753986224609483,-0.8440327421425721,-1.9218747688882685
-1.5767502446658055,-4.558881177722768,-0.8632514898314547,-2.142725309897447
-1.6223390564430331,-4.368045040514877,-0.8846787429304291,-2.348559803550049
-1.6660195068481818,-4.180975257362716,-0.9081643409659297,-2.5394988696930154
-1.707829259421809,-3.9972056880940423,-0.9335593296628598,-2.7158673271078286
-1.7478013163027495,-3.8163370603389715,-0.960718002933938,-2.8781240938697232
-1.7859646869061392,-3.6380493413374526,-0.9894992438726353,-3.02681828012958
-1.8223451803195136,-3.4621030589462753,-1.0197674266739312,-3.1625614267559934
-1.8569662109089764,-3.2883341263805397,-1.051393040941491,-3.2860094326355815
-1.8898495521727818,-3.1166450927864773,-1.0842531352678468,-3.3978501361849704
-1.9210160031006467,-2.9469946886623526,-1.1182316366296965,-3.498794102734001
-1.9504859499872702,-2.7793868616686717,-1.1532195776570364,-3.5895671842813215
-1.978279818603957,-2.613860067021669,-1.1891152494998496,-3.6709040527993455
-2.004418419274174,-2.4504772977759455,-1.225824290027843,-3.7435422934049987
-2.0289231922519333,-2.2893171573592714,-1.263259712961893,-3.8082168663962066
-2.051816363825526,-2.1304661549656636,-1.301341881625855,-3.865654864817573
-2.0731210253751824,-1.9740123228404909,-1.3399984302740309,-3.9165705446466017
-2.0928611486035873,-1.8200402005322416,-1.379164135720497,-3.961660612780051
-2.11106155060891,-1.66862719724456,-1.4187807418482974,-4.001599740226669
-2.1277478225813553,-1.519841324661055,-1.458796739250564,-4.0370362353110885
-2.142946235827966,-1.3737402855057657,-1.499167101603675,-4.068587771912361
-2.1566836386830235,-1.2303719044243444,-1.5398529793227986,-4.096837026614532
-2.168987357727267,-1.0897758938325697,-1.580821349588944,-4.122327041436846
-2.179885116665593,-0.9519869533009495,-1.6220446200033125,-4.145556101590082
-2.1894049861986025,-0.8170392000345585,-1.6635001810192134,-4.166971908577545
-2.197575378198948,-0.6849719106317874,-1.705169900104989,-4.186964849383977
-2.204425097305266,-0.5558365079201711,-1.7470395485988286,-4.20586022836741
-2.209983462384468,-0.42970463540944603,-1.7890981508825028,-4.223909460417423
-2.2142805087385624,-0.3066770079944924,-1.831337245486677,-4.241280445815669
-2.217347278818507,-0.1868924950828317,-1.8737500499448336,-4.25804768111945
-2.2192162037693355,-0.07053657504160293,-1.9163305267560282,-4.274183116095295
-2.2199215695197516,0.04215208598462443,-1.959072357916981,-4.2895493239925315
-2.2195000486599055,0.150878575959477,-2.0019678511569063,-4.303897136479589
-2.217991262900311,0.2552941413630364,-2.045006822521702,-4.316870351324244
-2.2154383214866806,0.3550060146758802,-2.0881755260349446,-4.328020208035627
-2.211888261339922,0.4495961516546816,-2.131455728115301,-4.336831746353425
-2.207392299823375,0.5386492209995928,-2.174824045578835,-4.3427626628870115
-2.202005807613379,0.6217883593304363,-2.218251672207705,-4.345292829304877
-2.195787924020075,0.6987149704926238,-2.261704600500754,-4.34397960345682
-2.1888007743151485,0.7692468364430478,-2.305144396535322,-4.3385113005662035
-2.181108305950718,0.8333478444639307,-2.348529509540984,-4.328749825162771
-2.1727748275060788,0.8911433921176294,-2.391817007792612,-4.314754419070182
-2.1638633935849025,0.9429180998195179,-2.4349645519833136,-4.296781896565093
-2.1544342125867075,0.9890961588930747,-2.4779323709489645,-4.275263697788736
-2.144543250997777,1.0302082462144702,-2.520685007926852,-4.250764937356305
-2.134241168535632,1.0668512568579243,-2.563192657300415,-4.2239337459187345
-2.123572655967053,1.0996475529372092,-2.605431994759602,-4.1954497999412155
-2.112576180437681,1.1292091984902688,-2.647386492759014,-4.165979282131527
-2.101284088452778,1.156110491171449,-2.6890462855803294,-4.13614062202077
-2.089722983541064,1.1808698569269809,-2.7304076918005373,-4.1064823739093415
-2.077914284971794,1.2039404373807394,-2.7714725155396307,-4.077472292266167
-2.0658748805979865,1.2257076962653501,-2.8122472384622923,-4.049495356376514
-2.053617803635333,1.2464920341793835,-2.8527421920260574,-4.022858077989463
-2.041152883293539,1.2665545222061958,-2.892970772805952,-3.9977966126831292
-2.028487338071477,1.286104221964868,-2.9329487389327835,-3.974486687082218
-2.0156262958518285,1.3053059827281845,-2.9726936058036055,-3.9530539234401627
-2.0025732360245465,1.324287994364976,-3.012224145038007,-3.9335836578778545
-1.9893303560808968,1.3431486838581572,-3.0515599816167858,-3.9161297526381347
-1.9758988692423152,1.361962765324385,-3.090721279143167,-3.900722188359999
-1.9622792415890713,1.3807863997209122,-3.1297285010267673,-3.887373405989891
-1.9484713775918623,1.3996615081986115,-3.168602235086666,-3.8760834738660237
-1.9344747625098762,1.4186193296664988,-3.2073630698253264,-3.866844207298775
-1.9202885692132112,1.4376833329348617,-3.2460315118983143,-3.859642384797579
-1.9059117358838626,1.4568715975340452,-3.28462793574629,-3.8544622010041345
-1.8913430199085222,1.4761987724235925,-3.3231725577563314,-3.851287080884208
-1.8765810321842862,1.4956777132081682,-3.3616854285651736,-3.8501009587828903
-1.8616242550522044,1.5153208892217078,-3.4001864381530025,-3.8508891030157297
-1.8464710461599874,1.535141643757178,-3.43869532918316,-3.8536385435030196
-1.8311196297224155,1.5551553848558124,-3.47723171461819,-3.8583381372124927
-1.8155680758738573,1.5753807810124258,-3.515815095990315,-3.8649782838394393
-1.799814268063733,1.5958410362239568,-3.5544648788287097,-3.873550281821145
-1.7838558577014934,1.6165653221719372,-3.593200381646921,-3.8840452918747883
-1.767690204479774,1.6375904520231401,-3.632040834565669,-3.896452851179805
-1.7513142999595426,1.6589628902123879,-3.671005363077467,-3.910758855698929
-1.7347246710574187,1.6807412051620252,-3.710112951634456,-3.926942901002912
-1.7179172590057985,1.702999086100816,-3.7493823806444855,-3.944974844263157
-1.7008872681447904,1.7258290587785174,-3.788832129087117,-3.9648104242816173
-1.6836289775570052,1.7493470438764516,-3.8284802333299335,-3.9863857576166395
-1.6661355071182407,1.773697899225621,-3.8683440909061,-4.009610526308089
-1.6483985281259845,1.7990620608686303,-3.908440196169181,-4.034359702139778
-1.6304079075172981,1.825663330120577,-3.9487837931905787,-4.060463738969855
-1.6121512742160924,1.8537777166548635,-3.989388430580277,-4.0876973463364585
-1.5936134970495437,1.883743003190043,-4.030265404043642,-4.115767287474524
-1.5747760670176432,1.915968298069449,-4.0714230769183875,-4.144300190240594
-1.5556163840369486,1.9509422390788014,-4.112866078820794,-4.172832190761746
-1.5361069616461605,1.9892376770483362,-4.154594400728412,-4.2008033910591775
-1.5162145848756772,2.0315096384050424,-4.196602434639003,-4.227561559659876
-1.4958994884916268,2.0784823189823354,-4.238878050235602,-4.252381003237503
-1.4751146653018035,2.130920209602355,-4.281401860267977,-4.274503526621302
-1.45380546320578,2.1895789151764244,-4.32414689553419,-4.293207888763334
-1.4319096740540158,2.255133759880625,-4.3670789744218235,-4.307910819148108
-1.4093583364552096,2.3280896966773184,-4.410158082613305,-4.318295305050275
-1.3860774394884363,2.4086842750145587,-4.453341035663807,-4.324450549016342
-1.3619905967382908,2.4968044988649702,-4.49658554115397,-4.326995374006348
-1.337022551749641,2.591944107358422,-4.5398554948940335,-4.327148716366267
-1.311103110676057,2.6932250083460225,-4.5831269820576965,-4.326714327177953
-1.2841708605925968,2.799492631381956,-4.626394125329476,-4.327965741973716
-1.2561759342787773,2.9094731216158447,-4.669673782749213,-4.333447667096351
-1.2270812030626188,3.02195984257416,-4.713008259420177,-4.345738505533655
-1.1968616046368772,3.135987811121471,-4.756465644475513,-4.367231647876983
-1.1655017265256624,3.250961722264489,-4.800137960954284,-4.399984262557055
-1.1329921093030175,3.366721643700722,-4.844137803579854,-4.445657585249482
-1.0993248928660102,3.4835506809868426,-4.888594379432349,-4.5055452698219645
-1.0644893860561417,3.602142746860832,-4.933649832130569,-4.580667631130185
-1.0284679585875334,3.723553171852342,-4.979456508441871,-4.671903736951767
-0.9912324268690099,3.8491522826494706,-5.026175545811388,-4.780137751035533
-0.9527409040425152,3.980596221929572,-5.0739769233217435,-4.9064053970091885
-0.9129349418232195,4.119823578665755,-5.1230409772918355,-5.052036378910537
-0.871736706036562,4.269082654835479,-5.173561341080941,-5.218796728188779
-0.8290458794882072,4.430992859655523,-5.225749308362828,-5.409040956129316
-0.7847359508916519,4.608644491217802,-5.279839717924121,-5.625888229180646
