th1 (rad),w1 (rad/s),th2 (rad),w2 (rad/s),a1 (rad/s^2),a2 (rad/s^2)
0.2925359351892661,-0.4892967908796964,1.3762784558389374,2.5817271860592736,2.7160331692655153,-11.097922697771432
0.2876429672804692,-0.46213645918704127,1.40209572769953,2.4707479590815593,2.3597494197049698,-10.892460301490328
0.2830216026885988,-0.43853896498999156,1.4268032072903456,2.361823356066656,2.0197559886386953,-10.710119243914383
0.27863621303869884,-0.4183414051036046,1.450421440851012,2.254722163627512,1.6960030161226822,-10.549255484744942
0.2744527989876628,-0.4013813749423778,1.4729686624872873,2.149229608780063,1.3883328394719106,-10.408207433751109
0.270438985238239,-0.3874980465476587,1.4944609585750879,2.0451475344425516,1.0965328162726469,-10.285351899042606
0.26656400477276243,-0.3765327183849322,1.5149124339195135,1.9422940154521255,0.8203701045390155,-10.179137768803464
0.2627986775889131,-0.36832901733954204,1.5343353740740346,1.840502637764091,0.559613988478407,-10.088104617180722
0.2591153874155177,-0.36273287745475796,1.5527404004516756,1.7396215915922837,0.3140496755317758,-10.010891220224947
0.25548805864097013,-0.3595923806994402,1.5701366163675985,1.6395126793900343,0.0834863113737047,-9.946237425833818
0.2518921348339757,-0.3587575175857032,1.586531743161499,1.540050305131696,-0.13223887328604914,-9.892981748537046
0.24830455965811868,-0.3600799063185637,1.6019322462128158,1.4411204876463255,-0.3332589573413568,-9.850056315850463
0.24470376059493304,-0.36341249589197727,1.6163434510892791,1.342619924487821,-0.5196773519671165,-9.816480278505665
0.24106963563601327,-0.36860926941164845,1.6297696503341574,1.2444551217027644,-0.6915688287456356,-9.791352442248254
0.23738354294189679,-0.3755249576991048,1.6422142015511851,1.146541597280282,-0.8489811350707404,-9.773843635209767
0.23362829336490573,-0.38401476904981224,1.653679617523988,1.0488031609281843,-0.9919369221297788,-9.763189158025485
0.2297881456744076,-0.39393413827111,1.66416764913327,0.9511712693479294,-1.120435811171732,-9.758681550196274
0.22584880429169651,-0.40513849638282734,1.6736793618267494,0.8535844538459667,-1.2344564936774916,-9.759663829214443
0.22179741932786823,-0.4174830613196023,1.682215206365209,0.7559878155538222,-1.333958809284986,-9.765523307259537
0.21762258871467222,-0.43082264941245213,1.689775084520747,0.6583325824812268,-1.4188857780962718,-9.775686055881895
0.2133143622205477,-0.44501150719341487,1.6963584103455593,0.5605757219224079,-1.4891655856763213,-9.789612066516218
0.20886424714861354,-0.4599031630501781,1.7019641675647834,0.4626796012572457,-1.5447135327217008,-9.806791140073416
0.20426521551811175,-0.4753502983773951,1.706590963577356,0.36461168985651154,-1.5854339691983357,-9.826739529582234
0.1995117125343378,-0.4912046380693785,1.710237080475921,0.2663442945606892,-1.6112222362447266,-9.84899735403718
0.19459966615364402,-0.5073168604318258,1.712900523421528,0.1678543210203174,-1.6219666393784262,-9.873126797963028
0.18952649754932577,-0.52353652682561,1.714579066631731,0.06912305304068711,-1.6175504742746514,-9.89871110882409
0.18429113228106966,-0.5397120315683566,1.7152702971621379,-0.029864058047553793,-1.5978541221233222,-9.92535440265695
0.1788940119653861,-0.5556905727895898,1.7149716565816624,-0.1291176020741233,-1.5627572256702893,-9.95268228674679
0.17333710623749018,-0.5713181450462926,1.7136804805609211,-0.22864442494159118,-1.5121409497542513,-9.98034330649478
0.16762392478702726,-0.5864395545438351,1.7113940363115052,-0.328447858006539,-1.4458903216320447,-10.008011221633101
0.1617595292415889,-0.6008984577601556,1.7081095577314398,-0.42852797022287,-1.3638966367640881,-10.035388114508418
0.15575054466398736,-0.6145374241277964,1.703824278029211,-0.5288818513679542,-1.2660599051068422,-10.06220833021336
0.14960517042270938,-0.6271980231788649,1.6985354595155315,-0.6295039346700878,-1.1522913014218503,-10.088243244897049
0.14333319019092072,-0.6387209361930833,1.6922404201688306,-0.7303863671190582,-1.0225155707624607,-10.113306854686648
0.1369459808289899,-0.648946091900708,1.68493655649764,-0.8315194356659248,-0.8766733272635637,-10.13726217341883
0.13045651990998283,-0.6577128251733436,1.6766213621409807,-0.932892057400113,-0.7147231707957296,-10.160028422993134
0.12387939165824939,-0.6648600568813009,1.6672924415669796,-1.0344923416300444,-0.5366435321578092,-10.181588995865308
0.11723079108943638,-0.670226492202879,1.6569475181506792,-1.1363082315886974,-0.3424341435323689,-10.202000165313558
0.11052852616740759,-0.6736508336382027,1.6455844358347922,-1.238328233241833,-0.13211701724207417,-10.221400516015999
0.10379201783102557,-0.6749720038106234,1.6332011535023738,-1.340542238401993,0.09426319717722952,-10.240021065613263
0.09704229779291934,-0.6740293718388511,1.619795731118354,-1.4429424490581255,0.3366396194451341,-10.25819604777561
0.09030200407453083,-0.6706629756443998,1.6053663066277728,-1.5455244095358815,0.5949244605491947,-10.276374329334548
0.08359537431808683,-0.6647137310389079,1.589911062532414,-1.648288152829227,0.8690114200184932,-10.295131438715128
0.07694823700769776,-0.6560236168387229,1.5734281810041217,-1.7512394672163782,1.1587793226139744,-10.315182190528015
0.07038800083931053,-0.6444358236125831,1.555915786331958,-1.8543912891216583,1.464097158704292,-10.337393901811605
0.06394364260318469,-0.6297948520255402,1.5373718734407413,-1.9577652281397744,1.7848306870430735,-10.362800208683423
0.057645694082929286,-0.6119465451551095,1.5177942211593436,-2.0613932302266087,2.1208507456668815,-10.392615506999366
0.05152622863137819,-0.5907380376984407,1.4971802888570775,-2.1653193852966024,2.472043393739428,-10.428250054875251
0.04561884825439379,-0.5660176037610464,1.4755270950041115,-2.269601885845355,2.838321970870561,-10.47132578478131
0.03995867221678332,-0.5376343840523408,1.452831076145658,-2.374315143693168,3.219641105585107,-10.523692872045126
0.034582328376259915,-0.5054379729964897,1.4290879247087263,-2.4795520724136195,3.616012623484639,-10.587447084863907
0.029527948646295016,-0.46927784676164336,1.40429240398459,-2.5854265432622587,4.027523186520624,-10.664947882478062
0.024835170178678583,-0.4290026148964371,1.3784381385519675,-2.6920760220870394,4.454353319788685,-10.75883710847527
0.02054514402971421,-0.38445908169855025,1.3515173783310972,-2.799664393171792,4.8967972239469635,-10.87205790760583
0.01670055321272871,-0.3354911094590806,1.3235207343993793,-2.90838497224785,5.355282387704319,-11.007873119282072
0.013345642118137904,-0.28193828558203743,1.2944368846769008,-3.0184637034406707,5.830387441311564,-11.169881780755915
0.010526259262317528,-0.2236344111689218,1.264252247642494,-3.13016252124823,6.322855829747446,-11.362031372533488
0.00828991515062831,-0.16040585287144732,1.2329506224300117,-3.243782834973565,6.833601581954423,-11.588621850661681
0.006685856621913837,-0.09206983705190308,1.200512794080276,-3.359669053480182,7.363701478796968,-11.854295017770747
0.005765158251394806,-0.018432822263933404,1.1669161035454743,-3.478212003657889,7.914364925293813,-12.163998902127135
0.005580830028755472,0.060710826989004735,1.1321339835088953,-3.5998519926791603,8.486868279106147,-12.522910803304306
0.006187938298645519,0.14557950978006623,1.0961354635821037,-3.7250811007122033,9.082433478140407,-12.936293410627588
0.007643733396446181,0.2364038445614703,1.0588846525749815,-3.854444034818479,9.702020366718969,-13.409244250645763
0.010007771842060885,0.33342404822866,1.0203402122267968,-3.9885364773249368,10.345986450728942,-13.94627727405356
0.013342012324347485,0.4368839127359494,0.9804548474535475,-4.127999250065472,11.013544605853,-14.550643330194891
0.017710851451706977,0.5470193587944794,0.9391748549528928,-4.273505683367421,11.70191564303975,-15.223249380363683
0.023181045039651772,0.6640385152248769,0.8964397981192186,-4.425738177171058,12.405025737607206,-15.960970165481818
0.02982143019190054,0.7880887726009489,0.852182416347508,-4.585347878825877,13.111537645392808,-16.754058635361467
0.037702317917910025,0.919204149054877,0.8063289375592493,-4.752888465179491,13.801935565617901,-17.582260047185148
0.04689435940845879,1.057223504711056,0.7588000529074543,-4.928711065651342,14.444331792683782,-18.409152260355892
0.057466594455569356,1.201666822637894,0.709512942250941,-5.112802588254901,14.988698410789523,-19.174264695703982
0.0694832626819483,1.351553806745789,0.6583849163683919,-5.304545235211941,15.359508068235316,-19.78288730062255
0.08299880074940619,1.5051488874281422,0.6053394640162725,-5.5023741082181665,15.44760471656216,-20.09459654387208
0.09805028962368761,1.659624934593764,0.5503157229340908,-5.703320073656887,15.104005889211448,-19.914077551891502
0.11464653896962526,1.8106649934858785,0.49328252219752194,-5.902460849175802,14.141719008552721,-18.99246087783654
0.13275318890448404,1.9520821835714057,0.43425791370576394,-6.092385457954167,12.356063027883335,-17.053508903289163
0.15227401074019808,2.075642813850239,0.37333405912622225,-6.262920546987059,9.5759799172167,-13.861881585909293
0.17303043887870048,2.171402613022406,0.3107048536563517,-6.401539362846152,5.750015634662799,-9.338844951116615
0.19474446500892453,2.228902769369034,0.24668946002789016,-6.494927812357318,1.0420294458618362,-3.6916818694498876
0.21703349270261488,2.2393230638276522,0.18174018190431698,-6.531844631051817,-4.127548246662972,2.5306563885178903
0.2394267233408914,2.1980475813610223,0.11642173559379881,-6.5065380671666375,-9.16297077535139,8.548172267420247
0.2614071991545016,2.1064178736075085,0.05135635492213243,-6.421056344492435,-13.488644627622103,13.614253823928792
0.2824713778905767,1.9715314273312874,-0.012854208522791913,-6.284913806253146,-16.744104034916443,17.27647456906395
0.30218669216388955,1.804090386982123,-0.07570334658532338,-6.112149060562507,-18.85513099207492,19.466865583689067
0.32022759603371076,1.6155390770613738,-0.13682483719094846,-5.917480404725616,-19.967185554920803,20.40619194024336
0.3363829868043245,1.4158672215121657,-0.19599964123820462,-5.713418485323182,-20.323564746023656,20.436858639579864
0.3505416590194462,1.2126315740519291,-0.2531338260914364,-5.509049898927384,-20.16797324139161,19.89243046501679
0.3626679747599655,1.010951841638013,-0.3082243250807103,-5.310125594277216,-19.696997697089234,19.036387880575358
0.3727774931763456,0.8139818646671206,-0.36132558102348244,-5.119761715471462,-19.050316336624867,18.051872908299874
0.3809173118230168,0.623478701300872,-0.41252319817819705,-4.9392429863884635,-18.318937553149315,17.054960268021613
0.3871520988360255,0.44028932576937885,-0.4619156280420817,-4.768693383708247,-17.558172198857058,16.11341548296626
0.3915549920937193,0.26470760378080826,-0.5096025618791642,-4.607559228878585,-16.799345337752207,15.263076421518493
0.39420206813152736,0.09671415040328618,-0.5556781541679501,-4.4549284646634,-16.05857750219865,14.519866728683079
0.39516920963556024,-0.0638716246187003,-0.6002274388145841,-4.309729797376569,-15.342790233422688,13.887846883461327
0.39453049338937324,-0.21729952695292717,-0.6433247367883498,-4.170851328541956,-14.653602396445102,13.364325182874017
0.39235749811984394,-0.3638355509173782,-0.6850332500737694,-4.037208076713216,-13.989774491817776,12.94298398986119
0.38871914261067014,-0.5037332958355559,-0.7254053308409015,-3.907778236814604,-13.348704497235603,12.615735441975714
0.3836818096523146,-0.637220340807912,-0.7644831132090476,-3.7816208823948467,-12.727322413055537,12.373790866493552
0.37730960624423543,-0.7644935649384674,-0.802299322032996,-3.6578829737299112,-12.122610259475529,12.208255703391153
0.36966467059485075,-0.8857196675332227,-0.8388781517702951,-3.5358004166959995,-11.531891199543079,12.110444717386926
0.3608074739195185,-1.0010385795286536,-0.8742361559372551,-3.41469596952213,-10.952977235705058,12.07203679724564
0.350797088124232,-1.1105683518857041,-0.9083831156324764,-3.2939756015496737,-10.384230601717896,12.085141283942095
0.33969140460537495,-1.214410657902883,-0.9413228716479731,-3.173124188710253,-9.82457263816161,12.142318518912978
0.32754729802634613,-1.3126563842844992,-0.9730541135350756,-3.051701003521123,-9.273460839696503,12.236579397960442
0.31442073418350114,-1.4053909926814643,-1.0035711235702869,-2.9293352095415184,-8.730846791407421,12.36137781792318
0.3003668242566865,-1.4926994605955386,-1.0328644756657022,-2.8057214313622865,-8.197122901832072,12.510603304579453
0.2854398296507311,-1.5746706896138594,-1.060921689979325,-2.6806153983164918,-7.673062961877614,12.678577146590785
0.2696931227545925,-1.6514013192326356,-1.08772784396249,-2.553829626850584,-7.159759849252896,12.86005301573428
0.25317910956226614,-1.7229989177251646,-1.1132661402309958,-2.425229096693241,-6.658562686275668,13.050221709871433
0.23594912038501448,-1.7895845445879213,-1.1375184311979283,-2.2947268795945264,-6.1710151549818395,13.244718935036142
0.21805327493913526,-1.8512946961377397,-1.1604656999938736,-2.1622796902441648,-5.698796299841987,13.43963471527673
0.19954032797775786,-1.9082826591361595,-1.1820884968963152,-2.0278833430913976,-5.243664897615966,13.631522939578343
0.18045750138639627,-1.960719308112319,-1.2023673303272293,-1.8915681136956142,-4.807408282309263,13.817409632972236
0.16085030830527308,-2.008793390935412,-1.2212830114641855,-1.7533940173658917,-4.39179634465184,13.994798713981254
0.14076237439591896,-2.0527113543819304,-1.2388169516378444,-1.6134460302260791,-3.9985412609557978,14.161674232019543
0.12023526085209965,-2.092696766991488,-1.2549514119401053,-1.4718292879058836,-3.629263337112624,14.316498336956892
0.09930829318218477,-2.1289894003626144,-1.269669704819164,-1.3286643045363147,-3.2854631775915695,14.45820449658046
0.07801839917855863,-2.16184403213853,-1.2829563478645272,-1.18408225957051,-2.968500207705659,14.586185728414367
0.05639995885717333,-2.1915290342155864,-1.2947971704602323,-1.0382204022863664,-2.6795773926501525,14.7002778354241
0.03448466851501747,-2.218324808142088,-1.305179374483096,-0.8912176239321253,-2.4197318114358044,14.800737817484574
0.01230142043359659,-2.242522126256446,-1.3140915507224171,-0.7432102457572796,-2.189830559315339,14.888217760112335
-0.010123800828967869,-2.264420431849599,-1.3215236531799899,-0.5943280681561562,-1.990571268127367,14.963734567162387
-0.03276800514746386,-2.2843261445308727,-1.3274669338615515,-0.44469072248453234,-1.82248634677966,15.028635892786037
-0.05561126659277259,-2.302551007998669,-1.3319138410863969,-0.294404363556672,-1.6859498466788119,15.08456252620347
-0.07863677667275928,-2.319410506465457,-1.3348578847219637,-0.14355873829463728,-1.581185637210786,15.133407274024552
-0.10183088173741386,-2.335222362837565,-1.33629347210491,0.00777533444560824,-1.5082753160985034,15.177270047224384
-0.12518310536578953,-2.35030511599855,-1.336215718760454,0.15954803491785208,-1.4671639524547453,15.218408364070147
-0.14868615652577502,-2.3649767555230974,-1.3346202384112755,0.31173211855855354,-1.457661330523033,15.25918178584596
-0.172335924081006,-2.379553368828328,-1.33150291722569,0.46432393641701314,-1.4794357809194962,15.301987853364746
-0.19613145776928928,-2.394347726637523,-1.3268596778615198,0.6173438149506606,-1.5319968898251317,15.349185813086965
-0.2200749350356645,-2.409667695535774,-1.3206862397120132,0.7708356730815302,-1.6146622831943775,15.403002711405858
-0.24417161199102225,-2.425814318367718,-1.3129778829811978,0.9248657001955888,-1.7265021914216776,15.465414165694932
-0.2684297551746994,-2.4430793402819346,-1.303729225979242,1.079519841852538,-1.8662534920657607,15.537989137142686
-0.29286054857751875,-2.461741875202592,-1.2929340275607166,1.2348997332239648,-2.032192281585509,15.621684169685357
-0.3174779673295447,-2.482063798018447,-1.280585030228477,1.3911165749208183,-2.2219506467762344,15.716567691903572
-0.34229860530972916,-2.504283304486209,-1.2666738644792688,1.548282251839854,-2.432259198216011,15.82144910803148
-0.36734143835459127,-2.528605896468369,-1.2511910419608703,1.7064967429201687,-2.6585923454395135,15.933380870390092
-0.39262749731927493,-2.555191819922764,-1.2341260745316687,1.8658305516240696,-2.894689021764585,16.046995595830214
-0.4181794155185026,-2.58413871014041,-1.215467769015428,2.0263005075823717,-3.1319194297248423,16.153637060784586
-0.4440208026199067,-2.6154579044376582,-1.1952047639396044,2.1878368781902173,-3.3584720900402125,16.24024869268597
-0.47017538166428324,-2.6490426253380606,-1.1733263951577022,2.350239365117077,-3.5583519357038536,16.28800549043864
-0.49666580791766385,-2.684626144695099,-1.1498240015065315,2.5131194200214635,-3.7102211338292777,16.27073139301338
-0.5235120693646148,-2.721728356033392,-1.124692807306317,2.675826733951597,-3.7861976487400217,16.153258803610104
-0.5507293529249487,-2.759590332520792,-1.097934539966801,2.837359321987698,-3.750875208478646,15.890092115312077
-0.5783252562501566,-2.7970990846055783,-1.069560946746924,2.996260243140819,-3.5610615714638234,15.425059488992762
-0.6062962470962124,-2.8327097003202164,-1.039598344315516,3.1505108380307467,-3.16704024853739,14.693063564676098
-0.6346233440994146,-2.8643801028055904,-1.0080932359352084,3.2974414736775075,-2.51645427316285,13.625447272769618
-0.6632671451274704,-2.889544645537219,-0.9751188211984333,3.4336959464052037,-1.5619467357888488,12.160537952641542
-0.6921625915828427,-2.9051641128951076,-0.9407818617343813,3.555301325931619,-0.27304214865063514,10.260024072159805
-0.7212142327117937,-2.907894534381614,-0.9052288484750651,3.657901566653217,1.3490430423319797,7.92931799248604
-0.7502931780556099,-2.894404103958294,-0.8686498328085329,3.7371947465780773,3.2578635611629707,5.236041439522933
-0.7792372190951928,-2.8618254683466646,-0.8312778853427522,3.7895551609733067,5.356328762933104,2.3171189169127904
-0.8078554737786595,-2.8082621807173336,-0.793382333733019,3.8127263501424347,7.505932501878832,-0.6345299678768854
-0.8359380955858329,-2.7332028556985453,-0.7552550702315947,3.8063810504636657,9.551738426779535,-3.4050969554020294
-0.8632701241428183,-2.63768547143075,-0.717191259726958,3.7723300809096454,11.355524034033317,-5.806047122420166
-0.8896469788571258,-2.5241302310904166,-0.6794679589178615,3.7142696096854437,12.823748715461686,-7.712689605817264
-0.91488828116803,-2.3958927439357995,-0.6423252628210071,3.637142713627271,13.919554474657883,-9.080217650015392
-0.938847208607388,-2.2566971991892206,-0.6059538356847344,3.546340537127117,14.65708600559704,-9.935050810522664
-0.9614141805992802,-2.11012633913325,-0.5704904303134632,3.4469900290218902,15.084756022766522,-10.350927092478146
-0.9825154439906126,-1.9592787789055848,-0.5360205300232443,3.3434807580971087,15.266456483983513,-10.422391966180438
-1.0021082317796686,-1.8066142140657497,-0.5025857224422733,3.2392568384353044,15.266877397716465,-10.244253750530081
-1.0201743739203262,-1.6539454400885851,-0.4701931540579202,3.136814300930004,15.142883573955595,-9.899640733953934
-1.036713828321212,-1.5025166043490292,-0.4388250110486202,3.0378178935904643,14.940064219520803,-9.455338945316546
-1.0517389943647024,-1.3531159621538211,-0.40844683211271554,2.9432645041372987,14.692598053263998,-8.961760604248248
-1.0652701539862406,-1.2061899816211812,-0.37901418707134255,2.853646898094816,14.424758304697026,-8.455176295982113
-1.0773320538024524,-1.061942398574211,-0.3504777180903944,2.7690951351349953,14.152944720425207,-7.960649431856567
-1.0879514777881945,-0.9204129513699588,-0.32278676673904444,2.6894886408164296,13.887649239896934,-7.494846957078793
-1.097155607301894,-0.7815364589709894,-0.29589188033088015,2.6145401712456415,13.63511038187407,-7.068390222754344
-1.1049709718916039,-0.6451853551522487,-0.2697464786184237,2.543856269018098,13.39860299695366,-6.687677712773289
-1.1114228254431264,-0.5111993251827122,-0.24430791592824275,2.476979491890365,13.179397205190687,-6.356231982070624
-1.1165348186949535,-0.37940535313080526,-0.2195381210093391,2.413417172069659,12.97744941790131,-6.075662487315496
