th1 (rad),w1 (rad/s),th2 (rad),w2 (rad/s)
2.682020442405835,-2.8209778742266707,1.556242933774089,-0.9427784145390424
2.6538106636635685,-2.867101163002044,1.5468151496286986,-0.9490847644922181
2.625139652033548,-2.916535523227234,1.5373243019837763,-0.9514234055567239
2.5959742968012756,-2.9693845426692578,1.5278100679282092,-0.9494923527694091
2.566280451374583,-3.0257609798582275,1.5183151444005152,-0.9429763221871944
2.536022841576001,-3.0857883407509603,1.5088853811786433,-0.9315458992199315
2.5051649581684914,-3.1496026682514238,1.499569922186444,-0.9148567383219177
2.473668931485977,-3.217354536881355,1.4904213548032248,-0.8925488462651915
2.4414953861171638,-3.2892112273937917,1.4814958663405728,-0.8642460315871074
2.4086032738432257,-3.365359028650923,1.4728534060247018,-0.8295556484927317
2.3749496835567165,-3.4460055717266926,1.4645578495397744,-0.7880688318177165
2.3404896278394496,-3.5313820366951774,1.4566771612215972,-0.7393615212906488
2.305175807472498,-3.621744975310965,1.4492835460086908,-0.68299672373678
2.2689583577193884,-3.7173773473753347,1.442453578771323,-0.6185286832196637
2.231784584245635,-3.8185881529991996,1.4362682919391265,-0.5455099527576004
2.193598702715643,-3.925709726493137,1.4308131924115506,-0.4635028303528723
2.154341605450712,-4.039091298963772,1.4261781641080218,-0.3720972937188745
2.1139506924610743,-4.159086784029016,1.422457191170833,-0.27093851240527367
2.072359824620784,-4.286033837377884,1.4197478060467803,-0.15976830695508648
2.0294994862470053,-4.420220042735377,1.4181501229772295,-0.03848661105638139
1.9852972858196516,-4.561830601829956,1.4177652568666657,0.09275897333785806
1.939678979801352,-4.710870337582615,1.4186928466000441,0.2334453542197945
1.8925702764255259,-4.867051711868388,1.421027300142242,0.382496399507421
1.843899759306842,-5.029641188252517,1.4248522641373162,0.5380456038332411
1.793603347424317,-5.197261123625478,1.4302327201756486,0.697136662226715
1.741630736188062,-5.367657526621382,1.4372040867979157,0.8553796267023177
1.6879541609218482,-5.537470541086157,1.445757883064939,1.0066197897801215
1.6325794555109867,-5.702086964107903,1.45582408096274,1.14273885919232
1.5755585858699077,-5.855703729044989,1.4672514695546632,1.2537802798313187
1.517001548579458,-5.991755028370869,1.4797892723529764,1.3286244258512212
1.4570839982957493,-6.103793571468313,1.4930755166114886,1.3563475008613657
1.3960460625810662,-6.186719969844425,1.5066389916201022,1.3281098190065657
1.3341788628826219,-6.2379771736255245,1.519920089810168,1.2390117413419464
1.2717990911463666,-6.25817684968125,1.5323102072235875,1.0891293560002855
1.2092173226495542,-6.250815917029485,1.5432015007835904,0.8832108990845671
1.1467091634792594,-6.221210424831234,1.552033609774436,0.629194524937978
1.084497059230947,-6.175155291952527,1.5583255550238158,0.336273985754248
1.0227455063114217,-6.117828459134785,1.5616882948813582,0.013273200545418085
0.9615672217200738,-6.053182582396314,1.5618210268868125,-0.3322955958330176
0.9010353958961107,-5.983784736280645,1.5584980709284824,-0.694525720407204
0.8411975485333043,-5.9109356279212495,1.5515528137244103,-1.0689939210461887
0.7820881922540918,-5.834906104548163,1.5408628745139485,-1.4524554209046996
0.7237391312086101,-5.7551881153527855,1.5263383203049015,-1.8425097666700556
0.6661872500550823,-5.670713284399612,1.5079132226382008,-2.237312455739666
0.6094801172110862,-5.580027114405139,1.4855400980808042,-2.6353566701373103
0.5536798460670348,-5.481423158373481,1.4591865313794312,-3.035324451280311
0.49886561448329997,-5.37304663019989,1.428833286866628,-3.435997435419167
0.44513514818130107,-5.252976722998309,1.3944733125124364,-3.836215685401026
0.392605380951318,-5.1192947355671174,1.3561111556584262,-4.234874408638324
0.34141243359564677,-4.970142582959497,1.313762411572043,-4.630950145244665
0.2917110077660518,-4.803774047502762,1.2674529101195964,-5.023549449144859
0.24367326729102418,-4.618599453714059,1.2172174156281477,-5.411973937833868
0.19748727275388359,-4.4132234279242795,1.163097676249809,-5.795795876005282
0.1533550384746408,-4.186475130576118,1.1051397174897564,-6.174938242863653
0.11149028716887963,-3.937430991155328,1.0433903350611198,-6.5497524724085565
0.07211597725732635,-3.6654318223264184,0.9778928103370342,-6.921085488485203
0.03546165903406217,-3.3700997448586487,0.9086819554521822,-7.29032463482223
0.0017606615854756785,-3.0513664914042242,0.8357787091039599,-7.659403342188534
-0.028753003328566566,-2.709534865521595,0.7591846756820746,-8.03073958710423
-0.05584835198378252,-2.3454118332426552,0.6788772798110323,-8.407059597591799
-0.07930247031620907,-1.9605783960552183,0.5948066838351143,-8.791025305114648
-0.09890825427676125,-1.5579015228299606,0.5068964307839677,-9.184529629595493
-0.11448726950506086,-1.14244517755576,0.4150511344880128,-9.587449025693072
-0.12591172128061845,-0.7229761109038438,0.31917664423108205,-9.995577872868852
-0.1331414823896569,-0.31419271793610026,0.21922086550239353,-10.397535888747285
-0.1362834095690179,0.06060821001365985,0.11524550661492068,-10.770961735976526
-0.1356773274688813,0.36786818819149036,0.0075358892551554285,-11.079831391764614
-0.13199864558696642,0.5664680217102093,-0.10326242466249072,-11.27732971454962
-0.12633396536986433,0.6187572814439846,-0.2160357218079869,-11.319587841571167
-0.12014639255542447,0.5082915247287417,-0.3292316002236986,-11.188216040204074
-0.11506347730813705,0.2515052243824787,-0.4411137606257393,-10.904801003342907
-0.11254842506431227,-0.10965563810676443,-0.5501617706591684,-10.520624557162067
-0.11364498144537992,-0.5280178760321048,-0.6553680162307891,-10.09039859039571
-0.11892516020570097,-0.966580321630329,-0.7562720021347462,-9.653465095152605
-0.12859096342200427,-1.4021439412623733,-0.8528066530862722,-9.23060388387669
-0.142612402834628,-1.822182301824854,-0.9451126919250391,-8.829154579882019
-0.16083422585287654,-2.2206393857888655,-1.0334042377238593,-8.448950740946051
-0.1830406197107652,-2.5948745262029793,-1.1178937451333197,-8.086410856071245
-0.208989364972795,-2.9438864715677053,-1.1987578536940322,-7.736829382004378
-0.23842822968847205,-3.26740271943338,-1.276126147514076,-7.395518125961184
-0.27110225688280587,-3.5654605473481262,-1.3500813287736877,-7.058322938806619
-0.30675686235628713,-3.838243739477511,-1.4206645581617539,-6.72182656285141
-0.3451392997510622,-4.086043210831046,-1.487882823790268,-6.383399867638897
-0.3859997318593727,-4.30927149141502,-1.5517168224666569,-6.041180578176144
-0.4290924467735229,-4.508494634148615,-1.6121286282484184,-5.694016380967517
-0.474177393115009,-4.684462970463572,-1.6690687920580936,-5.341389187185357
-0.5210220228196447,-4.838131759858592,-1.7224826839299472,-4.983328420423431
-0.5694033404182306,-4.970668167048338,-1.7723159681341816,-4.62031769516911
-0.619110022088714,-5.083444159117866,-1.8185191450858726,-4.253198198566016
-0.6699444636798927,-5.178016811823496,-1.8610511270715329,-3.88307198499131
-0.7217246317981276,-5.256098604935311,-1.899881846921446,-3.5112085021541604
-0.7742856178474807,-5.319520793086733,-1.9349939319429876,-3.138957655155862
-0.827480825778348,-5.370192986122748,-1.9663835084945462,-2.7676724729265842
-0.8811827556395755,-5.410061753117476,-1.994060233223812,-2.398643990726889
-0.9352833731707503,-5.441070458832073,-2.0180466731310807,-2.0330503967041205
-0.989694077759071,-5.465121725253991,-2.038377177098122,-1.6719219393251346
-1.044345295011611,-5.484042945646029,-2.0550963964913733,-1.3161226960517118
-1.0991857244680714,-5.499554204253337,-2.0682576234518906,-0.9663501959913088
-1.1541812665106048,-5.513236784626784,-2.0779211254118035,-0.6231541868014637
-1.2093136343568727,-5.526499173328087,-2.084152667279818,-0.28697662454208545
-1.2645786260901535,-5.5405360713638885,-2.087022433525239,0.04178372790144341
-1.3199839868037924,-5.556274453474693,-2.0866045962462247,0.36267698055044795
-1.3755467313385392,-5.574299376362863,-2.0829778264407204,0.6750711882333955
-1.431289725102168,-5.594751640605557,-2.0762271145583866,0.9779770707886952
-1.4872372415082236,-5.617190955634783,-2.0664473438504998,1.2698227730268408
-1.5434091510645713,-5.640424668903548,-2.0537491161202315,1.5481821207886053
-1.5998133977536069,-5.662317840591873,-2.0382672949123455,1.809482129205013
-1.6564365761595257,-5.67963079100752,-2.0201724736202955,2.0487584782107398
-1.713232884069601,-5.687976902275609,-1.9996848888381882,2.2595933629312746
-1.770112653092357,-5.682043194347542,-1.9770889552088755,2.434439254946425
-1.8269330850358325,-5.6562250350442955,-1.9527445626594113,2.565541666480092
-1.8834953353862756,-5.605720350129424,-1.9270891459946105,2.6465189210642146
-1.9395525388875698,-5.527864858908886,-1.9006239567839682,2.6742772622938173
-1.9948311874766587,-5.4231797449953545,-1.8738811841610301,2.6504965667541067
-2.0490629849266124,-5.295543466195467,-1.847376218493489,2.58184013890773
-2.102018419588567,-5.151298297435036,-1.8215578171044118,2.4786184046650996
-2.1535314025629173,-4.997715820491541,-1.7967716330577608,2.3525207779488255
-2.203508560767833,-4.841540784765303,-1.7732464252782725,2.2144577997463255
-2.2519239686154857,-4.688108684374489,-1.7511018472808093,2.0732360599986075
-2.2988050554592308,-4.541099536176358,-1.7303694866808232,1.9351642797362363
-2.3442160508209944,-4.402715118197025,-1.711017843883461,1.8042876092610274
-2.3882432020029647,-4.274029156793886,-1.6929749677908505,1.6828873761991652
-2.4309834935709036,-4.155344129409506,-1.6761460940288588,1.5720018270169986
-2.4725369348649986,-4.046481407732709,-1.6604260757586888,1.4718571914088905
-2.5130017489423255,-3.946990131683606,-1.6457075038445999,1.38218408076811
-2.552471650259162,-3.8562861010568286,-1.6318856630369187,1.3024329949090474
-2.59103451126973,-3.773738684388082,-1.6188613330878283,1.2319135612958543
-2.628771898113611,-3.698722184987454,-1.6065421974748697,1.1698806620920492
-2.6657591199634854,-3.6306441828487315,-1.5948433908539492,1.115585399426334
-2.7020655617919727,-3.568959559940577,-1.5836875368596859,1.068303578644035
-2.7377551573913785,-3.5131759514997465,-1.5730045010732456,1.0273502053519945
-2.772886916906376,-3.46285427973097,-1.5627309990197258,0.9920855032324742
-2.8075154597036858,-3.417606637130197,-1.5528101439874011,0.9619159413449788
-2.8416915260749875,-3.377092892299931,-1.5431909845739513,0.9362924411688628
-2.875462454997987,-3.341016828292363,-1.5338280601622627,0.9147070901332465
-2.9088726232809106,-3.3091222754054077,-1.5246809892609303,0.8966891564123942
-2.9419638460349646,-3.28118948840385,-1.5157140976968064,0.881800868018749
-2.974775740919003,-3.257031891277074,-1.506896089016619,0.8696332145471798
-3.007346059831774,-3.2364932383541247,-1.4981997568711471,0.8598019052341438
-3.039710992215315,-3.219445198419315,-1.4896017378188058,0.8519435423849644
-3.0719054441995084,-3.2057853456360945,-1.4810823023949562,0.8457120258535777
-3.1039632976558695,-3.195435529653238,-1.4726251821364205,0.8407751803541352
-3.135917652952402,-3.1883405923024375,-1.4642174303328792,0.8368115856448398
-3.167801058875426,-3.1844673967219745,-1.4558493144764308,0.833507585597041
-3.199645732842646,-3.1838041346094395,-1.4475142386204605,0.8305544532086305
-3.2314837741887406,-3.1863598773438304,-1.4392086940883742,0.8276456932781067
-3.263347372962179,-3.1921643360358885,-1.430932237155593,0.8244744720444008
-3.2952690163225378,-3.201267793478474,-1.422687492435149,0.8207311734811014
-3.3272816942573225,-3.2137411668712934,-1.414480180700338,0.8161010953772518
-3.3594191059260354,-3.2296761534855283,-1.4063191697465656,0.8102623154253871
-3.3917158674608907,-3.2491854014686887,-1.3982165465923118,0.8028837791265446
-3.4242077214755775,-3.2724026340540577,-1.3901877088010464,0.7936236885011078
-3.456931747816118,-3.299482636749876,-1.3822514719160353,0.782128304641929
-3.4899265741836167,-3.330600992823509,-1.374430188869616,0.7680313194544253
-3.523232584111852,-3.3659534217922666,-1.3667498756750718,0.7509540038686889
-3.5568921183297744,-3.405754538103185,-1.359240335636385,0.7305064025010695
-3.590949663710806,-3.450235802577996,-1.3519352716113742,0.7062899186804578
-3.625452021736586,-3.4996423881653187,-1.3448723724245697,0.6779017182274879
-3.6604484456182393,-3.5542286260581912,-1.338093355242295,0.6449414726296023
-3.695990731878821,-3.6142516423270634,-1.3316439405159988,0.6070210563414111
-3.732133248302092,-3.6799627458602022,-1.3255737299525847,0.5637778982352785
-3.768932875760694,-3.7515960965355886,-1.319935950970232,0.514892746718041
-3.80644883672605,-3.829354184040505,-1.3147870235030517,0.4601126165994443
-3.8447423785664547,-3.9133897039725336,-1.3101858973370573,0.39927960902912657
-3.88387627560618,-4.003783555275821,-1.306193101246766,0.3323660901774718
-3.9239141111589384,-4.100518931168122,-1.3028694403449912,0.25951632998986407
-3.9649193004706196,-4.203451862250125,-1.3002742770450926,0.18109409014725758
-4.006953819093121,-4.312279113429301,-1.29846333614362,0.09773477438178015
-4.050076610227413,-4.4265050324560855,-1.2974859883998022,0.010399610275092591
-4.094341660551974,-4.545409759748705,-1.2973819922970513,-0.07957203029032656
-4.139795758149461,-4.668022053589457,-1.2981777125999545,-0.17041751863566318
-4.186475978685356,-4.793100729179019,-1.2998818877863112,-0.25991974315080757
-4.234406985977146,-4.919129183129144,-1.3024810852178192,-0.34539736571842106
-4.283598277808437,-5.0443274954853905,-1.3059350588750034,-0.4237243297607709
-4.334041552763291,-5.1666860220701665,-1.310172302172611,-0.49138551555252874
-4.385708412983993,-5.284023143763024,-1.3150861573281363,-0.5445733289320274
-4.438548644421624,-5.394067967002396,-1.3205318906174566,-0.579326652030245
-4.492489324091648,-5.494566411002181,-1.326325157137759,-0.5917091661588271
-4.54743498820167,-5.583406465652279,-1.3322422487993473,-0.5780189306944234
-4.6032690528581925,-5.658755654507733,-1.3380224381062915,-0.5350157285251121
-4.65985660940327,-5.719201071656224,-1.3433725953915425,-0.46014760976840496
-4.717048620119832,-5.76388000981124,-1.3479740714892265,-0.35175395010583443
-4.774687420217944,-5.7925875555328945,-1.3514916109902848,-0.20922007922939898
-4.832613295773273,-5.8058472397281164,-1.3535838117825787,-0.033059258489917615
-4.890671768170554,-5.804932704348453,-1.3539144043674778,0.17509736656915323
-4.948721095214038,-5.791833017143747,-1.3521634307017862,0.41261265249814605
-5.006639425385476,-5.769161702774123,-1.3480373041768048,0.6760533963749602
-5.064331042413217,-5.740018659903121,-1.3412767702130552,0.9614792844129768
-5.121731229012248,-5.707822782658514,-1.3316619773689256,1.2647786771741594
-5.178809456838833,-5.676138829906056,-1.319014190597184,1.5820119931249825
-5.235570845137893,-5.64852310718293,-1.3031940706659342,1.9097248908530762
-5.292056076209723,-5.628408617941499,-1.2840968217574034,2.245203131486698
-5.348340162389138,-5.619042979957352,-1.2616447904425363,2.5866560229486715
-5.404530592188712,-5.6234841056160185,-1.2357782302130496,2.9333314686882654
-5.460765433244872,-5.644651902532518,-1.206444915526167,3.285579087828035
-5.5172119522701975,-5.6854306675066955,-1.1735891246478867,3.6448866262666515
-5.5740662589452645,-5.7488168471513745,-1.1371402583852201,4.013918967238843
-5.631554427416778,-5.8381098971081125,-1.0970010687128318,4.396589924954958
-5.689935526387859,-5.957149008438874,-1.0530351694632822,4.79819647171333
-5.749507016472248,-6.110603955320458,-1.005053204746149,5.2256440393864825
-5.810613056025453,-6.304331519064125,-0.9527967643522841,5.687788354326206
-5.873656371216094,-6.545803157731571,-0.895918880809022,6.19590566075764
-5.939114402793409,-6.844576244602983,-0.8339598242014457,6.7642536230377495
-6.007560165239439,-7.212667974451863,-0.7663172879710681,7.4105266771517035
-6.079686844983957,-7.664352346754178,-0.692212021199551,8.155538688204729
-6.156330368451499,-8.21394656898764,-0.6106566343175037,9.020136837151682
-6.238469834141376,-8.867657457683414,-0.5204552659459869,10.013864421518296
-6.32714640871821,-9.600168640309562,-0.420316621730804,11.10234049438317
-6.423148095121306,-10.301994033349498,-0.30929321678697225,12.133764964422896
-6.526168035454801,-10.716685981942316,-0.18795556714274328,12.751210328727629
-6.633334895274224,-10.535864147082279,-0.06044346385546698,12.52580821989493
-6.738693536745047,-9.783594856242189,0.06481461834348232,11.493700407416192
-6.836529485307469,-8.852362668288764,0.17975162241764425,10.203485792041343
-6.925053111990357,-8.021865043563208,0.2817864803380577,9.044423617142549
-7.005271762425989,-7.352189654248827,0.3722307165094832,8.100026019524371
-7.078793658968477,-6.821787777754091,0.4532309767047269,7.340775126645058
-7.147011536746018,-6.39836661264332,0.5266387279711775,6.722426810671571
-7.210995202872452,-6.055513044309036,0.5938629960778932,6.208923937023686
-7.271550333315542,-5.77388362723166,0.65595223544813,5.774007314803306
-7.329289169587859,-5.539569736380867,0.7136923085961631,5.398970470115207
-7.384684866951667,-5.342464994108181,0.7676820132973151,5.070444352148883
-7.438109516892749,-5.175062917196017,0.818386456818804,4.7787914188984475
-7.489860146064709,-5.03162853330268,0.8661743710077884,4.517026189858636
-7.540176431397736,-4.907631931855683,0.9113446329063748,4.280104213122296
-7.589252750716293,-4.799356267887655,0.9541456750375977,4.0644541354765815
-7.63724631339517,-4.703622798282387,0.9947902163923635,3.8676657172613913
-7.684282541377994,-4.617598482374921,1.0334668735649775,3.6882732574140227
-7.730458526201743,-4.538667694987115,1.0703496061391178,3.5255899590038164
-7.775845203151614,-4.464360337107379,1.105605505729156,3.3795581685287934
-7.820488806522688,-4.392334877852967,1.139401087414444,3.250587198220904
-7.864412155301218,-4.320416365625594,1.1719069593966531,3.1393584278549285
-7.907616318957474,-4.246685497548992,1.2033005436752024,3.0465897830161217
-7.950083173932963,-4.169605431365772,1.2337664415053637,2.9727698173150414
-7.991779228246621,-4.08816029882401,1.2634941396785142,2.917893137810139
-8.03266083123486,-4.00196841417369,1.2926730710566157,2.8812468259438067
-8.072680515376597,-3.911330867259471,1.3214855393160538,2.861302008835307
-8.111793824049192,-3.8171876999191534,1.3500985594044068,2.8557485303657333
-8.149965701048384,-3.7209782454194866,1.3786560447080642,2.8616753972976112
-8.187175483502578,-3.624430904344451,1.4072727986810403,2.8758581138468906
-8.223419792546023,-3.529328267442195,1.4360313798195092,2.8950844166903202
-8.258713075220445,-3.437297198159637,1.4649822239864125,2.916445223422737
-8.293086047202042,-3.3496601938992927,1.49414667622064,2.9375376886474456
-8.326582649141034,-3.2673620461593313,1.5235220531071143,2.956560217368566
-8.359256269602628,-3.19096485269878,1.5530876552808,2.9723099305733895
-8.391165918129616,-3.1206916916857788,1.5828107545865338,2.9841114481158524
-8.422372835046474,-3.0564960618508183,1.6126518690676923,2.991710223565086
-8.452937795664981,-2.9981377999303467,1.6425689713033431,2.9951581704798738
-8.482919173664285,-2.945252696846475,1.672520553008142,2.9947097309812585
-8.51237170063275,-2.8974094109241664,1.7024676503179546,2.990737267600222
-8.541345794741991,-2.8541520119619506,1.7323750229939567,2.983667853267548
-8.56988731486161,-2.8150293068144214,1.7622117015266323,2.9739395439130254
-8.598037607929754,-2.7796133644331227,1.7919510969657626,2.961973472236849
-8.625833741574086,-2.747509922161246,1.8215708316881312,2.9481577905446272
-8.653308840795699,-2.7183630894258526,1.8510524095935774,2.9328399242139596
-8.680492471689957,-2.691856293409699,1.880380808835717,2.916324309639197
-8.707411034624055,-2.667710918214648,1.909544051932109,2.898873519714729
-8.734088143806202,-2.6456836603098832,1.9385327871292564,2.8807113069271377
-8.760544980409302,-2.6255632858545943,1.9673399001985277,2.862026583586487
-8.786800613267848,-2.6071672271963378,1.9959601660343926,2.842977717064023
