th1 (rad),w1 (rad/s),th2 (rad),w2 (rad/s),a1 (rad/s^2),a2 (rad/s^2)
4.038385904932631,1.5613127509483509,0.6424948452112467,-0.10555078073365273,8.502023256434917,1.7432476537388588
4.053999032442114,1.6463329835127,0.6414393374039101,-0.08811830419626415,8.544239554688719,1.6431804860174881
4.070462362277241,1.7317753790595873,0.6405581543619475,-0.07168649933608927,8.574085104960195,1.510560352735181
4.087780116067837,1.8175162301091894,0.6398412893685866,-0.05658089580873746,8.590364653632346,1.342926594519159
4.105955278368929,1.9034198766455128,0.6392754804104993,-0.04315162986354587,8.592028696091962,1.1380272160743357
4.124989477135384,1.9893401636064325,0.6388439641118638,-0.03177135770280251,8.57821024871287,0.8938758998451544
4.1448828787714485,2.0751222660935613,0.6385262505348358,-0.02283259870435097,8.548262932063606,0.6088094893411699
4.165634101432384,2.160604895414197,0.6382979245477923,-0.01674450381093927,8.5017996352097,0.2815441566257786
4.187240150386526,2.245622891766294,0.6381304795096829,-0.013929062244681486,8.438730881032653,-0.08877185766278103
4.209696379304189,2.330010200576621,0.6379911888872362,-0.014816780821309296,8.359301861015506,-0.5025113578799606
4.232996481309955,2.413603219186776,0.637843021079023,-0.019841894400108903,8.264126965989568,-0.959529866466792
4.257132513501823,2.4962444888466715,0.6376446021350219,-0.029437193064776823,8.154220523057404,-1.4591387778791614
4.28209495839029,2.5777866940772456,0.6373502302043742,-0.044028580843568435,8.031022379678765,-2.00009303007076
4.307872825331062,2.6580969178740332,0.6369099443959385,-0.06402951114427603,7.896416979498743,-2.5805963068245683
4.334453794509802,2.7370610876690207,0.6362696492844957,-0.08983547421252172,7.752744679105548,-3.198326584180564
4.361824405386492,2.8145885344600763,0.6353712945423705,-0.12181874005432736,7.602804287934811,-3.850484426980078
4.3899702907310925,2.8906165773394243,0.6341531071418273,-0.16032358432412813,7.449846197321057,-4.533865811489091
4.418876456504487,2.965115039312635,0.632549871298586,-0.20566224243901904,7.29755601162026,-5.244960404626846
4.448527606897613,3.0380905994288376,0.6304932488741958,-0.2581118464852875,7.150029302184166,-5.980075207409814
4.478908512891902,3.1095908924506794,0.6279121304093429,-0.31791259855938564,7.011738953648151,-6.735482342917639
4.510004421816409,3.179708281987161,0.624733004423749,-0.385267421988562,6.8874975226975454,-7.5075886460943275
4.541801504636281,3.248583257214136,0.6208803302038634,-0.4603433084495053,6.782418027476005,-8.293123733085336
4.574287337208422,3.316407437488896,0.6162768971193683,-0.5432745457803586,6.70187756730311,-9.089342549823265
4.607451411583311,3.3834262131619273,0.6108441516615647,-0.6341679712785913,6.651489075257249,-9.894238184469986
4.64128567371493,3.4499411039144996,0.6045024719487788,-0.7331103531232911,6.637087283469373,-10.706761121784512
4.675785084754075,3.5163119767491935,0.5971713684175459,-0.8401779643411362,6.664735615041169,-11.527042232285353
4.710948204521567,3.582959332899605,0.5887695887741345,-0.9554483866639898,6.740761231602522,-12.356618693135646
4.746777797850563,3.65036694521563,0.5792151049074946,-1.0790145735953462,6.871825936087485,-13.198664750953592
4.78328146730272,3.7190852045765053,0.5684249591715411,-1.2110012211048822,7.065041182931761,-14.058232738345803
4.820472319348485,3.7897356164058227,0.5563149469604923,-1.3515835484883403,7.328136255389425,-14.94251399952815
4.858369675512543,3.863016978959717,0.5427991114756089,-1.5010086884836218,7.669689935252568,-15.861134310986882
4.89699984530214,3.9397138783122427,0.5277890245907727,-1.6596200315934906,8.099437917463822,-16.82650394159081
4.936396984085262,4.020708257486881,0.5111928242748378,-1.8278850710093988,8.628670958633842,-17.854248585552
4.976604066660131,4.106994967073219,0.4929139735647438,-2.0064275568649186,9.270742275062297,-18.963753763887116
5.017674016330863,4.199702389823842,0.4728496979960946,-2.1960650945037896,10.04170660383571,-20.178861199774396
5.059671040229102,4.300119455862199,0.4508890470510567,-2.3978537065015337,10.961116290934495,-21.52875923247793
5.102672234787724,4.409730618771544,0.42691050998604135,-2.613141298826313,12.052998462514704,-23.049105925524508
5.146769540975439,4.530260603396691,0.40077909699777825,-2.843632358081558,13.34702408085259,-24.783402435308098
5.192072147009405,4.663730844205217,0.37234277341696265,-3.091466382434639,14.879837180762486,-26.78457125677817
5.238709455451457,4.812529216012842,0.34142810959261627,-3.3593120950024207,16.696402375715795,-29.116535318416748
5.286834747611586,4.97949323977,0.30783498864259207,-3.6504774481865883,18.850965784029437,-31.85522040376243
5.336629680009286,5.168002897610294,0.27133021416072617,-3.9690296522242123,21.40662135384477,-35.087552218646
5.388309708985388,5.382069111148742,0.23163991763848404,-4.319905174410672,24.43112063996219,-38.905115138495205
5.442130400096875,5.626380317548364,0.1884408658943773,-4.708956325795624,27.98357913227375,-43.384948151012466
5.498394203272359,5.906216108871101,0.14135130263642107,-5.1428058073057485,32.08032968120871,-48.54096959814521
5.55745636436107,6.227019405683189,0.08992324456336358,-5.6282155032872,36.61523025312998,-54.211366248384124
5.619726558417902,6.593171708214489,0.03364108953049157,-6.170329165771042,41.18721584533691,-59.815705510061335
5.685658275500047,7.005043866667858,-0.028062202127218848,-6.768486220871655,44.76521540896827,-63.88380427864527
5.755708714166725,7.452696020757541,-0.09574706433593541,-7.407324263658108,45.17337369800631,-63.33293405750702
5.8302356743743005,7.904429757737604,-0.1698203069725165,-8.040653604233178,38.78133928375349,-53.03556946564555
5.909279971951676,8.292243150575139,-0.25022684301484827,-8.571009298889633,21.897926130280585,-27.78657667597474
5.992202403457427,8.511222411877945,-0.3359369360037446,-8.84887506564938,-4.366361989758415,10.84797296967551
6.077314627576206,8.46755879198036,-0.4244256866602384,-8.740395335952625,-30.250721229286533,49.112567248510544
6.16199021549601,8.165051579687496,-0.5118296400197646,-8.249269663467519,-44.938137221140096,71.73816756951813
6.243640731292885,7.715670207476095,-0.5943223366544398,-7.531887987772338,-47.302318093343075,77.05379923125058
6.3207974333676455,7.242647026542665,-0.6696412165321631,-6.761349995459832,-42.87315024020171,72.75606283302496
6.393223903633072,6.813915524140648,-0.7372547164867614,-6.033789367129582,-36.393677421289105,65.47972489148358
6.461363058874479,6.449978749927757,-0.7975926101580573,-5.378992118214747,-30.061325116486696,58.31613006853538
6.525862846373757,6.14936549876289,-0.8513825313402047,-4.795830817529393,-24.558486108631367,52.23918142493371
6.587356501361386,5.903780637676577,-0.8993408395154986,-4.273439003280056,-19.962260813831357,47.370708183757664
6.646394307738151,5.704158029538263,-0.9420752295482991,-3.799731921442479,-16.163474792087168,43.56464939962281
6.703435888033534,5.542523281617392,-0.980072548762724,-3.364085427446251,-13.020581711714703,40.622467032620804
6.758861120849708,5.412317464500244,-1.0137134030371866,-2.957860757120043,-10.407482498412412,38.36072678521469
6.81298429549471,5.30824263951612,-1.043292010608387,-2.574253489267896,-8.223886091780319,36.6263417593376
6.8660667218898705,5.226003778598317,-1.069034545501066,-2.20799007167452,-6.393827991840523,35.29522772542405
6.918326759675853,5.162065498679912,-1.091114446217811,-1.8550377944202796,-4.861247779933095,34.266873370828215
6.969947414662652,5.113453020880581,-1.109664824162014,-1.5123690607119975,-3.585473212692229,33.45888967491919
7.021081944871458,5.077598288753658,-1.1247885147691339,-1.1777801639628056,-2.537357761863973,32.802652797847216
7.071857927758995,5.052224711135018,-1.136566316408762,-0.8497536359843334,-1.6961373969560516,32.24017355627158
7.122380174870345,5.035263337165458,-1.1450638527686055,-0.5273519004216176,-1.0468900633896445,31.722032634336436
7.172732808241999,5.024794436531561,-1.1503373717728216,-0.21013157407825322,-0.5784666607528378,31.206154748455784
7.222980752607315,5.019009769924033,-1.1524386875136041,0.10192997340630461,-0.2817970035630811,30.65719613656596
7.273170850306555,5.016191799888402,-1.1514193877795411,0.4085019347719642,-0.14851603706598432,30.046335848223432
7.3233327683054394,5.014706639517742,-1.1473343684318216,0.7089652932541985,-0.1698893136691736,29.351279756242672
7.373479834700617,5.01300774638105,-1.1402447154992796,1.0024780908166253,-0.3360370028645753,28.55630785476799
7.4236099121644274,5.0096473763524045,-1.1302199345911135,1.2880411693643052,-0.6354612454457851,27.652224143771303
7.473706385927952,5.003292763897947,-1.1173395228974705,1.5645634108020183,-1.0548738503202044,26.636106572951032
7.5237393135669315,4.992744025394745,-1.1016938887894503,1.8309244765315287,-1.5793037881391636,25.510801040391545
7.573666753820879,4.976950987513353,-1.083384644024135,2.0860324869354443,-2.1924419833807276,24.284153649498823
7.6234362636960125,4.955026567679546,-1.0625243191547806,2.3288740234304326,-2.877160535740359,22.968022309659315
7.672986529372808,4.926254962322143,-1.0392355789204764,2.558554246527026,-3.616129994132575,21.577145042396953
7.722249078996029,4.890093662380817,-1.0136500364552061,2.7743256969509953,-4.392454966641773,20.127962662394836
7.771150015619837,4.846169112714399,-0.9859067794856962,2.9756053235749436,-5.190255807014481,18.637495904509795
7.819611706746981,4.794266554644254,-0.9561507262499467,3.1619802826200414,-5.99514043867021,17.122363401043096
7.867554372293424,4.734315150257553,-0.9245309234237462,3.333203916630472,-6.794531889620098,15.598001969985427
7.914897523795999,4.666369831361352,-0.8911988842574415,3.4891839363303263,-7.577839593823634,14.078120644723633
7.961561222109613,4.590591435423115,-0.8563070448941382,3.6299651427775625,-8.336482303267452,12.574390680418064
8.007467136463845,4.507226612390441,-0.8200073934663626,3.755709049581743,-9.063785158880556,11.096349825984063
8.05253940258775,4.416588760801635,-0.7824503029705452,3.866672547841584,-9.754782171145356,9.651482809259633
8.096705290195766,4.319040939090182,-0.7437835774921293,3.9631873759341802,-10.405958403280225,8.245431646591395
8.139895699586669,4.21498135505738,-0.7041517037327875,4.045641692400094,-11.014964678835424,6.882288026532679
8.182045513137243,4.1048317082690255,-0.6636952868087865,4.114464572665421,-11.580333123950837,5.564923839551938
8.223093830219934,3.989028377029517,-0.6225506410821323,4.17011381106094,-12.101215719149586,4.295322972791318
8.26298411399023,3.8680162198380215,-0.5808495029715229,4.213067040788853,-12.577161413714862,3.0748860368658972
8.30166427618861,3.742244605700873,-0.5387188325636344,4.243815901157512,-13.007941029006718,1.904688444719923
8.33908672224562,3.612165195410806,-0.4962806735520593,4.262862785604711,-13.39342359891018,0.7856803811637748
8.375208374199728,3.478230959421704,-0.4536520456960122,4.270719589416349,-13.733503171610264,-0.2811757701232545
8.409990683793945,3.340895927705601,-0.4109448498018487,4.2679078317151165,-14.028071476662383,-1.2948292230117235
8.443399643071,3.200615212938977,-0.3682657714846975,4.254959539484999,-14.277029215146639,-2.254120037530142
8.47540579520039,3.057844920787511,-0.32571617608984754,4.232418339109698,-14.480326999834723,-3.157804844005155
8.505984244408264,2.9130416507891637,-0.2833919926987506,4.200840290669646,-14.638026092472467,-4.004618025381064
8.535114660916156,2.766661389864439,-0.24138358979205413,4.160794110415836,-14.75036898935392,-4.793356373463152
8.5627812748148,2.6191576999709,-0.19977564868789577,4.112860546681204,-14.81785051529039,-5.522975240759841
8.588972851814509,2.4709791948179958,-0.15864704322108372,4.057630794273606,-14.841281297095483,-6.192685066890123
8.613682643762688,2.322566381847041,-0.11807073527834766,3.9957039436047044,-14.821837166871244,-6.802038715033314
8.636908307581159,2.1743480101783286,-0.07811369584230062,3.927683556454371,-14.761090028611648,-7.3510021238307495
8.658651787682942,2.026737109892212,-0.0388368602777569,3.8541735352160638,-14.661017825052722,-7.840003151004766
8.678919158781865,1.8801269316416849,-0.00029512492559626013,3.775773503706016,-14.523993279084324,-8.269955933701938
8.69772042809828,1.7348869988508415,0.0374626101114639,3.693073944368997,-14.352752887394928,-8.642260405188113
8.715069298086789,1.5913594699768923,0.07439334955515386,3.6066513403171157,-14.150349082400986,-8.9587786090741
8.730982892786558,1.4498559791528824,0.11045986295832502,3.517063554226375,-13.920089471162159,-9.221791012355824
8.745481452578087,1.3106550844412608,0.14563049850058876,3.4248456441028168,-13.665467581355982,-9.433937069040024
8.7585880034225,1.174000408627701,0.17987895494161693,3.3305062734124165,-13.390089620701279,-9.598144819398224
8.770328007508777,1.0400995124206882,0.2131840176757411,3.2345248252184344,-13.09760145505265,-9.717554370923548
8.780729002632985,0.9091234978701617,0.24552926592792546,3.137349281509199,-12.791619425992158,-9.795439779424497
8.789820237611686,0.78120730361024,0.27690275874301745,3.0393948837149543,-12.475667866218876,-9.835133237825602
8.797632310647789,0.6564506249480513,0.307296707580167,2.941043551336698,-12.153125332065983,-9.83995469714044
8.804196816897269,0.5349193716273914,0.33670714309353394,2.842644004365294,-11.827180744525618,-9.813149191719646
8.809546010613543,0.4166475641821353,0.3651335831371869,2.7445125124480976,-11.500799879985038,-9.75783330484043
8.813712486255364,0.30163956538228487,0.3925787082616679,2.646934179399693,-11.176702023215054,-9.67695145429739
8.816728881909187,0.18987254515013433,0.4190480500556648,2.550164664856719,-10.857346109867999,-9.573242040979757
8.818627607360689,0.08129908405145433,0.444549696704232,2.4544322444469215,-10.544925347306801,-9.449213005500184
8.819440598201204,-0.024150169421613674,0.4690940191487012,2.35994011439192,-10.241369100723729,-9.307125980652305
8.819199096506988,-0.12656386042885098,0.49269342029262037,2.2668688545853968,-9.948350747080843,-9.148988000280426
8.8179334579027,-0.2260473678996594,0.5153621088384743,2.1753789745825927,-9.667300208819293,-8.976549609744593
8.815672984223704,-0.32272036998785236,0.5371158985843003,2.0856134784851466,-9.399419958014034,-8.791308197516848
8.812445780523825,-0.4167145695679927,0.5579720333691518,1.997700396509978,-9.145703406757416,-8.594515408912121
8.808278634828145,-0.5081716036355668,0.5779490373342516,1.9117552424208568,-8.906954751229142,-8.387187590458076
8.80319691879179,-0.5972411511478583,0.5970665897584602,1.8278833665162761,-8.683809499207266,-8.170118328732036
8.79722450728031,-0.6840792461399309,0.615345423423623,1.7461821832289557,-8.476755071725101,-7.943892275866299
8.79038371481891,-0.7688467968571819,0.6328072452559125,1.6667432604702928,-8.28615102089801,-7.708899584084909
8.782695246850338,-0.8517083070661621,0.6494746778606154,1.5896542646294436,-8.112248542505563,-7.465350395557885
8.774178163779677,-0.9328307924912177,0.6653712205069099,1.5150007606738647,-7.955209081124209,-7.213288946278488
8.764849855854765,-1.0123828833024597,0.6805212281136486,1.4428678712110798,-7.815121926782924,-6.952606940554247
8.75472602702174,-1.090534102570289,0.6949499068257594,1.3733418018055374,-7.692020785922892,-6.683055934710223
8.743820685996036,-1.1674543104295179,0.7086833248438148,1.3065112424584353,-7.585899377419886,-6.40425853460548
8.732146142891741,-1.2433133042037168,0.7217484372683991,1.2424686571123804,-7.49672615860684,-6.115718262242
8.719713009849704,-1.3182805657897851,0.7341731238395229,1.1813114744899604,-7.424458328856044,-5.816827983266456
8.706530204191806,-1.3925251490783457,0.7459862385844226,1.1231431946572958,-7.369055291600736,-5.506876810962394
8.692604952701021,-1.4662157019943531,0.7572176705309955,1.0680744265476718,-7.3304917818155255,-5.185055414933821
8.677942795681078,-1.5395206198125084,0.7678984147964723,1.0162238723983337,-7.308770886836047,-4.850459665648387
8.662547589482953,-1.612608328680869,0.7780606535204556,0.9677192757418498,-7.303937205594311,-4.502092540899128
8.646421506196145,-1.685647700736812,0.7877378462778741,0.9226983503328585,-7.316090406145358,-4.138864208674478
8.629565029188777,-1.7588086047982656,0.7969648297812028,0.8813097082461138,-7.345399454619057,-3.7595901846895052
8.611976943140794,-1.8322625993444561,0.8057779268636639,0.8437138063992187,-7.392117800781335,-3.3629874441129584
8.59365431714735,-1.9061837773522694,0.814215064927656,0.810083931958089,-7.456599815870063,-2.947668348740324
8.574592479373827,-1.98074977551097,0.822315904247237,0.7806072484706857,-7.539318785930543,-2.5121322371827475
8.554784981618717,-2.0561429633702755,0.8301219767319439,0.7554859260988582,-7.640886765699104,-2.0547545227876705
8.534223551985013,-2.1325518310272664,0.8376768359929324,0.7349383808709815,-7.762076589126889,-1.5737731614745856
8.512898033674741,-2.2101725969185355,0.8450262198016423,0.7192006492562356,-7.903846304410533,-1.0672724041046597
8.490796307705557,-2.289211059962641,0.8522182262942046,0.708527925215189,-8.067366240043672,-0.5331638580995322
8.46790419710593,-2.3698847223630777,0.8593035055463565,0.7031962866341938,-8.254048791661818,0.03083491398967786
8.4442053498823,-2.4524252102796957,0.8663354684126984,0.7035046357740905,-8.465580811885472,0.6272236806517254
8.419681097779502,-2.5370810183985504,0.8733705147704393,0.7097768725806077,-8.703958130848452,1.258743550667606
8.394310287595516,-2.6241205997070347,0.8804682834962453,0.7223643080872838,-8.971521145025095,1.9283995952973818
8.368069081598446,-2.713835811157286,0.8876919265771182,0.7416483040402576,-9.270989446751482,2.6394784534936506
8.340930723486872,-2.8065457056248007,0.8951084096175207,0.7680430885751941,-9.605491906990503,3.395554878393202
8.312865266430624,-2.902600624694706,0.9027888405032727,0.8019986373591261,-9.978586125178316,4.200477380622169
8.283839260183676,-3.002386485946489,0.9108088268768639,0.8440034111653478,-10.394257184625173,5.05831715710985
8.25381539532421,-3.1063290577927405,0.9192488609885174,0.8945865827364463,-10.856879365272817,5.97325517143006
8.222752104746283,-3.2148978514454685,0.9281947268158819,0.9543191344507469,-11.371114586400646,6.949367755972395
8.190603126231828,-3.328608997309475,0.9377379181603893,1.0238128120104708,-11.941705949223852,7.990248717215313
8.157317036258734,-3.4480260568017136,0.947976046280494,1.103715299182624,-12.573101002863199,9.09837169939173
8.122836775690716,-3.5737570668303458,0.9590131992723203,1.1946990161765414,-13.268803370482338,10.274045103710037
8.087099205022414,-3.706445100535169,0.9709601894340857,1.2974394672136418,-14.030298324053403,11.513736602169287
8.050034754017062,-3.846748083775703,0.9839345841062221,1.4125768332353346,-14.855323281284047,12.8074393581329
8.011567273179304,-3.9953013165885434,0.9980603524385755,1.5406512268166637,-15.735157954202556,14.134618332683642
7.9716142600134186,-4.152652896130569,1.0134668647067422,1.6819974101435,-16.65050627816905,15.458135828431553
7.9300877310521125,-4.3191579589122595,1.0302868388081772,1.8365787684278156,-17.56548896168316,16.715492349911976
7.88689615146299,-4.494812848529091,1.0486526264924554,2.0037336919269353,-18.419407935377823,17.80694361202693
7.841948022977699,-4.679006927882869,1.0686899634117248,2.1818031280472048,-19.116601670665492,18.58102536576782
7.795157953698871,-4.870172944589524,1.090507994692197,2.3676133817048832,-19.51645532706621,18.820550198966213
7.7464562242529755,-5.065337497860186,1.1141841285092458,2.5558188836945455,-19.42917947332528,18.237249992791398
7.695802849274374,-5.25962929259344,1.1397423173461911,2.7381913836224596,-18.628383653682153,16.490985690632808
7.6432065563484395,-5.445913129130261,1.1671242311824157,2.9031012405287875,-16.89588165857239,13.255711695944166
7.588747425057137,-5.6148719457159855,1.1961552435877036,3.035658357488229,-14.108658327484623,8.346410896293435
