th1 (rad),w1 (rad/s),th2 (rad),w2 (rad/s),a1 (rad/s^2),a2 (rad/s^2)
3.963809578773081,2.3360351500231333,5.001311432687348,-3.082015443896728,11.571990575455844,-1.1883604608463467
3.9871699302733123,2.4517550557776917,4.97049127824838,-3.0938990485051914,11.907173239368936,-2.127595754124038
4.011687480831089,2.570826788171381,4.939552287763328,-3.1151750060464316,12.310263861633064,-3.1218958758480646
4.037395748712803,2.6939294267877116,4.908400537702864,-3.146393964804912,12.780630396191778,-4.170758698605946
4.06433504298068,2.8217357307496296,4.876936598054815,-3.1881015517909717,13.314507779992837,-5.268762691704519
4.092552400288176,2.954880808549558,4.845055582536905,-3.2407891787080167,13.90295241482349,-6.402576956449354
4.122101208373672,3.093910332697793,4.8126476907498255,-3.30481494827251,14.528856517815786,-7.54662609471347
4.15304031170065,3.239198897875951,4.779599541267101,-3.380281209219645,15.16279246829267,-8.65708388332754
4.18543230067941,3.3908268225588776,4.745796729174904,-3.46685204805292,15.757639021187051,-9.66412992288485
4.2193405689049985,3.548403212770748,4.711128208694375,-3.5634933472817685,16.242482638435238,-10.463174941518613
4.254824601032706,3.7108280391551003,4.675493275221557,-3.6681250966969547,16.517481812896524,-10.90746005821131
4.291932881424257,3.8760028572840657,4.638812024254587,-3.777199697279068,16.45348054092608,-10.80741927627069
4.330692909997098,4.0405376626933265,4.601040027281797,-3.8852738900417747,15.902843751279656,-9.94601910185674
4.371098286624031,4.199566100206123,4.562187288381379,-3.984734081060342,14.729294947312331,-8.121172126806314
4.413093947626092,4.346859049679247,4.522339947570775,-4.065945802328405,12.859917348024156,-5.2198230427744985
4.456562538122885,4.475458223159488,4.481680489547491,-4.11814403275615,10.347072909891896,-1.3065164490261545
4.5013171203544795,4.578928952258407,4.440499049219929,-4.131209197246411,7.405770875999632,3.3222806097063216
4.547106409877063,4.652986661018403,4.399186957247466,-4.097986391149348,4.385177853330363,8.176789937639963
4.593636276487247,4.696838439551707,4.358207093335972,-4.016218491772949,1.66677803629808,12.716711787555203
4.640604660882764,4.713506219914687,4.318044908418242,-3.889051373897397,-0.45950074504425786,16.52637094539899
4.687739723081911,4.708911212464245,4.279154394679268,-3.723787664443407,-1.8676489675365775,19.418438267866154
4.734828835206554,4.690234722788879,4.241916518034834,-3.5296032817647456,-2.586570523572686,21.423386514848282
4.781731182434442,4.664369017553152,4.206620485217187,-3.315369416616263,-2.739418709437076,22.70567251785822
4.828374872609974,4.636974830458781,4.173466791051025,-3.0883126914376806,-2.47883675096832,23.473237634798757
4.874744620914561,4.612186462949098,4.142583664136648,-2.853580315089693,-1.9449241947595042,23.918208789928848
4.920866485544052,4.592737221001503,4.114047860985751,-2.6143982271904047,-1.24797852556125,24.19202114487989
4.966793857754067,4.5802574357458905,4.087903878713847,-2.372478015741606,-0.4670835871093424,24.402689535905825
5.0125964321115255,4.575586599874797,4.064179098556432,-2.1284511203825476,0.3443849694666799,24.62182547568861
5.0583522981102735,4.579030449569464,4.042894587352606,-1.8822328656256615,1.1517368779753203,24.893858914368998
5.104142602605968,4.590547818349217,4.024072258696349,-1.6332942764819716,1.9327790551470894,25.244156467600202
5.15004808078946,4.609875608900688,4.00773931593153,-1.3808527118059695,2.6730989634676923,25.68512183915644
5.196146836878468,4.636606598535365,3.99393078881347,-1.1240014934144051,3.362726596832297,26.220391591065336
5.2425129028638215,4.670233864503688,3.982690773879326,-0.8617975775037517,3.993868760625457,26.847548176872824
5.289215241508859,4.710172552109943,3.9740727981042885,-0.5933220957350235,4.559410402756017,27.559781647735434
5.336316967029958,4.755766656137503,3.968139577146938,-0.3177242792576691,5.0519446662306,28.346848591723663
5.383874633591334,4.806286102799809,3.9649623343543614,-0.03425579334043244,5.463165866561475,29.195585606030143
5.431937494619332,4.860917761465424,3.964619776420957,0.257700062719869,5.7835187425996795,30.090161240290342
5.480546672233986,4.91875294889142,3.967196777048156,0.5586016751227725,6.002040317329494,31.012198215885753
5.5297342017229,4.9787733520647155,3.9727827937993836,0.86872365728163,6.106359851417731,31.940862693483318
5.579521935243547,5.039836950578893,3.9814700303721997,1.1881322842164632,6.082840774357688,32.85299392495241
5.629920304749336,5.10066535832247,3.9933513532143645,1.5166622234659872,5.916858688199051,33.72333092659083
5.680926958332561,5.15983394520446,4.008517975449024,1.8538955327318956,5.593213393406187,34.52487913047758
5.732525297784606,5.215766079138522,4.027056930776343,2.1991443240366713,5.096671714094197,35.229446763016405
5.784682958575991,5.266732796279464,4.04904837401671,2.5514387916668353,4.41263279620819,35.80836652357931
5.837350286538785,5.310859124241546,4.074562761933378,2.9095224569026286,3.5278995911996467,36.23340257572623
5.890458877781201,5.346138120153542,4.103657986502404,3.271856482659891,2.4315305660447617,36.47782639437783
5.943920258982737,5.37045342581399,4.136376551329003,3.636634746603669,1.115735477265807,36.51762875755599
5.997624793240877,5.381610780586648,4.17274289879504,4.001811034179229,-0.42323062482732965,36.33282052489972
6.051440901046743,5.377378474338375,4.212761009136832,4.365139239428227,-2.1842293716322336,35.90876301673543
6.105214685790127,5.355536180622052,4.256412401531114,4.724226869595581,-4.1605179638145495,35.237460424502544
6.158770047596348,5.3139310009839065,4.30365467022707,5.076601473840607,-6.339210928345599,34.318741635932255
6.211909357606187,5.25053889170045,4.3544206849654765,5.419788890199929,-8.700993958410917,33.1612565388899
6.264414746523191,5.163528952116341,4.408618573867476,5.751401455588828,-11.220159906432407,31.78321182056203
6.316050036044355,5.051327353052017,4.466132588423364,6.069233573794449,-13.865033777736002,30.212774060011448
6.366563309574875,4.912677015274657,4.526824924161309,6.371361314394563,-16.598843425175936,28.488075750156284
6.4156900797276215,4.746688581022897,4.590538537305254,6.656242071896126,-19.381072151263638,26.656776645840388
6.46315696553785,4.552877859510261,4.657100958024215,6.92280983835453,-22.169295982864526,24.775162951510943
6.508685744132952,4.331184899681616,4.726329056407761,7.170561467869639,-24.921462134705127,22.906813298920525
6.5519975931297685,4.081970278334564,4.798034671086457,7.3996296008588445,-27.59851071399307,21.120922331480344
6.592817295913114,3.8059851711946338,4.8720309670950455,7.610838824173648,-30.167188589746598,19.490443584214287
6.63087714762506,3.504313285297168,4.948139355336782,7.805743260015791,-32.602865535140474,18.090281351070587
6.665920280478032,3.178284629945763,5.026196787936939,7.986646073526496,-34.89215090888193,16.995811282233475
6.69770312677749,2.829363120856944,5.106063248672204,8.156604186348831,-37.03513136975734,16.28202687524572
6.725996757986059,2.4590118071593703,5.187629290535693,8.319424455101288,-39.047102496263484,16.023582315536835
6.750586876057652,2.0685407821967354,5.270823535086706,8.479660278256656,-40.95972989619534,16.295921473488477
6.77127228387962,1.658943483234782,5.3556201378692725,8.64261949299154,-42.821607053927494,17.177529749964066
6.787861718711968,1.230727412695507,5.442046332799188,8.814394790491182,-44.698102515628804,18.753065929795014
6.800168992838922,0.783746387539219,5.530190280704099,9.001925449789132,-46.67006614047405,21.116577525244224
6.808006456714314,0.3170457261344785,5.62020953520199,9.213091225041575,-48.83010213992557,24.372808096486008
6.811176913975659,-0.17125529526477723,5.712340447452406,9.456819306006436,-51.273084967779724,28.63190930704343
6.809464361023012,-0.6839861449425745,5.806908640512471,9.74313839907687,-54.07301798481897,33.98674889000079
6.802624499573586,-1.2247163247907642,5.904340024503239,10.083005887976878,-57.228369715857276,40.4484206987341
6.790377336325678,-1.797000021949337,6.005170083383008,10.487490094964219,-60.537716787053846,47.78734791272852
6.772407336106184,-2.4023771898198754,6.11004498433265,10.965363574091505,-63.333065027274245,55.17838217910765
6.748383564207986,-3.035707840092618,6.219698620073565,11.517147395882581,-63.97298604311503,60.50887149656832
6.7180264858070595,-3.6754377005237684,6.334870094032391,12.122236110848265,-59.1421184404902,59.39767173315719
6.681272108801822,-4.26685888492867,6.456092455140874,12.716212828179836,-43.836627862118256,45.10895105249056
6.638603519952535,-4.705225163549852,6.583254583422673,13.167302338704742,-14.69742378993281,13.00292262401767
6.591551268317037,-4.85219940144918,6.71492760680972,13.297331564944919,22.41688709129762,-29.244728461196505
6.543029274302545,-4.628030530536204,6.84790092245917,13.004884280332954,52.16646900963726,-61.43481578611217
6.496748968997183,-4.106365840439832,6.977949765262499,12.390536122471833,65.3783667920812,-72.03257518384365
6.455685310592785,-3.45258217251902,7.101855126487218,11.670210370633397,66.11555558375062,-67.120338104454
6.421159488867595,-2.791426616681514,7.218557230193552,10.999006989588857,61.68906523585927,-56.55697013991673
6.39324522270078,-2.174535964322921,7.328547300089441,10.433437288189689,56.28792310886046,-45.6946445810866
6.371499863057551,-1.6116567332343166,7.432881672971337,9.976490842378823,51.431572494304454,-36.29295075946168
6.355383295725208,-1.097341008291272,7.5326465813951256,9.613561334784206,47.455897745715944,-28.607638003145922
6.344409885642295,-0.6227820308341125,7.628782194742968,9.327484954752746,44.299081578243296,-22.440144508522007
6.338182065333954,-0.17979121505167955,7.722057044290495,9.103083509667526,41.8000480989719,-17.514507059860428
6.336384153183437,0.23820926593803943,7.8130878793871705,8.927938439068921,39.79493145830669,-13.58718542912982
6.338766245842818,0.6361585805211063,7.90236726377786,8.792066584777622,38.142462823504346,-10.467662205070432
6.345127831648028,1.0175832087561498,7.990287929625636,8.687389962726918,36.7267665660072,-8.01309123467799
6.35530366373559,1.3848508744162218,8.077161829252905,8.607259050380138,35.454156895593684,-6.11749305762184
6.369152172479753,1.7393924433721586,8.163234419756707,8.54608411980392,34.24925099399183,-4.7014905116925325
6.386546096913475,2.081884953312077,8.248695260954745,8.499069214686994,33.05186790092661,-3.7039358733229255
6.407364946446595,2.412403632321343,8.333685953101615,8.462029855953764,31.814912529419715,-3.075431596138856
6.4314889827698085,2.7305527576155404,8.418306251661152,8.431275539992376,30.50305406514491,-2.7734538459750144
6.458794510345964,3.0355832982669897,8.502619007061076,8.403541001532625,29.091913714572165,-2.7588025191899153
6.4891503433286335,3.3265024354127113,8.586654417076403,8.375952976340725,27.56748187408526,-2.9931764184066045
6.52241536768276,3.6021772541535637,8.67041394683981,8.346021212156659,25.92552679156015,-3.4377307301030497
6.558437140224296,3.8614325220691654,8.753874158961377,8.311643904855629,24.17081733752494,-4.052497476393237
6.597051465444988,4.103140695444415,8.836990598009933,8.271118930091696,22.31605491615761,-4.796541447815736
6.638082872399432,4.3263012446059905,8.919701787310851,8.223153515613538,20.380487329292585,-5.628696533870973
6.681345884845491,4.530106117898916,9.001933322466986,8.166866550274827,18.388251380177294,-6.50869603408654
6.726646946024481,4.71398863170069,9.083601987969734,8.101779589933962,16.366550503449808,-7.398490441729185
6.773786832341488,4.877654136735187,9.164619783869075,8.02779468551667,14.3438095373916,-8.26354798660772
6.82256337370884,5.021092232109103,9.244897730724242,7.945159205650592,12.347956155347337,-9.07396064742209
6.872774296029931,5.1445717936625766,9.324349322780748,7.854419599176371,10.40495874733747,-9.805227680248953
6.924220013966557,5.248621381135951,9.402893518772512,7.756367322373881,8.537710656396216,-10.438650462366592
6.976706227777917,5.333998487699914,9.480457191996251,7.651980817750215,6.7653010637586455,-10.961334636965857
7.0300462126549155,5.4016514983375,9.556977000173754,7.542367471380556,5.102664343103822,-11.365847328163854
7.08406272763829,5.452678141768539,9.63240067488756,7.428708998098918,3.5605609172613675,-11.649611591505874
7.138589509055976,5.488283750941153,9.70668776486855,7.312212882183859,2.1458182262555154,-11.814135186988326
7.193472346565387,5.509741933203708,9.779809893690388,7.194071530313976,0.861751002176727,-11.864168445285367
7.248569765897424,5.518359443225475,9.851750608993527,7.075429845861122,-0.2913167840004333,-11.80687139185912
7.303753360329679,5.515446275385471,9.922504907452138,6.957361131942531,-1.3154942409035275,-11.651049201143325
7.358907823083534,5.502291332976435,9.992078518771564,6.840850639931098,-2.2147801550863004,-11.406492640747
7.413930736413298,5.480143531425572,10.060487025170875,6.726785713523628,-2.9945673294295445,-11.08344012766008
7.468732171727554,5.450197858131276,10.127754882306112,6.615951312247027,-3.6612133771053976,-10.69216237659407
7.523234150308867,5.413585724360223,10.193914395428582,6.509029688481086,-4.221685019430157,-10.242659965811878
7.577370007552469,5.371368874165921,10.259004692313393,6.406603088822967,-4.683274673468615,-9.744458083045513
7.631083696294128,5.3245361274312355,10.323070723201623,6.309158507992512,-5.05338296679144,-9.206480322003713
7.684329057568441,5.274002297763321,10.386162308281548,6.217093704772475,-5.33935817652689,-8.63698359731531
7.737069080546074,5.220608715998052,10.448333245329273,6.130723868799322,-5.548382764624301,-8.043538028987758
7.789275167706054,5.1651248883518095,10.509640484017266,6.050288488509445,-5.687397532043278,-7.433038210166334
7.840926416589572,5.108250913031377,10.570143368902361,5.975958106407782,-5.76305492500309,-6.811735038051492
7.892008925719886,5.050620363781346,10.62990294996644,5.907840756027267,-5.781694320266825,-6.185279892708328
7.9425151293577,4.992803420578678,10.688981357526712,5.845987957100183,-5.7493334456310015,-5.558775196442766
7.992443163563487,4.935310086122368,10.747441237097714,5.7904002051357555,-5.671671311127808,-4.936827202383545
8.041796264424711,4.87859337301109,10.805345239149071,5.74103193311192,-5.554099065515249,-4.323598247411066
8.090582198154822,4.823052382355938,10.86275555848019,5.697795950637809,-5.401716030730785,-3.7228567077606
8.13881272197838,4.76903522204863,10.919733517986568,5.660567383560203,-5.219348813293466,-3.1380235812054345
8.186503074198868,4.716841733915695,10.97633919182217,5.629187147748148,-5.011571870918494,-2.572215057442377
8.233671491538024,4.66672601520651,11.032631063299652,5.603464997173724,-4.782728255753155,-2.0282806930528583
8.280338751690088,4.6188987326489785,11.08866571327139,5.583182190243195,-4.5369494940069055,-1.5088369350082413
8.326527739016578,4.573529237708909,11.144497535173821,5.568093820893113,-4.278173724146576,-1.0162957826353667
8.372263031393667,4.530747500467443,11.200178473382753,5.557930863066759,-4.010161327309841,-0.5528883779989089
8.417570506398341,4.490645887194345,11.25575778201342,5.5524019792867705,-3.736507365280417,-0.1206832961548317
8.462476965270286,4.453280813541541,11.311281801806288,5.551195146325222,-3.46065021082281,0.2784007096652935
8.5070097734057,4.418674311433313,11.36679375326954,5.553979153421875,-3.1858758269353333,0.6425877516677566
8.551196516520033,4.386815553163959,11.42233354480376,5.560405030938552,-2.9153172376795804,0.9702438532196888
8.595064672051672,4.357662380787164,11.477937595113145,5.5701074694707495,-2.6519488435073,1.2598821418160815
8.638641295859543,4.331142892352091,11.533638669807853,5.58270629088891,-2.398575376106552,1.5101742225682002
8.681952724783065,4.307157138591025,11.589465732716743,5.5978080331145925,-2.15781546701812,1.7199676066587923
8.725024296168975,4.285578983920844,11.645443813047889,5.615007709181181,-1.9320800230447548,1.888308863080453
8.767880086008184,4.266258183690396,11.701593890139701,5.633890797811985,-1.7235458586501382,2.014471911786697
8.810542667845088,4.249022725103894,11.757932798117821,5.654035516929852,-1.5341253256722585,2.0979905896382562
8.853032895096126,4.233681471847172,11.81447315328712,5.675015422826235,-1.3654329933027385,2.138694309617101
8.895369709814597,4.220027141914144,11.871223307515383,5.696402365922405,-1.2187507505319866,2.1367453163724996
8.937569981233738,4.207839634408825,11.928187331174607,5.71776981908613,-1.0949930078613177,2.092675740085471
8.979648377577826,4.196889704330212,11.985365029365468,5.738696576486985,-0.9946739390729393,2.007422393108154
9.021617274621129,4.186942964939482,12.042751995130338,5.758770800418067,-0.9178788980896316,1.8823570698553491
9.063486704270524,4.177764175958586,12.10033970313452,5.777594371116621,-0.8642422405169119,1.7193100303271043
9.10526434603011,4.169121753553417,12.158115646845685,5.794787471419892,-0.8329337468166065,1.520584398834514
9.146955563565644,4.1607924160852505,12.216063521559883,5.809993315408237,-0.822655662834269,1.288959412731105
9.188563487726496,4.1525658594569075,12.274163454713966,5.822882909535548,-0.8316520322575153,1.027680821459936
9.230089146321065,4.1442493391343325,12.332392283809321,5.8331597177501475,-0.8577314966723453,0.7404372604175782
9.271531639712409,4.135672024167609,12.390723880986823,5.840564090354324,-0.8983041002342561,0.4313220873786828
9.312888359954085,4.126688983165266,12.449129521890367,5.84487731122811,-0.9504318921463072,0.1047809353868684
9.354155249785737,4.117184664243803,12.507578295002647,5.845925120581979,-1.0108923207985612,-0.23445394586575272
9.395327096428176,4.107075741035818,12.566037546208467,5.843580581123322,-1.0762526195559976,-0.5814406799335331
9.436397853838534,4.096313214840258,12.6244733520197,5.837766174323987,-1.142952662281834,-0.9311134730700013
9.477360985986936,4.08488368821744,12.68285101376294,5.828455039593287,-1.207393181522574,-1.2783738413480206
9.51820982286911,4.072809756402214,12.741135564158874,5.8156713011798065,-1.266025849209352,-1.618183759403694
9.558937920433133,4.06014949791012,12.799292277170672,5.799489463585769,-1.3154415577003142,-1.945656974694961
9.599539415412234,4.046995082333117,12.85728717180653,5.780032893838819,-1.3524533254154392,-2.2561448216883426
9.640009366235565,4.033470549078963,12.915087500744917,5.757471445621936,-1.3741705796248234,-2.5453132041944677
9.680344071726354,4.0197288432827145,12.972662215201137,5.7320183135799905,-1.3780621092934668,-2.809207960912933
9.720541360159181,4.0059482221897795,13.029982398336937,5.703926233970861,-1.3620056838553105,-3.0443065396924034
9.760600842381079,3.9923281653512266,13.087021660676646,5.673483168573937,-1.3243231365959869,-3.2475547175710076
9.800524124034592,3.9790849339852667,13.143756492362385,5.641007621398227,-1.2638005453684695,-3.416387948211992
9.840314973374445,3.966446928531582,13.200166568576368,5.606843741916108,-1.1796939420726957,-3.5487377297778497
9.879979442659762,3.9546499891108553,13.256235005995528,5.571356364618329,-1.071721688079067,-3.6430241072377094
9.91952594255087,3.9439327722300646,13.31194856964171,5.534926123545952,-0.9400452220626834,-3.6981360100016105
9.95896527027317,3.9345323200094375,13.36729783087717,5.497944763445935,-0.7852402930111364,-3.7134015516302252
9.998310593473265,3.9266799170793263,13.422277278511629,5.460810747929633,-0.6082610254117872,-3.6885506732926623
10.037577392644058,3.9205973068252082,13.476885385990926,5.423925241196707,-0.4103992325898095,-3.6236726023404566
10.076783365712311,3.91649331449931,13.531124638402893,5.387688515173302,-0.19324131731731933,-3.5191705401221713
10.115948298857305,3.914560901326137,13.585001523554626,5.35249680977208,0.041375095758086324,-3.3757158159823564
10.155093907870565,3.914974652283718,13.638526491652346,5.3187396516122565,0.29140293111529936,-3.1942034788992437
