th1 (rad),w1 (rad/s),th2 (rad),w2 (rad/s),a1 (rad/s^2),a2 (rad/s^2)
5.325554971976536,0.826268568048412,5.554723744386634,0.44433476207279915,9.387408232059103,-2.7729919170242834
5.33381765765702,0.920142650369003,5.559167092007362,0.41660484290255634,9.363991551167214,-2.8248948464009884
5.34301908416071,1.0137825658806752,5.563333140436388,0.38835589443854646,9.331809920877014,-2.86997054595043
5.353156909819517,1.1071006650894453,5.567216699380773,0.35965618897904217,9.289384691908632,-2.905521609139718
5.364227916470411,1.1999945120085316,5.570813261270564,0.330600972887645,9.234979369144526,-2.9284031294294555
5.376227861590497,1.2923443056999768,5.57411927099944,0.30131694159335043,9.166597021416766,-2.935024528638543
5.389151304647497,1.3840102759141444,5.577132440415374,0.271966696306965,9.081984831875602,-2.921363815479379
5.402991407406638,1.4748301242329005,5.579852107378444,0.2427530581521712,8.978649279337754,-2.882999663433617
5.417739708648967,1.564616617026278,5.5822796379599655,0.21392306151783505,8.853885986481863,-2.8151674782416607
5.43338587481923,1.6531554768910968,5.584418868575144,0.18577138673541843,8.704828597737313,-2.71284606696139
5.449917429588141,1.74020376286847,5.586276582442498,0.15864292606580452,8.52852097164436,-2.570881345883174
5.467319467216826,1.8254889725849135,5.587863011703155,0.13293411260697277,8.322016258209525,-2.38415239179023
5.485574356942675,1.9087091351670087,5.589192352829225,0.10909258868907047,8.082504833094088,-2.147782684024256
5.504661448294345,1.9895341834979496,5.590283278716115,0.08761476184882791,7.807470367457375,-1.857395294477989
5.524556790129325,2.0676088871725233,5.591159426334603,0.06904080890404801,7.494869440465227,-1.5094049344157519
5.54523287900105,2.142557581577176,5.591849834423644,0.05394675955989049,7.14332520320657,-1.101332383848526
5.566658454816822,2.2139908336092415,5.592389302019242,0.04293343572140523,6.752320177294086,-0.6321186430358814
5.588798363152915,2.2815140353821826,5.592818636376457,0.03661224929104642,6.322368226500717,-0.10240848912094372
5.611613503506736,2.3447377176471895,5.593184758869367,0.03558816439983699,5.855142342224962,0.48523214204718107
5.635060880683208,2.4032891410694392,5.593540640513366,0.0404404858203088,5.353534544206273,1.1262013125449477
5.659093772093903,2.456824486511502,5.593945045371569,0.05170249894575828,4.8216280817136665,1.8138797034860952
5.683662016959018,2.5050407673286386,5.594462070361027,0.06984129598061922,4.264570657267043,2.539801282863613
5.708712424632305,2.547686473901309,5.595160483320833,0.09523930880925535,3.6883498612864987,3.2939763417447523
5.734189289371318,2.5845699725141738,5.596112876408926,0.12817907222670288,3.099486397879209,4.065345907770961
5.76003498909646,2.615564836492966,5.5973946671311925,0.1688325313044125,2.504674043909082,4.842326463525887
5.78619063746139,2.6406115769320566,5.599082992444236,0.21725579593967137,1.9104044845360055,5.613389640348404
5.812596753230711,2.6597156217774165,5.601255550403633,0.2733896923431554,1.3226178856952149,6.367616604444769
5.839193909448485,2.672941800634369,5.603989447327065,0.3370658583876031,0.7464155829359607,7.095172388860073
5.865923327454829,2.6804059564637286,5.60736010591094,0.4080175822762038,0.18586074074918804,7.787659934829475
5.892727387019466,2.6822645638712204,5.611440281733702,0.4858941816244986,-0.3561211134936596,8.43833341054366
5.9195500326581785,2.678703352736284,5.616299223549947,0.5702775157299352,-0.877743951704191,9.042170884695647
5.946337066185541,2.6699259132192417,5.622001998707247,0.6606992245768917,-1.3782793745795119,9.595823557223216
5.973036325317734,2.6561431194734464,5.6286089909530155,0.7566574601491238,-1.857912203690155,10.097469925638245
5.999597756512468,2.637563997436545,5.636175565554507,0.8576321594055063,-2.3175573880621863,10.546607794734939
6.025973396486834,2.614388423555923,5.644751887148562,0.9630982373528557,-2.7586607585771925,10.943815795355833
6.052117280722393,2.5868018159701514,5.654382869522091,1.072536395306414,-3.183002171162995,11.290510853710577
6.077985298882094,2.5549717942585213,5.665108233475155,1.1854415038435198,-3.5925143326458344,11.588720850831418
6.103535016824679,2.519046650932063,5.67696264851359,1.301328712351834,-3.989125283333095,11.840884236402697
6.128725483334,2.4791553980987318,5.689975935637109,1.419737554715861,-4.374627897648223,12.049681766130448
6.1535170373149874,2.4354091191222493,5.704173311184268,1.5402343723771654,-4.750576230555382,12.217900397838065
6.17787112850621,2.3879033568166954,5.71957565490804,1.662413376355546,-5.118206137013574,12.348325832776196
6.201750162074377,2.3367212954465595,5.736199788671595,1.7858966346833078,-5.4783761807634335,12.44365805813156
6.225117375028843,2.281937533638925,5.754058755018428,1.9103332152646235,-5.831524195829485,12.506443229257407
6.247936750365232,2.2236222916806305,5.773162087171074,2.0353976475571978,-6.1776347286457325,12.53901499511631
6.270172973282039,2.161845944394173,5.793516063646646,2.1607877975083607,-6.5162127677090576,12.543438629729723
6.29179143272598,2.0966838167170825,5.815123941621729,2.286222183805658,-6.846259517101129,12.521451872976133
6.312758270893151,2.028221221546071,5.837986163459785,2.4114367025354193,-7.166246410686694,12.474397077901537
6.333040483108612,1.956558757439204,5.862100530485139,2.5361806733144348,-7.4740840791309795,12.40314006573798
6.352606070683004,1.8818179166478943,5.887462337218284,2.6602120739718145,-7.767083616797876,12.307972044020756
6.371424249849483,1.8041470804799156,5.914064457958002,2.783291794412022,-8.04190835573255,12.188492171993454
6.3894657206542815,1.72372799692259,5.941897375902122,2.905176716131957,-8.294515609041932,12.043470076034861
6.406703000623508,1.6407828408321707,5.970949143063441,3.0256114168923056,-8.52008973409781,11.87069014037587
6.423110829031829,1.5555819434911926,6.001205257232364,3.1443183182960643,-8.712970692511899,11.666783140871564
6.438666648466741,1.4684522365660737,6.032648440415325,3.26098614970478,-8.8665864036042,11.427056250572935
6.453351170832402,1.3797863725300317,6.0652583019123725,3.3752567122105095,-8.973402949842022,11.145340137414356
6.4671490345577025,1.2900523430316115,6.099010869034478,3.486710113584653,-9.024914314825828,10.813882160334064
6.480049557988019,1.1998031998833532,6.1338779701703245,3.594848935187994,-9.011702671468683,10.423327454670467
6.492047589986852,1.1096861731686662,6.169826459522205,3.6990822097346987,-8.92361040114801,9.962843909393552
6.503144451718538,1.020450069157186,6.206817281619552,3.798710648828634,-8.75007385400839,9.420459903364904
6.51334895241011,0.9329493306171022,6.244804388107838,3.892915247862283,-8.480672352838072,8.78368989962349
6.522678445716281,0.8481426070887215,6.283733540586461,3.980752146858518,-8.105937938853348,8.040514317557083
6.531159871787168,0.767083227700188,6.323541062055046,4.061157290034089,-7.618444092953123,7.180745906818838
6.53883070406417,0.6908987867706567,6.364152634955387,4.132964749102277,-7.0141380373467195,6.197745184650351
6.545739691931877,0.6207574063971896,6.4054822824464095,4.194942200948781,-6.293799461501172,5.0903393592483415
6.5519472659958495,0.5578194117821779,6.447431704455897,4.245845594541265,-5.464408818802768,3.8646654971313135
6.557525460113672,0.5031753235941502,6.48989016040131,4.284492249512578,-4.540118530526544,2.535536262101086
6.5625572133496135,0.45777413828888475,6.532735082896436,4.309847612133589,-3.5424848144010337,1.126874652985493
6.567134954732502,0.42234929014487443,6.575833559017772,4.321116358663444,-2.4996829749686955,-0.3291543497631814
6.571358447633951,0.39735246039518746,6.619044722604406,4.317824815165812,-1.4446161464831564,-1.7944430946552914
6.575331972237903,0.3829062989303559,6.662222970756065,4.299880384219259,-0.4121045944868439,-3.228434602123667
6.579161035227206,0.37878525298548743,6.705221774598257,4.267596038198023,0.564381060984619,-4.592208734254434
6.582948887757061,0.38442906359533363,6.747897734980238,4.221673950855478,1.4558193474880194,-5.852350143610936
6.586793178393014,0.3989872570702138,6.790114474488792,4.163150449419368,2.2399808797134906,-6.983834592897525
6.590783050963716,0.42138706586734875,6.831745978982986,4.093312103490393,2.9026443588938604,-7.971461547255493
6.594996921622389,0.45041350945628733,6.87267910001789,4.013597488017838,3.4376252784162413,-8.809769564764483
6.599501056716952,0.48478976224044973,6.912815074898068,3.9254997923701938,3.845834377323331,-9.501732103056813
6.604348954339357,0.523248106013683,6.95207007282177,3.8304824713396255,4.1337398435538555,-10.056729953390919
6.609581435399494,0.5645855044492215,6.990374897535166,3.7299151718057164,4.311625014127526,-10.488310655168736
6.615227290443986,0.6077017545904968,7.027674049253223,3.625032065254029,4.391950249149315,-10.812128596679354
6.621304307989891,0.6516212570819899,7.063924369905763,3.5169107792872354,4.388003466652303,-11.044292482986787
6.627820520560711,0.6955012917485129,7.099093477698635,3.4064678544573677,4.3129078214203505,-11.200194411480666
6.634775533478196,0.7386303699627165,7.1331581562432085,3.294465910342561,4.178972678078602,-11.293789318636028
6.642161837177824,0.7804200967435024,7.166102815346634,3.1815280171562006,3.9973295318397084,-11.337239013452795
6.6499660381452586,0.8203933920618995,7.1979180955181965,3.0681556270216728,3.7777799633354814,-11.340819765328998
6.658169972065878,0.8581711916952544,7.2285996517884135,2.954747429368383,3.5287866928913507,-11.313000794585363
6.66675168398283,0.8934590586241679,7.258147126082097,2.841617421422529,3.2575514817507982,-11.26061985619428
6.675686274569071,0.9260345734416758,7.286563300296322,2.7290112228605863,2.970138429521192,-11.189102835354095
6.684946620303488,0.9557359577368878,7.313853412524928,2.6171201945070455,2.671614609531325,-11.10269246190138
6.6945039798808565,0.982452103832201,7.340024614469998,2.506093269888032,2.3661905867944886,-11.004665318123367
6.704328500919178,1.006114009700146,7.365085547168879,2.396046616706798,2.0573510311055707,-10.897526264714353
6.71438964101618,1.0266875200112018,7.389046013335947,2.2870713540596546,1.7479707925805859,-10.783175936736518
6.724656516216292,1.0441672279370076,7.411916726876544,2.1792395946922896,1.440415039836355,-10.663050930493057
6.735098188495662,1.0585713783353712,7.433709122823466,2.072609085387359,1.136623933218092,-10.538238499351303
6.7456839022790165,1.0699376176675521,7.45443521367734,1.967226700393846,0.8381832719136728,-10.409568621528313
6.756383278455692,1.0783194503866889,7.474107480681279,1.8631310141785629,0.5463829508173661,-10.277686643486323
6.767166472959559,1.0837832798948626,7.492738790823064,1.7603541477436997,0.2622651239281236,-10.143109642559901
6.7780043057585075,1.0864059311341439,7.510342332300501,1.6589230513181006,-0.013336150373707433,-10.006269387011207
6.788868365069849,1.0862725696304067,7.526931562813682,1.5588603574479885,-0.2797622139778335,-9.867544420127395
6.799731090766153,1.0834749474906284,7.542520166388162,1.4601849132467146,-0.5365027304949367,-9.727283425919776
6.810565840241059,1.078109920185679,7.557122015520629,1.3629120789875169,-0.7831731209271738,-9.58582168399546
6.8213469394429165,1.0702781889764073,7.570751136310504,1.2670538621475622,-1.0194956205085974,-9.443492107231235
6.83204972133268,1.0600832327713212,7.583421674931979,1.1726189410752499,-1.24528324528757,-9.30063208364422
6.842650553660394,1.0476304003184456,7.5951478643427315,1.0796126202388077,-1.4604261093714375,-9.157587112844666
6.853126857663578,1.0330261392247313,7.60594399054512,0.988036749110361,-1.6648796584276184,-9.014712034195021
6.863457119055825,1.0163773426404552,7.615824358036223,0.8978896287684108,-1.8586544850436058,-8.872370483631478
6.873620892482229,0.9977907977900191,7.624803254323907,0.8091659239320961,-2.0418074703995686,-8.730933084196355
6.883598800460129,0.9773727230860234,7.632894913563228,0.7218565930901325,-2.2144340579043127,-8.590774767170144
6.89337252769099,0.9552283825069803,7.640113479494129,0.6359488454184311,-2.3766615112251666,-8.452271532301403
6.902924811516059,0.9314617673947286,7.646472967948314,0.5514261300954171,-2.528643044360609,-8.3157968836154
6.912239429190007,0.9061753369511225,7.651987229249268,0.46826816125926307,-2.670552737504152,-8.181718118797583
6.921301182559518,0.879469809576081,7.6566699108618606,0.38645098007128725,-2.802581171471534,-8.05039260284409
6.930095880655279,0.8514439978613657,7.660534420662573,0.30594705404284633,-2.924931727087812,-7.922164118609553
6.9386103206338925,0.8221946805904876,7.663593891203002,0.2267254128567508,-3.037817505511458,-7.7973593564660275
6.946832267439797,0.7918165055353731,7.6658611453315695,0.14875181929209053,-3.141458832087602,-7.676284581194898
6.954750432495151,0.760401917214497,7.66734866352449,0.07198897348014154,-3.2360813108182493,-7.559222495369639
6.962354451667296,0.7280411041063145,7.668068553259292,-0.00360325147355485,-3.321914399563457,-7.446429303936555
6.969634862708359,0.69482196011068,7.668032520744556,-0.0780675445129204,-3.399190478135278,-7.338131973696473
6.976583082309466,0.6608300553293271,7.667251845299427,-0.15144886424988513,-3.468144382874271,-7.234525673289597
6.983191382862759,0.6261486115005844,7.665737356656928,-0.22379412098278112,-3.529013382357242,-7.135771373551854
6.989452868977764,0.590858477677012,7.663499415447101,-0.29515183471829964,-3.582037569738347,-7.041993584297182
6.995361453754534,0.5550381019796286,7.660547897099917,-0.36557177056127144,-3.6274606479640323,-6.953278201324388
7.000911834774331,0.5187634954999882,7.656892179394305,-0.4351045525745153,-3.665531084755209,-6.869670436463235
7.006099469729331,0.48210818465243616,7.65254113386856,-0.5038012569391477,-3.696503614796787,-6.791172803547085
7.010920551575855,0.4451431485044683,7.647503121299168,-0.5717129849746185,-3.720641066947012,-6.717743134187337
7.015371983060899,0.4079367378349982,7.641785991449423,-0.6388904163164919,-3.7382164943689262,-6.649292599052442
7.019451350439249,0.3705545728913089,7.6353970872862575,-0.7053833423070164,-3.749515585145029,-6.585683713018779
7.023156896168162,0.3330594170398586,7.6283432538631875,-0.7712401794372041,-3.754839329977475,-6.526728306128234
7.02648749033856,0.2955110237400838,7.620630852068816,-0.8365074624984865,-3.754506921774365,-6.472185446896454
7.029442600575961,0.25796595452234017,7.612265777443831,-0.901229316967451,-3.7488588590152196,-6.421759310376457
7.032022260121185,0.22047736593218797,7.603253484274156,-0.9654469100712155,-3.738260220474484,-6.375096990776031
7.034227033780507,0.18309476372744313,7.593599015173444,-1.0291978799789758,-3.7231040728266285,-6.331786267703263
7.036057981417781,0.14586372299917683,7.583307036373654,-1.0925157426560084,-3.703814964496465,-6.291353346682765
7.037516618647773,0.10882557335421217,7.572381878947094,-1.155429276122836,-3.6808524484738494,-6.253260608902957
7.038604874381315,0.07201704886947367,7.560827586185866,-1.2179618822118656,-3.6547145633034397,-6.216904422705161
7.03932504487001,0.035469903236439275,7.548647967363747,-1.2801309264389173,-3.6259411847393026,-6.181613090581409
7.039679743902374,-0.0007895086109537541,7.535846658099358,-1.3419470573447314,-3.5951171403417064,-6.146645030824139
7.039671848816265,-0.03674068001437082,7.522427187525911,-1.4034135076529728,-3.5628749554422168,-6.111187322748553
7.039304442016121,-0.072369429568793,7.508393052449381,-1.4645253808804584,-3.5298970714718503,-6.074354778640077
7.038580747720433,-0.1076684002835115,7.493747798640576,-1.525268928666859,-3.4969173470051085,-6.035189743959958
7.037504063717598,-0.1426375737535626,7.478495109353907,-1.5856208261064586,-3.4647216188226713,-5.992662869051645
7.036077687980062,-0.1772847899417893,7.462638901092842,-1.645547454796975,-3.4341470662240026,-5.945675139101361
7.034304840080644,-0.21162626060402934,7.446183426544873,-1.7050042061879886,-3.406080088857486,-5.893061491976459
7.032188577474604,-0.2456870614926042,7.429133384482993,-1.7639348211077532,-3.3814523795193097,-5.833596392218549
7.029731706859677,-0.2795015852877973,7.4114940362719155,-1.8222707850299387,-3.3612348527879345,-5.766001759011022
7.026936691006799,-0.31311393381567665,7.3932713284216165,-1.879930802620049,-3.3464290832182946,-5.688957660044836
7.023805551668643,-0.3465782246478596,7.374472020395416,-1.9368203792204974,-3.3380559194110595,-5.601116174146747
7.020339769422164,-0.3799587838419702,7.3551038166032106,-1.9928315409619648,-3.3371409797567293,-5.501118784440886
7.0165401815837445,-0.4133301936395375,7.335175501193591,-2.0478427288063736,-3.344696809578009,-5.3876175812647125
7.012406879647349,-0.44677716173531756,7.314697073905528,-2.1017189046190206,-3.361701594891174,-5.259300421076966
7.007939108029996,-0.4803941776842293,7.293679884859338,-2.1543119088297904,-3.389074490621574,-5.1149199971327395
7.003135166253154,-0.5142849225904451,7.27213676577104,-2.205461108801118,-3.427647833249666,-4.953326526603752
6.99799231702725,-0.5485614009229418,7.250082154683029,-2.2549943740671554,-3.4781367669852212,-4.773503450141157
6.99250670301802,-0.583342768592794,7.227532210942357,-2.302729408568567,-3.5411071092869735,-4.574605185260307
6.986673275332093,-0.6187538396856638,7.2045049168566715,-2.3484754604211697,-3.6169425980665166,-4.355995596613962
6.980485736935236,-0.654923265666329,7.18102016225246,-2.3920354163873094,-3.7058129722454005,-4.117285478015042
6.973936504278573,-0.691981395388783,7.157099808088587,-2.4332082711674596,-3.8076446038703278,-3.858367027521557
6.967016690324685,-0.7300578414274863,7.132767725376913,-2.471791941442675,-3.922095582002409,-3.5794430900403555
6.95971611191041,-0.7692787972475104,7.1080498059624855,-2.5075863723430785,-4.048537202893468,-3.281048895184754
6.952023323937935,-0.809764169276445,7.082973942239055,-2.540396861294926,-4.186043709618361,-2.9640641776948087
6.943925682245171,-0.8516246063726286,7.057569973626105,-2.570037503071874,-4.333391822689404,-2.6297139622051806
6.935409436181445,-0.8949585245995226,7.031869598595386,-2.5963346426939258,-4.489071107733862,-2.2795569245924527
6.92645985093545,-0.9398492356768613,7.0059062521684465,-2.6191302119398503,-4.651305560584378,-1.9154610748664131
6.917061358578681,-0.986362291282705,6.979714950049048,-2.6382848226885143,-4.8180860064782065,-1.5395674713259944
6.907197735665854,-1.0345431513474872,6.953332101822163,-2.653680497401774,-4.98721208605131,-1.1542436709956552
6.896852304152379,-1.0844152722080003,6.926795296848145,-2.6652229341117306,-5.156341829705862,-0.7620295274365029
6.886008151430299,-1.1359786905050588,6.900143067507028,-2.6728432293860958,-5.323046198519459,-0.3655786446369508
6.874648364525248,-1.1892091524902535,6.873414635213168,-2.6764990158324653,-5.484865574326272,0.032400812886967015
6.862756273000345,-1.2440578082335163,6.8466496450548435,-2.6761750077035957,-5.639365064929255,0.429202226111761
6.8503156949180095,-1.3004514588828089,6.819887894977808,-2.671882985442478,-5.784185664969084,0.8221701586295591
6.8373111803291815,-1.3582933155324997,6.793169065123383,-2.6636612838561824,-5.917088750577184,1.2087408063252598
6.8237282471738565,-1.4174642030382716,6.766532452284821,-2.6515738757929297,-6.035992023820329,1.5864714414506162
6.809553605143474,-1.4778241232764748,6.740016713526892,-2.6357091613784234,-6.138995776200198,1.9530580511339053
6.794775363910709,-1.539214081038477,6.7136596219131075,-2.6161785808670843,-6.224399117699829,2.306341385082064
6.779383223100324,-1.6014580722154752,6.687497836104437,-2.5931151670162635,-6.2907065363867405,2.644302531958219
6.763368642378169,-1.6643651375793427,6.661566684434274,-2.5666721416966816,-6.336625751016951,2.9650498615340593
6.746724991002376,-1.7277313950895121,6.635899963017307,-2.537021643081341,-6.361058259502987,3.2667996595895423
6.72944767705148,-1.791341977684542,6.610529746586494,-2.5043536464854452,-6.36308426036533,3.547853039854729
