th1 (rad),w1 (rad/s),th2 (rad),w2 (rad/s)
2.739531525752525,-2.277746838818391,5.454403363298088,-2.021399504411308
2.716754057364341,-2.289336236802843,5.434189368253975,-1.9811860401473125
2.693860694996313,-2.3040864547588615,5.414377507852501,-1.9426384168436461
2.6708198304487243,-2.3220278310914013,5.394951123684065,-1.9058831487655596
2.64759955213781,-2.343192155647267,5.375892292196409,-1.8710465417051958
2.6241676305813373,-2.3676126989643156,5.357181826779357,-1.83825451041133
2.600491503591694,-2.3953241592798435,5.338799281675244,-1.807632264093554
2.5765382619988957,-2.426362511578574,5.320722959034308,-1.7793038349684922
2.55227463688311,-2.460764741159946,5.302929920684623,-1.7533914217572977
2.5276669894715105,-2.4985684422633514,5.28539600646705,-1.7300145167424374
2.5026813050488768,-2.53981126024697,5.268095861299626,-1.709288781508029
2.477283192446407,-2.5845301537303484,5.251002973484546,-1.6913246329193696
2.4514378909091037,-2.6327604510679183,5.234089727155352,-1.6762254973875323
2.4251102863984246,-2.6845346736359623,5.217327472181476,-1.6640856882141255
2.398264939662065,-2.739881096840514,5.200686615299335,-1.6549878580870165
2.37086612869366,-2.798822018680985,5.184136736718465,-1.648999976946541
2.3428779085068503,-2.8613717053724224,5.167646736949,-1.6461717849002866
2.314264191453126,-2.927533984226786,5.151185019099997,-1.6465306711702812
2.284988851610858,-2.9972994560617967,5.134719712388295,-1.6500769338549472
2.2550158570502403,-3.0706423032394605,5.118218943049746,-1.656778382337376
2.2243094340178455,-3.1475166754824007,5.101651159226372,-1.6665642553401463
2.1928342672630214,-3.2278526443702455,5.084985516672971,-1.679318443886619
2.160555740819319,-3.311551729419318,5.068192332234105,-1.6948720308373655
2.1274402235251255,-3.398482014472245,5.051243611925731,-1.7129951883469563
2.093455403380403,-3.4884728933758744,5.034113660042261,-1.7333885126749784
2.0585706744466443,-3.5813095092381997,5.016779774915512,-1.7556739234089032
2.0227575793542623,-3.676726982584122,4.999223035681423,-1.7793853123576413
1.985990309528421,-3.7744045611546877,4.9814291825578465,-1.8039591970365305
1.948246263916874,-3.873959868608653,4.963389590587481,-1.8287257154025438
1.9095066652307875,-3.9749434816677693,4.945102333433456,-1.8529003924982532
1.86975723041411,-4.076834125882304,4.926573329508474,-1.8755772154267731
1.8289888891552868,-4.179034849494859,4.907817557354206,-1.895723669023045
1.7871985406603381,-4.2808706125552085,4.888860320663976,-1.9121785074066826
1.7443898345347861,-4.381587813008217,4.869738535589908,-1.9236531603279707
1.700573956404704,-4.480356359374148,4.8505020039866285,-1.9287377878709184
1.6557703928109626,-4.576274983928923,4.831214626107919,-1.9259130869168517
1.6100076429716734,-4.668380559032162,4.811955495238751,-1.9135689942878815
1.5633238373813518,-4.755662213718879,4.7928198052958715,-1.8900313915273317
1.515767215244163,-4.8370810208993875,4.773919491380598,-1.853597751135278
1.467396405035169,-4.91159590202362,4.755383513869245,-1.8025823209511804
1.418280446014933,-4.978196134098004,4.737357690659733,-1.7353708659978748
1.368498484673953,-5.035940401779084,4.720003981999755,-1.6504841277572884
1.3181390806561621,-5.084001685150168,4.703499140722181,-1.5466480002569003
1.2672990638046604,-5.121716411812907,4.688032660719612,-1.4228669969078032
1.2160818996865312,-5.1486352818887875,4.673803990750534,-1.2784960138895691
1.1645955468676434,-5.164572119758325,4.661019030611639,-1.1133039154022197
1.1129498256700603,-5.1696462192165455,4.649885991457617,-0.9275214107130021
1.061253363477895,-5.164313192763266,4.640610777350487,-0.7218654641544744
1.0096102315502622,-5.149379582785224,4.633392122708942,-0.49753344750884954
0.9581164357224099,-5.125997635979338,4.628416788233854,-0.2561626107858186
0.9068564593626165,-5.095638698880927,4.625855162125996,0.0002458973664241082
0.8559000723738073,-5.06004643005115,4.62585762109966,0.26943478547753225
0.8052996080732958,-5.021173966501828,4.628551968954435,0.5490220929794247
0.7550878684082776,-4.981111708832568,4.634042189884229,0.8366449923534827
0.7052767513199519,-4.942013921907292,4.642408639807764,1.1301030929591738
0.655856612100879,-4.906032542179805,4.6537096707373555,1.4274892746475827
0.6067962866790809,-4.875265454296543,4.667984563483832,1.7272990359060998
0.5580436321361155,-4.851724414593219,4.685257553842892,2.0285136917394557
0.5095263879901833,-4.837325341005725,4.705542690760287,2.330657531277585
0.4611531345801261,-4.833901463559832,4.7288492660730626,2.633833336242193
0.41281411994452777,-4.843238294425227,4.755187599435485,2.9387438751341333
0.3643817370002755,-4.867128752473835,4.784575038186826,3.2467089422278352
0.3157104494755371,-4.907447050447349,4.817042127609104,3.5596883722586163
0.2666359789710636,-4.966240926455901,4.85263901133169,3.880321575030474
0.2169735697065046,-5.045843133065369,4.891442227081995,4.211993787754214
0.1665151383758509,-5.14900423780101,4.933562164959537,4.55893836835229
0.11502509599784082,-5.279048697930643,4.97915154864306,4.926382117788926
0.06223460901853439,-5.440052540879536,5.028415369820949,5.320733932749773
0.007834083609739029,-5.637028325531823,5.081622709148447,5.749798593621287
-0.0485361996455792,-5.876068143633501,5.13912069508466,6.222948847353429
-0.10729688108191421,-6.164306476844456,5.201350183558194,6.751065922111602
-0.16893994585035876,-6.509347449177788,5.26886084277931,7.345757478246979
-0.23403342034213664,-6.917293848435555,5.34231841756178,8.016656536752595
-0.30320635882649216,-7.3874371301035175,5.422484982929307,8.76409970569811
-0.37708073012752735,-7.899912759350743,5.510125979986288,9.562022567909485
-0.45607985772103476,-8.392374345751723,5.605746205665383,10.325530500896235
-0.540003601178552,-8.734435560051944,5.709001510674345,10.875309261048674
-0.6273479567790714,-8.753313570819682,5.817754603284832,10.973476030418945
-0.7148810924872682,-8.375459360257938,5.927489363589022,10.52102688041742
-0.7986356860898476,-7.737779092271083,6.032699632393196,9.711589481821651
-0.8760134770125584,-7.047710789631289,6.129815527211412,8.834909898325606
-0.9464905849088713,-6.420213873577876,6.218164626194668,8.050717074466062
-1.0106927236446501,-5.882799372540264,6.298671796939329,7.3972018810217435
-1.0695207173700527,-5.4275987089768,6.372643815749547,6.86384368202938
-1.1237967044598207,-5.038865295916591,6.441282252569841,6.429528880605029
-1.1741853574189867,-4.701819768221477,6.505577541375891,6.074696175835483
-1.2212035551012015,-4.404500253846174,6.566324503134246,5.783819376872502
-1.2652485576396633,-4.1376100307170045,6.624162696902971,5.5451502069684775
-1.3066246579468332,-3.893959969794041,6.679614198972656,5.349918079938025
-1.3455642576447737,-3.667941659549256,6.733113379772036,5.191578123983802
-1.3822436742402662,-3.455118992691472,6.785029161011875,5.065220941542084
-1.4167948641671808,-3.2519329882639063,6.835681370427295,4.9671312461491794
-1.44931419404982,-3.0554963949919993,6.8853526828887865,4.894458360049536
-1.47986915799974,-2.863456259226333,6.934297266489282,4.844964261449142
-1.5085037205920033,-2.673908055007827,6.982746909103773,4.816822712892373
-1.5352428011420816,-2.485349797015762,7.030915136232697,4.808450404893075
-1.5600962991122391,-2.2966678228934163,7.078999640281628,4.818357158321971
-1.5830629773411733,-2.1071475523203946,7.127183211864848,4.845007457712448
-1.6041344528643773,-1.916502582174356,7.175633286441973,4.88669056787086
-1.6232994786861208,-1.7249140724701815,7.224500192120681,4.941401712542952
-1.6405486194108225,-1.5330697598840963,7.273914209246111,5.0067424095892665
-1.6558793170096635,-1.3421886749081902,7.323981633342004,5.079853628866594
-1.6693012037587454,-1.1540148416927858,7.37478016963067,5.157399744435968
-1.6808413521756733,-0.9707626273471999,7.426354167075029,5.2356222454984955
-1.6905489784491454,-0.7950000431238998,7.478710389530014,5.310477395912262
-1.6984989788803844,-0.6294657723607314,7.531815163489137,5.377859725389483
-1.7047936366039917,-0.47683083052800146,7.5855937607430315,5.433893978615828
-1.7095619449092718,-0.33943343366258427,7.63993270052919,5.475256279435042
-1.7129562792458977,-0.21902984236195933,7.6946852633235405,5.49946864942808
-1.7151465776695172,-0.11660784662655366,7.749679949817821,5.505108150722222
-1.7163126561357827,-0.03229926601424736,7.804731031325043,5.491887153867958
-1.7166356487959251,0.03459454735261096,7.859649902863723,5.460591085210282
-1.716289703322399,0.08547678197623218,7.914255813715825,5.412893827296598
-1.7154349355026366,0.12226231706201889,7.968384751988792,5.351096241234387
-1.7142123123320163,0.14716013019141896,8.021895714401136,5.2778422675149494
-1.712740711030102,0.16246902385591966,8.074674137076286,5.195859873208899
-1.7111160207915428,0.1704122889130039,8.126632735808375,5.107757066515974
-1.7094118979024127,0.1730223142618983,8.177710306473534,5.015884304989483
-1.7076816747597936,0.1720741362154124,8.227869149523428,4.922259729950061
-1.7059609333976395,0.16905958462261717,8.27709174682293,4.828545058508433
-1.7042703375514134,0.16519084577129056,8.325377197408013,4.7360571083759595
-1.7026184290937005,0.16142258888138145,8.372737768491772,4.64580093619292
-1.7010042032048867,0.15848378289592122,8.419195777853702,4.558513461128372
-1.6994193653759275,0.15691280277232797,8.464780912464985,4.4747097717593896
-1.6978502373482043,0.1570917063723112,8.509528010182578,4.394727263910434
-1.6962793202844813,0.1592773622664616,8.553475282821681,4.31876501557208
-1.6946865466618166,0.16362837863658017,8.596662932977402,4.246917355757681
-1.693050262875451,0.17022759742100724,8.639132106534978,4.179201547533018
-1.6913479869012409,0.17910038789035237,8.680924122010309,4.115580037998077
-1.6895569830223374,0.19022920772828697,8.72207992239029,4.055977972381569
-1.6876546909450545,0.20356498403022588,8.762639702114106,4.000296736562691
-1.6856190411047522,0.21903586398865277,8.802642669479733,3.9484242603282205
-1.6834286824648657,0.23655383722029402,8.842126912083014,3.900242733391152
-1.6810631440926627,0.25601966481959093,8.881129339416926,3.85563428855261
-1.6785029474444668,0.2773264794885742,8.919685682302452,3.8144851087407123
-1.675729682649581,0.30036235456579224,8.95783053338986,3.7766883257331036
-1.6727260591039232,0.32501208113636887,8.995597416647191,3.7421460017055423
-1.6694759382925595,0.35115834278203034,9.033018876664247,3.710770420978161
-1.6659643548647391,0.37868243668195517,9.070126580874028,3.682484867594498
-1.6621775304979196,0.4074646568052307,9.106951429549973,3.6572240231602016
-1.6581028839298673,0.4373844287065189,9.143523669781574,3.634934087009093
-1.6537290396428022,0.4683202647973137,9.179873010651665,3.6155726956466863
-1.649045836994829,0.5001495928623303,9.216028737608132,3.599108699120569
-1.6440443410662058,0.5327484981129439,9.252019824599339,3.5855218372770423
-1.6387168560850764,0.5659914094573387,9.287875042972109,3.574802347792328
-1.633056941990503,0.5997507533023351,9.323623066450033,3.566950529615221
-1.6270594344574796,0.633896592591887,9.359292571746185,3.561976279390409
-1.6207204685315608,0.6682962645449306,9.394912334540088,3.5598986140460975
-1.6140375058861116,0.7028140273810269,9.430511320680548,3.5607451896315054
-1.6070093656123012,0.7373107239878331,9.466118772576863,3.564551824368404
-1.5996362583724228,0.7716434688194362,9.501764290820546,3.571362032489279
-1.5919198236842285,0.8056653631956786,9.537477911145439,3.581226574573519
-1.5838631700522716,0.8392252435153248,9.573290176891174,3.5942030295964607
-1.5754709176171184,0.872167466648801,9.609232207187139,3.610355393630105
-1.5667492429506304,0.9043317369172278,9.645335761123441,3.6297537099460047
-1.5577059255814583,0.935552979599444,9.6816332982229,3.652473735038256
-1.5483503957854639,0.9656612668723501,9.718158035573284,3.6785966446665177
-1.5386937831167404,0.9944818035489392,9.754944002019949,3.7082087832530792
-1.5287489650812511,1.021834982037858,9.79202608985248,3.7414014586570894
-1.5185306152608726,1.047536518761353,9.82944010443905,3.7782707822435957
-1.5080552500732591,1.0713976880502856,9.867222812261485,3.8189175509409687
-1.4973412731927562,1.0932256745828957,9.905411987770893,3.8634471632093783
-1.4864090164469272,1.1128240721544853,9.944046459402987,3.911969553953968
-1.4752807757253823,1.1299935655096753,9.983166154942527,3.964599123643152
-1.4639808400702856,1.144532843881267,10.022812146178959,4.021454623206041
-1.4525355116314729,1.1562398107572434,10.06302669241102,4.082658937303012
-1.4409731135239003,1.1649131755663629,10.10385328178405,4.1483386824450506
-1.4293239817682366,1.1703545411788137,10.1453366686085,4.218623500732682
-1.4176204363564484,1.1723711386260263,10.187522903615827,4.29364488148097
-1.4058967249701881,1.1707794101293152,10.230459352430637,4.373534277546442
-1.394188930868895,1.1654097069295712,10.274194695206102,4.458420195559289
-1.3825348337995993,1.1561124536667544,10.318778897161694,4.54842382319207
-1.3709737092629317,1.1427662405812566,10.364263135393616,4.643652604972255
-1.3595460468571192,1.1252884424476477,10.410699661443338,4.744190984006429
-1.3482931624326426,1.103649130371587,10.458141571283402,4.85008728565795
-1.3372566711289267,1.0778892349042153,10.506642444139981,4.961335432764653
-1.3264777787798845,1.0481441194077672,10.556255798467628,5.077849867549219
-1.3159963375858068,1.014673890596915,10.60703429714312,5.199431759928901
-1.3058495986798377,0.9779018262982506,10.65902861474241,5.325724406376841
-1.2960705804168553,0.9384620881779875,10.712285858806178,5.456155858672263
-1.2866859595350755,0.8972571577164765,10.766847417392901,5.589867594882715
-1.2777133879579108,0.8555238055267926,10.822746093341728,5.725629961561275
-1.2691581499026428,0.8149033743929879,10.88000239295734,5.861748857182902
-1.261009116158713,0.7775072164762118,10.938619881529169,5.995974404401867
-1.2532340439939509,0.7459610991365041,10.998579625573187,6.1254314751885675
-1.245774433002586,0.7234041234618239,11.059833940325072,6.246602871747329
-1.2385403917679676,0.7134110392503487,11.122299969042546,6.355405052678869
-1.231406281375464,0.7198074133801698,11.185854019569334,6.447396153641883
-1.2242082072416622,0.7463624045205615,11.250327981105752,6.518136774892225
-1.2167445831964567,0.7963788425742679,11.315509348854674,6.5636790370182325
-1.208780794770714,0.8722493960191172,11.381146139224857,6.581096039254172
-1.200058300810523,0.9750892373506892,11.446957099617398,6.568910709813136
-1.1903074084370162,1.1045591024016455,11.51264620671553,6.52728047364255
-1.1792618174129998,1.2589412424955444,11.577919011451955,6.457863379031524
-1.1666724049880444,1.4354433894890826,11.64249764524227,6.363405879343751
-1.1523179710931535,1.6306301990721093,11.706131704035709,6.24718859162567
-1.1360116691024325,1.8408579148186501,11.768603589951965,6.112492136420821
-1.117603089954246,2.0626187149280777,11.829728511316173,5.962199900624219
-1.0969769028049652,2.2927566935332098,11.889350510322416,5.798579476519395
-1.074049335869633,2.5285648687829436,11.94733630508761,5.6232230488943244
-1.0487636871818036,2.767796771655922,12.003568535576553,5.4370978267062835
-1.0210857194652443,3.0086294636997417,12.057939513843616,5.240655972564698
-0.9909994248282469,3.2496068817052004,12.110346073569263,5.033965772844544
-0.9585033560111949,3.489581614202884,12.160685731297708,4.816840788721957
-0.923607539869166,3.7276640201383278,12.208854139184927,4.588955855496472
-0.8863308996677827,3.9631812611858845,12.254743697739892,4.349946769559905
-0.8466990870559238,4.195644987005801,12.29824316543549,4.099495078405233
-0.8047426371858658,4.424724262560266,12.339238116219542,3.837401843146014
-0.7604953945602632,4.650219087832185,12.377612134651002,3.5636556835758806
-0.7139932036819413,4.872028969908936,12.41324869148676,3.2785016116772923
-0.6652729139828519,5.0901101081515785,12.446033707603533,2.9825185608889813
-0.6143718129013361,5.304413672112365,12.475858893212424,2.676715290748212
-0.5613276761802125,5.514796434621415,12.502626046119905,2.3626563180803455
-0.5061797118339983,5.720894079902961,12.526252609300709,2.0426309750433007
-0.44897077103496874,5.921947931890526,12.546678919051143,1.719877898400001
-0.3897512917160635,6.116579937004831,12.563877698035142,1.3988707629930859
-0.3285854923460152,6.302522582979375,12.577866405665073,1.0856529049490833
-0.26556026651622144,6.476335959813287,12.588722934714564,0.7881701983476054
-0.20079690691808857,6.633188787590448,12.596604636698041,0.5164857838801951
-0.1344650190421841,6.766840973892339,12.601769494536843,0.28267226596177175
-0.06679660930326071,6.870015194290051,12.60459621719646,0.10010717953443041
0.0019035426396397936,6.9353188065028055,12.605597288991804,-0.018058201143281688
0.07125673070466786,6.956691881214296,12.605416706980371,-0.06120737327523777
0.1408236495168108,6.931008630576257,12.60480463324762,-0.023777165968595575
0.2101337358225734,6.859150564642075,12.604566861587934,0.09303989005428562
0.27872524146899413,6.745944728853831,12.605497260488477,0.2813292777055586
0.34618468875753244,6.59892443594007,12.608310553265532,0.5283119765405773
0.4121739331169332,6.426515905081713,12.613593673030937,0.8191448122631815
0.4764390921677503,6.236442304693263,12.62178512115357,1.1394757585172517
0.538803515214683,6.034806688995426,12.633179878738742,1.4770297467146811
0.5991515821046373,5.825859599508227,12.647950176205889,1.822172191975139
0.6574101780997196,5.612207018178547,12.66617189812564,2.1677839320157215
0.7135322482815051,5.395198442409375,12.687849737445797,2.5088248090418994
0.7674842327055988,5.175325615371066,12.712937985536216,2.8418415916027744
0.8192374888593095,4.952555298626256,12.741356401452244,3.164542799816878
0.8687630418455721,4.726577799234166,12.773001829450413,3.4754758178736944
0.9160288198379137,4.4969797221585575,12.80775658762915,3.7737994709484126
0.9609986170594993,4.263357519441574,12.845494582338635,4.059130815500053
1.003632192253915,4.025388142848049,12.886085890493636,4.3314436759411326
1.0438860736823956,3.782870199456225,12.929400327253047,4.591000008045673
1.0817147756769578,3.535745987479834,12.975310327333505,4.8382995279701815
1.1170722355517562,3.2841125082195686,13.023693322613207,5.074036701251834
1.1499133606339518,3.028228146168816,13.074433689625724,5.299056722373851
1.1801956420956399,2.7685210698971434,13.127424256849462,5.51430353381177
1.2078808527946112,2.505605352503193,13.18256729218758,5.720753374895475
1.2329369063196431,2.2403111266026317,13.239774825936534,5.919327039531243
1.2553400175856695,1.9737354530904145,13.298968096331846,6.110773349926984
1.2750773721165736,1.7073204051044124,13.360075829831116,6.295516096298905
1.2921505761676177,1.442963025792594,13.423030990794105,6.473458371450671
1.3065802064255436,1.1831563206788436,13.487765574508613,6.64374458477893
1.318411769632332,0.9311482444634099,13.554203020356402,6.804495737401632
1.3277232520769662,0.6910832389878331,13.622247977730419,6.95256281655942
1.3346340844668445,0.4680571013497321,13.691773605896014,7.083388537733826
1.339314655480342,0.26797856619751603,13.762607491273352,7.191119337917094
1.341994441142317,0.09711609873878985,13.834518684652522,7.269132748650534
1.342965602129705,-0.038737530917724916,13.907210012139029,7.311077129131239
1.3425782268205277,-0.13538866269160182,13.980320783430342,7.312307805438125
1.3412243401936117,-0.1913284109701793,14.053443861484723,7.271295031448131
1.3393110560839099,-0.20831506851913034,14.126156811799204,7.190391406145391
1.3372279053987186,-0.19112638647760324,14.198060725860657,7.075529836915558
1.3353166415339426,-0.1465533774139467,14.268816024229812,6.934950944391969
1.3338511077598032,-0.08207584994824609,14.338165533673731,6.777541009026675
1.3330303492603208,-0.004720320071960674,14.405940943763998,6.611430261474498
1.332983146059601,0.07962455824257672,14.472055246378742,6.443195073772484
