th1 (rad),w1 (rad/s),th2 (rad),w2 (rad/s),a1 (rad/s^2),a2 (rad/s^2)
2.4284480179284067,2.236224324352152,2.680435126188262,-0.7841520845516115,-6.815076076732732,0.992176915598294
2.4508102611719282,2.1680735635848243,2.672593605342746,-0.7742303153956285,-6.70210746670842,1.074436448212773
2.4724909968077764,2.10105248891774,2.66485130218879,-0.7634859509135008,-6.563681797722283,1.1016012135070874
2.493501521696954,2.0354156709405173,2.657216442679655,-0.7524699387784299,-6.400913832326351,1.076660331082463
2.513855678406359,1.9714065326172538,2.649691743291871,-0.7417033354676053,-6.215513532755579,1.003399562552569
2.5335697437325315,1.909251397289698,2.642274709937195,-0.7316693398420796,-6.009656141816201,0.886204602454157
2.5526622577054283,1.849154835871536,2.634958016538774,-0.722807293817538,-5.785842417649077,0.7298520971411303
2.5711538060641437,1.7912964116950452,2.6277299436005985,-0.7155087728461268,-5.546762033498348,0.5393071496915389
2.5890667701810943,1.7358287913600616,2.620574855872137,-0.7101157013492114,-5.295170414086673,0.31954204241638684
2.606425058094695,1.682877087219195,2.613473698858645,-0.7069202809250476,-5.033785843693721,0.07538588793676078
2.623253828966887,1.6325392287822578,2.606404496049395,-0.7061664220456799,-4.76521022920121,-0.18859010814726426
2.6395792212547096,1.5848871264902458,2.599342831828938,-0.7080523231271526,-4.491873931303905,-0.4681514066681324
2.655428092519612,1.5399683871772067,2.592262308597667,-0.7127338371938339,-4.2160028575696,-0.7594457678552052
2.670827776391384,1.4978083586015107,2.5851349702257287,-0.7203282948723859,-3.939604605178243,-1.059020638448438
2.6858058599773993,1.4584123125497284,2.5779316872770046,-0.7309185012568703,-3.664469765796985,-1.363818136155302
2.7003899831028964,1.4217676148917584,2.570622502264436,-0.7445566826184233,-3.3921843983608952,-1.6711536068400374
2.714607659251814,1.3878457709081495,2.5631769354382516,-0.7612682186868237,-3.124149954168917,-1.9786832991135979
2.7284861169608954,1.3566042713664603,2.5555642532513834,-0.7810550516779596,-2.8616074359868304,-2.284365950736066
2.74205215967456,1.327988197006592,2.5477537027346036,-0.8038987111853203,-2.6056631582078054,-2.5864222024374843
2.755332041644626,1.301931565424514,2.5397147156227504,-0.8297629332096952,-2.357314059116004,-2.883294878627803
2.7683513572988714,1.278358424833354,2.5314170862906535,-0.8585958819959733,-2.1174710466811244,-3.173612378077912
2.781134941547205,1.2571837143665427,2.5228311274706936,-0.8903320057767524,-1.8869793129161818,-3.4561567356590728
2.7937067786908703,1.2383139212373808,2.513927807412926,-0.9248935731333432,-1.6666349255656006,-3.7298373539179996
2.806089917903244,1.2216475719817248,2.504678871681593,-0.9621919466725232,-1.4571973086629706,-3.993670948304443
2.8183063936230615,1.2070755988950952,2.495056952214868,-1.0021286561555676,-1.2593974698190364,-4.2467678816077985
2.8303771496120125,1.1944816241969047,2.485035665653312,-1.0445963349716456,-1.0739420374521917,-4.488324759376287
2.8423219658539813,1.1837422038223828,2.4745897023035957,-1.0894795825654084,-0.9015133489129001,-4.717622899484744
2.854159387892205,1.1747270703332537,2.4636949064779414,-1.1366558115602559,-0.7427659899422405,-4.9340320619007665
2.8659066585955375,1.1672994104338312,2.452328348362339,-1.1859961321792636,-0.598320331609626,-5.137018622282257
2.877579652699876,1.161316207117735,2.4404683870405464,-1.2373663184020862,-0.4687537422444155,-5.326157195565117
2.8891928147710533,1.1566286696952908,2.4280947238565256,-1.2906278903577375,-0.35459026390242687,-5.501144569602025
2.9007591014680063,1.1530827670562664,2.4151884449529484,-1.3456393360537577,-0.2562896272849553,-5.661814705135809
2.912289929138569,1.150519870783417,2.4017320515924108,-1.4022574831051158,-0.17423652582099122,-5.808153509994335
2.9237951278464034,1.1487775055252072,2.38770947676136,-1.460339018205059,-0.10873106929136435,-5.940312114703553
2.9352829029016556,1.1476901948322935,2.373106086579309,-1.5197421393520947,-0.05998128289890979,-6.058617472348654
2.9467598048499783,1.1470903820033045,2.357908665185788,-1.5803283140755813,-0.028098406502009395,-6.163579279738208
2.9582307086700115,1.1468093979382843,2.342105382045032,-1.6419641068729633,-0.013095584079452325,-6.255892463837186
2.9696988026493942,1.1466784420974898,2.3256857409763025,-1.704523031511335,-0.014890324962186443,-6.336434782356093
2.981165587070369,1.146529538847868,2.3086405106611894,-1.767887379334896,-0.03331088132724689,-6.406259427751303
2.992630882458848,1.1461964300345955,2.2909616368678405,-1.831949973612409,-0.0681064404992711,-6.466582871570297
3.004092846759194,1.1455153656296029,2.2726421371317165,-1.8966158023281119,-0.11896079716726388,-6.518768510797353
3.0155480004154898,1.1443257576579302,2.2536759791084355,-1.9618034874360855,-0.1855089701286164,-6.564306951184597
3.0269912579920693,1.142470667956644,2.234057944234075,-2.0274465569479316,-0.2673560773243843,-6.604793961669444
3.0384159646716355,1.1397971071834003,2.2137834786645953,-2.093494496564626,-0.3640976925638225,-6.641907244573679
3.0498139357434697,1.136156130257762,2.192848533698949,-2.159913569010363,-0.47534088122408236,-6.677383184066465
3.0611754970460474,1.1314027214455213,2.1712493980088454,-2.2266874008510276,-0.6007251469900916,-6.712994666006144
3.0724895242605026,1.1253954699756203,2.1489825240003353,-2.293817347511089,-0.7399426078539564,-6.750530919780257
3.0837434789602587,1.1179960438970808,2.1260443505252242,-2.3613226567088916,-0.8927568432173301,-6.791780136902534
3.0949234393992295,1.1090684754649076,2.1024311239581355,-2.429240458077917,-1.059019998895657,-6.838515394241302
3.106014124153879,1.098478275475951,2.0781387193773564,-2.49762561202033,-1.2386878868804647,-6.8924841736752676
3.116998906908638,1.0860913966071464,2.053162463257153,-2.566550453757083,-1.431832957331591,-6.955401543465923
3.1278598208747095,1.0717730670338306,2.027496958719582,-2.6361044691917423,-1.6386551397902729,-7.0289468636862065
3.1385775515450476,1.055386515635928,2.0011359140276648,-2.7063939378286044,-1.8594906408029537,-7.1147637070601295
3.149131416701407,1.0367916092278984,1.9740719746493787,-2.777541574899206,-2.0948188411767243,-7.214462550412288
3.1594993327936858,1.015843420816131,1.9462965589003867,-2.8496862004033288,-2.345267455953457,-7.329625688575673
3.169657767001847,0.9923907462565965,1.9177996968963533,-2.9229824572890855,-2.6116161039313135,-7.461813746167345
3.179581674464413,0.9662745852172834,1.8885698723234625,-2.997600594750759,-2.89479838232453,-7.6125731044879155
3.189244420316586,0.9373266013940381,1.858593866375955,-3.073726325795638,-3.1959024572768806,-7.783443510628245
3.1986176863305262,0.9053675768212693,1.8278566031179986,-3.1515607609019205,-3.516170063180409,-7.9759650825514825
3.207671362098739,0.8702058761894652,1.7963409955089793,-3.2313204117274354,-3.8569936526416626,-8.191683856118292
3.2163734208606334,0.8316359396630486,1.7640277913917048,-3.3132372502886183,-4.219911252402608,-8.432154926542124
3.224689780257264,0.7894368271390225,1.7308954188888186,-3.3975587995540395,-4.606598354644937,-8.698942106736729
3.232584148528654,0.7433708435925731,1.6969198308932782,-3.4845482206214067,-5.018855902131044,-8.993612848026073
3.2400178569645797,0.6931822845712626,1.6620743486870642,-3.5744843491016676,-5.458593102216107,-9.317726934905586
3.2469496798102924,0.6385963535491016,1.6263295051960476,-3.6676616184507234,-5.927803420525672,-9.672817166126956
3.253335643345783,0.5793183193438449,1.5896528890115404,-3.764389790111993,-6.428531651628132,-10.060359862256657
3.2591288265392215,0.5150330028275636,1.5520089911104205,-3.8649933887345598,-6.96282943457537,-10.481732591222817
3.2642791565674973,0.4454047084818099,1.5133590572230748,-3.969810714646788,-7.532695973243411,-10.93815598018939
3.2687332036523156,0.3700777487493758,1.473660950076607,-4.0791922744486815,-8.140000040797135,-11.430615896140694
3.2724339811398093,0.28867774834140447,1.43286902733212,-4.193498433410088,-8.786378614487386,-11.959761656415234
3.2753207586232236,0.2008139621965306,1.3909340429980193,-4.313096049974241,-9.473106744573714,-12.525775326272003
3.2773288982451887,0.10608289475079347,1.347803082498277,-4.438353803236961,-10.200932587876103,-13.128206662304102
3.2783897271926965,0.004073568872032432,1.3034195444659074,-4.569635869860002,-10.969871062227774,-13.765768009796565
3.278430462881417,-0.10562514175024532,1.2577231857673072,-4.707293549957967,-11.778949505025466,-14.436083673313416
3.2773742114639144,-0.22341463680049997,1.2106502502677277,-4.851654386691101,-12.62589934558909,-15.135389262510381
3.2751400650959095,-0.34967363025639087,1.1621337064008166,-5.003008279316205,-13.506789546645715,-15.85817869589703
3.2716433287933455,-0.484741525722848,1.1121036236076545,-5.161590066275176,-14.415600993990836,-16.59680048040233
3.266795913536117,-0.6288975356627564,1.0604877229449028,-5.327558071079199,-15.343746813290094,-17.341011250860603
3.2605069381794896,-0.7823350037956573,1.0072121422341107,-5.500968183587805,-16.279552564968338,-18.077504093124503
3.252683588141533,-0.9451305294453407,0.9522024603982326,-5.68174322451905,-17.20772319203157,-18.789442561692276
3.2432322828470794,-1.1172077613656564,0.8953850281530421,-5.869637650135973,-18.108841006326692,-19.456048890116442
3.232060205233423,-1.2982961714289232,0.8366886516516824,-6.064198139037137,-18.958960797466382,-20.05231629594532
3.2190772435191337,-1.487885779403587,0.776046670261311,-6.26472130199659,-19.729393028711478,-20.54893878790135
3.204198385725098,-1.6851797096907017,0.7133994572413451,-6.4702106898756035,-20.386790802856282,-20.912573730023997
3.187346588628191,-1.8890476177192645,0.6486973503425891,-6.679336427175843,-20.89367493299699,-21.106566140019723
3.1684561124509982,-2.0979843670492344,0.5819039860708307,-6.890402088576041,-21.209535092115363,-21.09225992503914
3.147476268780506,-2.310079717970388,0.5129999651850703,-7.101324687826432,-21.292622209498585,-20.83098858160559
3.124375471600802,-2.523005940065374,0.44198671830680597,-7.309634573642488,-21.102486327397855,-20.28676554228052
3.0991454122001483,-2.7340308033393526,0.3688903725703811,-7.512502229065293,-20.60320748156147,-19.429577141187234
3.0718051041667547,-2.940062878154967,0.29376535027972817,-7.706798000477166,-19.76711782890548,-18.23902611888227
3.042404475385205,-3.137734056444022,0.2166973702749565,-7.889188261665988,-18.57864130852364,-16.70790607409376
3.0110271348207647,-3.3235204695292584,0.13780548765829662,-8.056267322406926,-17.037722713208222,-14.845152445055744
2.977791930125472,-3.4938976966613406,0.05724281443422735,-8.204718846857483,-15.16223596201207,-12.677570306189546
2.9428529531588588,-3.6455200562814616,-0.024804374034347487,-8.331494549919379,-12.988804586165916,-10.249832428377244
2.9063977525960443,-3.7754081021431207,-0.10811931953354127,-8.43399287420315,-10.571662517094978,-7.6224873718489965
2.868643671574613,-3.8811247273140705,-0.1924592482755728,-8.51021774792164,-7.979508182994422,-4.868077110627229
2.8298324243014723,-3.960919809144015,-0.2775614257547892,-8.558898519027913,-5.290684198163427,-2.065844080546313
2.790223226210032,-4.013826651125649,-0.36315041094506834,-8.579556959833376,-2.58734107490925,0.7042069525630809
2.7500849596987758,-4.039700061874742,-0.44894598054340207,-8.572514890307744,0.0505811421565417,3.3670263062277654
2.7096879590800285,-4.039194250453177,-0.5346711294464795,-8.538844627245465,2.550740727934988,5.857258739804395
2.6692960165754966,-4.013686843173827,-0.6200595757189342,-8.48027203984742,4.8525342060271734,8.122514287834319
2.629159148143758,-3.965161501113555,-0.7048622961174085,-8.399046896969077,6.9096637330734145,10.125007520592623
2.5895075331326227,-3.896064863782821,-0.7888527650870992,-8.29779682176315,8.691105551011274,11.841691553424946
2.5505468844947945,-3.809153808272708,-0.8718307333047307,-8.1793799062289,10.180685464593628,13.263202353411996
2.5124553464120676,-3.707346953626772,-0.9536245323670197,-8.046747882694781,11.37560162687052,14.392004363451022
2.4753818768758,-3.593590937358067,-1.0340920111939675,-7.902827839060271,12.284275441471701,15.240113295092588
2.4394459675022193,-3.47074818294335,-1.1131202895845702,-7.750426706109345,12.923883447370642,15.82670416686015
2.404738485672786,-3.3415093484696436,-1.1906245566456637,-7.592159664440744,13.31785690369428,16.17582693057349
2.3713233921880894,-3.2083307794327007,-1.266546153290071,-7.430401395135009,13.493556384364242,16.31437091982437
2.3392400843937624,-3.0733952155890583,-1.340850167241421,-7.267257685936765,13.480252240685992,16.270353204221525
2.3085061322378717,-2.938592693182198,-1.4135227441007887,-7.10455415389455,13.307476745366735,16.07155678054726
2.2791202053060498,-2.8055179257285308,-1.4845682856397342,-6.943838586089077,13.003763252346737,15.744510454666926
2.2510650260487646,-2.675480293205063,-1.5540066715006249,-6.786393481542408,12.595751897830665,15.313780272161098
2.224310223116714,-2.5495227742267565,-1.6218706063160488,-6.633255678820797,12.107618749075977,14.801529677783043
2.1988149953744465,-2.428446586735997,-1.6882031631042569,-6.485240382042966,11.560773642772675,14.227299979751333
2.1745305295070865,-2.31283885030827,-1.7530555669246866,-6.342967382245453,10.973768722877889,13.607962328904694
2.1514021410040036,-2.2031011630794914,-1.816485240747141,-6.206887758956406,10.362362391258921,12.957795721969667
2.1293711293732085,-2.099477539166902,-1.8785541183367052,-6.0773098017367095,9.739689774156032,12.288651132662354
2.1083763539815394,-2.0020806414253416,-1.9393272163540722,-5.954423290410086,9.116499029568121,11.610168609412328
2.088355547567286,-1.9109156511296603,-1.9988714492581732,-5.838321604315962,8.501421483689091,10.930021147984606
2.0692463910559895,-1.8259014362927695,-2.0572546653013326,-5.729021392836116,7.901251752104663,10.25416570907413
2.0509873766930617,-1.746888918771723,-2.114544879229694,-5.626479735745375,7.321221131988209,9.587087511947436
2.0335184875053445,-1.6736767074518408,-2.170809676587148,-5.5306088606259,6.7652534101946245,8.932028510824187
2.016781720430826,-1.6060241733498946,-2.226115765193407,-5.4412885755176585,6.23619679796853,8.29119472174379
2.000721478697327,-1.5436622053702092,-2.2805286509485834,-5.3583766283002205,5.7360290861556855,7.66593988679304
1.985284856643625,-1.4863019145086522,-2.3341124172315855,-5.2817172294322905,5.266035491819296,7.056924968375335
1.9704218374985385,-1.4336415595904592,-2.3869295895259084,-5.211147979748537,4.826960235140536,6.464254308631558
1.956085421902634,-1.385371957239054,-2.4390410693233937,-5.146505436662221,4.419133833583215,5.887590116366088
1.9422317023302436,-1.3411806189032218,-2.490506123690016,-5.087629535498561,4.042578594346587,5.3262473889301125
1.9288198961412113,-1.300754832959756,-2.5413824190450014,-5.0343670616092595,3.697094962485336,4.779271551246754
1.9158123478116138,-1.2637838833349027,-2.591726089661094,-4.986574346096792,3.382331347327623,4.245501087791169
1.9031745089782648,-1.2299605698616265,-2.641591833122062,-4.944119335218881,3.097839883640793,3.7236173242254966
1.8908749032796486,-1.1989821710252186,-2.691033026474251,-4.9068831619766256,2.8431203433699253,3.212183334043004
1.8788850815693965,-1.1705509675915193,-2.740101858094017,-4.874761328636196,2.6176541375105886,2.709673738181388
1.8671795718934814,-1.1443744262164135,-2.7888494713803786,-4.847664591254382,2.420930060509442,2.2144969574299296
1.8557358276313172,-1.120165125611319,-2.8373261172929225,-4.825519621680083,2.252463145629905,1.7250112861247713
1.844534176375204,-1.09764049415502,-2.8855813135097232,-4.808269508818835,2.1118077251521896,1.2395359935660495
1.8335577714336537,-1.0765224169034981,-2.9336640085979115,-4.795874148883175,1.9985655242723481,0.7563585364809655
1.8227925472646187,-1.0565367616607746,-2.981622750086743,-4.788310563518365,1.9123893575377628,0.27373889059404344
1.812227179648011,-1.037412868085397,-3.029505855721927,-4.785573174612425,1.8529827328789135,-0.21008800808998054
1.8018530509671569,-1.0188830407566078,-3.0773615874680513,-4.787674054693325,1.8200953879383535,-0.6969106684543375
1.7916642205595907,-1.0006820868772244,-3.1252383280149845,-4.794643161377869,1.81351446900584,-1.188539110293681
1.7816573996908185,-0.982546942187166,-3.173184759628763,-4.806528552480806,1.833050691283307,-1.6868011500748477
1.771831930268947,-0.9642164352743329,-3.221250045153571,-4.823396563981555,1.87851835986373,-2.193535060388792
1.7621897659162036,-0.9454312516756955,-3.2694840107933865,-4.845331914585443,1.9497075434215032,-2.710576152849974
1.7527354533994466,-0.9259341762414804,-3.317937329939241,-4.872437676113942,2.0463459241988953,-3.239733961919112
1.7434761116370319,-0.9054707169994914,-3.3666617067003806,-4.904835015733133,2.1680468293602346,-3.7827554734059414
1.734421404467037,-0.8837902487058891,-3.415710056857712,-4.942662570467193,2.3142385917126584,-4.341268122429586
1.7255835019799781,-0.8606478627887625,-3.465136682562384,-4.986075251691489,2.484068582492499,-4.916693922390173
1.7169770233520905,-0.8358071769638376,-3.514997435079299,-5.03524219091539,2.6762728771696294,-5.51012288505915
1.7086189515824521,-0.8090444481921413,-3.565349856988453,-5.090343419765982,2.8889994234769465,-6.122129636031703
1.7005285071005307,-0.7801544539573718,-3.616253291186113,-5.151564716126299,3.119568675858044,-6.752511621840611
1.692726962560957,-0.7489587671987914,-3.667768938347376,-5.2190898323447055,3.3641509491767154,-7.399920463679251
1.685237374888969,-0.7153172577070243,-3.719959836670823,-5.293089036981498,3.6173345070238088,-8.061350080088706
1.678084202311899,-0.6791439126367862,-3.772890727040638,-5.3737025377823855,3.87155350063604,-8.731437147993683
1.671292763185531,-0.6404283776304258,-3.826627752418462,-5.461016909262322,4.116342319705837,-9.40152373897052
1.6648884794092267,-0.5992649544333675,-3.8812379215110853,-5.555032146652027,4.337386788560553,-10.05843372854481
1.658895829864893,-0.555891086547762,-3.9367882429776055,-5.655616483937475,4.515360517360605,-10.68293368711349
1.6533369189994154,-0.510737481374156,-3.99334440781698,-5.76244582080861,4.6245794873792265,-11.247902524650312
1.6482295441856738,-0.4644916865003637,-4.050968866025066,-5.874924846055113,4.631599297590937,-11.71634876961787
1.6435846273206702,-0.41817569352445433,-4.109718114485617,-5.992088333751292,4.494042736834028,-12.039624945073205
1.6394028703854258,-0.373235266156114,-4.169638997823131,-6.112484583202025,4.160202176899996,-12.156526500787676
1.6356705177238646,-0.33163324438711406,-4.230763843655151,-6.234049848209901,3.570302950810671,-11.994420533469583
1.6323541852799934,-0.29593021487900734,-4.29310434213725,-6.353994053544597,2.6606462202842196,-11.474006409265309
1.6293948831312033,-0.26932375267616515,-4.356644282672695,-6.468734117637251,1.3719156937696142,-10.519426930244318
1.6267016456044416,-0.255604595738469,-4.421331623849068,-6.573928386939694,-0.33772687618422914,-9.074611552291978
1.6241455996470568,-0.2589818645003113,-4.487070907718465,-6.6646745024626135,-2.476016386533976,-7.124269198004934
1.6215557810020538,-0.28374202836565104,-4.553717652743091,-6.735917194442663,-5.000779293590806,-4.713873830793335
1.6187183607183973,-0.3337498213015591,-4.621076824687518,-6.783055932750596,-7.812238606740648,-1.9591185859853595
1.6153808625053816,-0.41187220736896557,-4.688907384015024,-6.80264711861045,-10.76068082462189,0.9645661387387784
1.611262140431692,-0.5194790156151845,-4.756933855201128,-6.793001457223062,-13.671382589743505,3.854646470083719
1.6060673502755403,-0.6561928415126196,-4.824863869773359,-6.754454992522225,-16.379631560422553,6.526491423810356
1.5995054218604141,-0.8199891571168452,-4.892408419698581,-6.689190078284121,-18.76218596459175,8.852650383133472
