th1 (rad),w1 (rad/s),th2 (rad),w2 (rad/s),a1 (rad/s^2),a2 (rad/s^2)
2.7700966040285544,0.9219428461777962,5.724045442554704,2.129570644669939,-1.2732386761484906,3.7890332386231744
2.7793160324903323,0.9092104594163113,5.745341149001404,2.167460977056171,-1.2854814643003003,3.6102886671778402
2.7884081370844953,0.8963556447733083,5.767015758771966,2.203563863727949,-1.31285365319202,3.410986434910617
2.7973716935322286,0.8832271082413881,5.789051397409246,2.237673728077055,-1.3557014496259132,3.1908354599647866
2.8062039646146424,0.8696700937451289,5.811428134690016,2.269582082676703,-1.4142532124245568,2.9496885386114107
2.8149006655520936,0.8555275616208834,5.834123955516783,2.299078968062817,-1.4885980203318963,2.6875686441529516
2.8234559411683025,0.8406415814175644,5.8571147451974115,2.3259546545043466,-1.5786651899644637,2.404694404129024
2.831862356982478,0.8248549295179197,5.880374291742455,2.350001598545637,-1.6842056507799024,2.101503690136618
2.840110906277657,0.8080128730101207,5.903874307727911,2.371016635447003,-1.80477616477297,1.7786741470697878
2.8481910350077584,0.789965111362391,5.927584474082381,2.388803376917701,-1.9397274149878998,1.4371394305661542
2.8560906861213824,0.770567837212512,5.951472507851558,2.4031747712233624,-2.0881969659922555,1.0780999286574728
2.8637963644935076,0.7496858675525895,5.975504255563791,2.4139557705099373,-2.2491080105373036,0.7030268294315731
2.8712932231690336,0.7271947874472164,5.999643813268891,2.420986038804253,-2.4211746531772627,0.3136585698228348
2.8785651710435056,0.7029830409154438,6.023853673656934,2.424122624502481,-2.602914242911393,-0.08801103620045118
2.88559500145266,0.6769538984863299,6.048094899901958,2.4232425141404765,-2.792666959437026,-0.4997533447240134
2.8923645404375233,0.6490272288919596,6.0723273250433625,2.4182449806932365,-2.9886224957750542,-0.9191340431514653
2.898854812726443,0.6191410039342091,6.096509774850295,2.409053640261722,-3.1888532859830705,-1.3435504044587678
2.905046222765785,0.5872524710743784,6.120600311252913,2.3956181362171343,-3.391353328928168,-1.7702756411030167
2.910918747476529,0.5533389377850967,6.144556492615084,2.377915379806104,-3.59408129014062,-2.19650891849052
2.91645213685438,0.5173981248836905,6.168335646413145,2.355950290621199,-3.7950062567330876,-2.6194292054502455
2.921626118103217,0.47944806231635967,6.1918951493193575,2.3297559985666965,-3.992154305154534,-3.0362508569357036
2.9264205987263803,0.43952651926481434,6.2151927093050245,2.2993934899973394,-4.183653941043368,-3.4442786706873663
2.9308158639190283,0.39768997985438065,6.238186644204998,2.2649507032904657,-4.367778497363277,-3.8409601520743846
2.934792763717572,0.35401219488074787,6.2608361512379025,2.2265411017697216,-4.5429837319254975,-4.223932863288775
2.9383328856663797,0.3085823575614929,6.2831015622556,2.1843017731368337,-4.707939136377352,-4.591065013490684
2.9414187092419946,0.26150296619771934,6.304944579986968,2.138391123001927,-4.8615518325879625,-4.9404878411066155
2.944033738903972,0.21288744787183972,6.326328491216987,2.0889862445908607,-5.002982357456747,-5.270618813630029
2.94616261338269,0.16285762429727224,6.347218353662896,2.0362800564545602,-5.131652087260806,-5.580175183226511
2.9477911896256628,0.11154110342466418,6.367581154227442,1.9804783046222951,-5.247242491143346,-5.868177946186148
2.9489066006599094,0.059068678513230714,6.387385937273665,1.9217965251604336,-5.3496867973191256,-6.133946722174689
2.9494972874450416,0.005571810540039461,6.406603902525269,1.8604570579386868,-5.439154979061688,-6.3770864639452025
2.949553005550442,-0.04881973925057742,6.425208473104656,1.7966861932992346,-5.516033203561462,-6.597467208125782
2.9490648081579365,-0.10398007128619205,6.443175335037648,1.730711521217977,-5.580899028031659,-6.7951982722099284
2.9480250074450747,-0.15978906156650863,6.460482450249828,1.6627595384958775,-5.634493675882668,-6.970598391746767
2.9464271168294096,-0.2161339983253353,6.477110045634787,1.59305355457841,-5.67769269089902,-7.124163283696515
2.9442657768461564,-0.27291092523432553,6.493040581180571,1.5218119217414448,-5.711476164106019,-7.256532032342968
2.9415366675938133,-0.3300256868753857,6.5082587003979855,1.449246601418015,-5.736899574437937,-7.368453542380184
2.9382364107250596,-0.38739468261976506,6.522751166412165,1.3755620659942132,-5.755066099238956,-7.460754110576357
2.934362463898862,-0.44494534361215465,6.536506787072107,1.3009545248884495,-5.767101051764884,-7.534306952761781
2.9299130104627404,-0.5026163541298035,6.549516332320992,1.2256114553608317,-5.77412890546314,-7.590004304394948
2.924886846921442,-0.5603576431844349,6.5617724468746,1.1497114123168823,-5.777253180879174,-7.628732504839431
2.919283270489598,-0.6181301749932266,6.573269560997769,1.0734240872684881,-5.7775393090052,-7.651350288112418
2.9131019687396655,-0.6759055680832786,6.584003801870454,0.996910584387364,-5.776000449770621,-7.65867034284516
2.906342913058833,-0.7336655725809849,6.593972907714328,0.9203238809589124,-5.773586138199746,-7.65144407474474
2.8990062573330233,-0.7914014339629823,6.603176146523917,0.843809440211465,-5.771173553158187,-7.630349406402869
2.8910922429933934,-0.8491131694945642,6.6116142409260314,0.7675059461474363,-5.769561152449499,-7.5959813802059495
2.882601111298448,-0.9068087810190592,6.619289300387506,0.6915461323453768,-5.769464390055994,-7.548845287290989
2.8735330234882572,-0.964503424919619,6.62620476171096,0.6160576794724668,-5.771513222704285,-7.48935202508458
2.863887989239061,-1.022218557146662,6.632365338505684,0.541164159221621,-5.7762511196907615,-7.417815383762826
2.853665803667594,-1.0799810683435696,6.6377769800979,0.4669860053839927,-5.78413530820888,-7.334450973842786
2.8428659929841587,-1.1378224214256583,6.64244684015174,0.39364149564556483,-5.795538012843007,-7.239376529239121
2.831487768769902,-1.1957778015540883,6.646383255108195,0.3212477303531736,-5.810748479495643,-7.132613349135523
2.819529990754361,-1.2538852863490448,6.6495957324117265,0.24992159686181836,-5.82997560839857,-7.014088675104334
2.8069911378908703,-1.3121850424330306,6.652094948380345,0.179780710110775,-5.853351056157279,-6.883638834771296
2.79386928746654,-1.3707185529946033,6.653892755481452,0.11094432176306204,-5.88093270160682,-6.741013018175097
2.7801621019365936,-1.4295278800106714,6.655002198699083,0.04353419158131107,-5.9127084036464135,-6.585877586454798
2.765866823136487,-1.4886549640471356,6.655437540614896,-0.022324584283236915,-5.94860001053756,-6.417820843606204
2.7509802734960154,-1.5481409641525112,6.655214294772064,-0.08650279271929896,-5.988467609022956,-6.236358230043677
2.7354988638544904,-1.6080256402427409,6.6543492668448705,-0.14886637501973574,-6.032114027864437,-6.040937921037376
2.719418607452063,-1.6683467805213852,6.652860603094673,-0.2092757542301095,-6.07928963394063,-5.8309468333321375
2.7027351396468493,-1.7291396768607914,6.650767845552372,-0.26758522256343087,-6.1296974798861195,-5.605717059007249
2.6854437428782414,-1.7904366516596526,6.648091993326738,-0.32364239315350335,-6.182998880409107,-5.364532756515388
2.667539376361645,-1.8522666404637436,6.644855569395203,-0.37728772071865724,-6.238819509891235,-5.1066375344063815
2.6490167099570074,-1.914654835562656,6.641082692188016,-0.42835409606272107,-6.296756126605799,-4.831242362981202
2.629870161601381,-1.977622396828714,6.636799151227389,-0.4766665196925331,-6.356384038784659,-4.53753404242182
2.610093937633094,-2.041186237216561,6.632032486030464,-0.5220418601167512,-6.4172654346522915,-4.224684242088683
2.5896820752609284,-2.1053588915630836,6.626812067429296,-0.5642887025376381,-6.4789587022029576,-3.891859103862275
2.5686284863452977,-2.170148478585113,6.621169180403919,-0.6032072935762608,-6.541028864663144,-3.5382293717518207
2.5469270015594465,-2.2355587672317445,6.615137107468157,-0.638589587293779,-6.6030592539906445,-3.1629809695959645
2.524571413887129,-2.301589359771651,6.608751211595219,-0.6702193969897386,-6.66466453719781,-2.7653258976614548
2.501555520289412,-2.368236005143629,6.602049017625322,-0.6978726559663532,-6.7255051986488,-2.344513256535108
2.477873160237976,-2.435491057130117,6.5950702910656585,-0.7213177885317043,-6.785303565876352,-1.8998401323264267
2.4535182496666748,-2.5033440927888804,6.587857113180341,-0.7403161898549685,-6.8438614473188455,-1.4306619905816216
2.428484808738786,-2.5717827072620687,6.5804539512817914,-0.7546228097607847,-6.901079428570935,-0.9364021275889212
2.402766981666165,-2.640793501547778,6.5729077231841835,-0.7639868310366739,-6.956977850753621,-0.4165596175750021
2.376359046650687,-2.710363280055314,6.565267854873817,-0.7681524272124239,-7.011719472694862,0.12928492612009007
2.349255413850134,-2.7804804747822627,6.557586330601692,-0.7668595779512231,-7.065633800965537,0.7014665866157985
2.3214506091023113,-2.851136812791918,6.54991773482218,-0.7598449120850651,-7.119243062742238,1.300237321373903
2.292939240974392,-2.9223292434193406,6.542319285701329,-0.7468425388713261,-7.173289801530825,1.9257721660557068
2.2637159485401988,-2.994062141434649,6.534850860312616,-0.7275848172107691,-7.228766101914078,2.578181686576283
2.2337753271258523,-3.06634980245379,6.527575012140509,-0.7018030003450062,-7.28694450504798,3.2575320382301465
2.2031118291013145,-3.1392192475042697,6.520556982137059,-0.6692276799627047,-7.349410771419507,3.963874124294162
2.1717196366262717,-3.212713355218465,6.513864705337432,-0.6295889387197631,-7.418098792549618,4.697283477763684
2.139592503074087,-3.286894343143961,6.5075688159502345,-0.5826161039421263,-7.495328161245878,5.457912622797171
2.1067235596426475,-3.36184762475642,6.501742654910813,-0.5280369777141546,-7.5838451940353195,6.246057815219844
2.0731050833950833,-3.437686076696773,6.4964622851336715,-0.4655763995619561,-7.686868573565321,7.062242227497909
2.0387282226281154,-3.5145547624324265,6.491806521138052,-0.394953977286977,-7.808141257269755,7.907317852190824
2.0035826750037913,-3.592636175005124,6.487856981365183,-0.3158807987650688,-7.951990895070741,8.782588673701115
1.9676563132537401,-3.6721560839558314,6.484698173377532,-0.22805491202805767,-8.123401724768843,9.689958029034031
1.9309347524141818,-3.75339010120352,6.482417624257251,-0.13115533173771737,-8.32810177514072,10.632103569585437
1.8934008514021465,-3.836671118954927,6.481106070939874,-0.02483429604186299,-8.57267019761533,11.612683858462669
1.8550341402125972,-3.9223978209310806,6.480857727979456,0.0912925425427637,-8.864670635831688,12.636581363993155
1.8158101620032863,-4.011044527289397,6.481770653404883,0.21765835618269525,-9.212817642518292,13.71018732861223
1.7756997167303923,-4.10317270371458,6.48394723696671,0.3547602294688176,-9.627184069137376,14.84173442160744
1.7346679896932464,-4.199444544405954,6.487494839261398,0.503177573684892,-10.119457669316613,16.04168260713404
1.692673544249187,-4.30063912109912,6.492526614998247,0.6635943997562324,-10.703254018901623,17.32316100662882
1.6496671530381957,-4.407671661288137,6.499162558995809,0.8368260098225205,-11.394488549391957,18.702461176834618
1.6055904364253144,-4.521616546782056,6.507530819094034,1.0238506215908667,-12.211799613500801,20.199560186858115
1.560374270957494,-4.643734542917064,6.517769325309943,1.2258462234594478,-13.176990332403863,21.83861543842153
1.5139369255283233,-4.7755044462411025,6.530027787544538,1.4442323778436632,-14.315406292961686,23.64829836593736
1.4661818810659122,-4.91865850917072,6.544470111322974,1.6807153615030368,-15.656063020776223,25.661684005880485
1.416995295974205,-5.075219139378482,6.5612772649380044,1.9373322015618417,-17.231130856913538,27.915116106548194
1.3662431045804202,-5.247530447947617,6.580650586953623,2.2164833626273235,-19.07397746803191,30.444884804251252
1.313767800100944,-5.438270222627936,6.602815420579896,2.520932210669836,-21.214175227107116,33.27942673810702
1.2593850978746648,-5.650411974899007,6.628024742686594,2.8537264780509064,-23.666373735790977,36.42262652346884
1.2028809781256746,-5.887075712256917,6.656562007467103,3.2179527432855948,-26.40720684712871,39.81995535805182
1.1440102210031053,-6.151147780728204,6.688741534899958,3.616152296866113,-29.32994686451862,43.29294663077845
1.0824987431958233,-6.44444724937339,6.7249030578686195,4.049081763173898,-32.16116081665792,46.41996455246795
1.0180542707020894,-6.766058857539969,6.765393875500359,4.513281408698577,-34.32377805429391,48.3418287849493
0.9503936821266897,-7.109296638082908,6.810526689587345,4.99669969654807,-34.76204631240257,47.515532589358024
0.8793007157458607,-7.456917101206933,6.860493686552825,5.471855022441651,-31.867391116627896,41.615093846565046
0.8047315447337913,-7.775591012373212,6.915212236777242,5.888005960907301,-23.908068844939294,28.152604622119963
0.7269756346100591,-8.014671700822605,6.974092296386314,6.169532007128501,-10.459403362301796,6.524049262159592
0.646828917601833,-8.119265734445623,7.0357876164576,6.234772499750097,5.80934545340508,-19.435424542671065
0.5656362602573768,-8.061172279911572,7.098135341455101,6.040418254323386,19.744806655523842,-42.29942835063971
0.4850245374582611,-7.863724213356334,7.158539523998335,5.617423970816989,27.591428289151466,-56.569259354293656
0.40638729532469775,-7.587809930464819,7.214713763706505,5.051731377274052,29.429568533373974,-62.19314975005725
0.3305091960200496,-7.293514245131079,7.265231077479245,4.42979987977348,27.54167369302901,-62.30800308451977
0.2575740535687388,-7.018097508200789,7.30952907627698,3.806719848928282,24.080784708101785,-59.9351930961279
0.18739307848673092,-6.777289661119771,7.347596274766262,3.207367917967003,20.3123973605508,-56.87271182925029
0.11962018187553321,-6.574165687514263,7.379669953945933,2.6386407996745,16.809544107679912,-53.94332072446267
0.05387852500039057,-6.406070246437464,7.406056361942678,2.0992075924298734,13.774858311915848,-51.437473966157505
-0.010182177463984074,-6.268321663318305,7.4270484378669765,1.5848328527682982,11.2468636413427,-49.401812611248914
-0.07286539409716714,-6.155853026904879,7.44289676639466,1.090814726655809,9.20234421201262,-47.784638098314296
-0.13442392436621592,-6.063829584784752,7.453804913661218,0.612968345672666,7.601107178074862,-46.50126505630672
-0.19506222021406344,-5.987818513004004,7.459934597117944,0.14795569510959877,6.403500120541522,-45.46125458776109
-0.25494040534410345,-5.923783511798589,7.46141415406904,-0.30665685076801213,5.575971153608945,-44.578897485974245
-0.3141782404620893,-5.868023800262499,7.458347585561359,-0.7524458256277546,5.091658114310473,-43.77679189604282
-0.3728584784647143,-5.817107219119394,7.450823127305082,-1.1902137445881829,4.9290647960884435,-42.9868309345636
-0.43102955065590826,-5.76781657115851,7.4389209898592,-1.6200820539338188,5.070134762175948,-42.15040559296579
-0.48870771636749333,-5.717115223536751,7.422720169319862,-2.0415861098634767,5.498281375420188,-41.21851101077788
-0.5458788686028608,-5.662132409782549,7.402304308221227,-2.4537712199712556,6.1966173583754625,-40.15195196864924
-0.6025001927006863,-5.6001662361987945,7.377766596021515,-2.855290739657748,7.146497263713282,-38.9216324419688
-0.6585018550626742,-5.528701263561661,7.349213688624937,-3.244507064077436,8.326431015086607,-37.50883324178684
-0.7137888676982909,-5.445436953410796,7.316768617984163,-3.619595396495304,9.711398563773557,-35.905364261335066
-0.7682432372323988,-5.34832296777306,7.28057266401921,-3.978649039108655,11.272575589386005,-34.11349234667225
-0.8217264669101294,-5.235597211879201,7.240786173628123,-4.319783962575378,12.9774618163572,-32.14557571920645
-0.8740824390289215,-5.1058225937156285,7.197588334002369,-4.641239719767443,14.79038607033218,-30.023370997362036
-0.9251406649660777,-4.957918733012307,7.1511759368046945,-4.941473429741063,16.673346380529868,-27.777012679234556
-0.9747198522962008,-4.791185269207008,7.101761202507284,-5.219243556533409,18.58712970389758,-25.44369399205257
-1.022631704988271,-4.605313972168032,7.04956876694195,-5.473680496453935,20.492643912679277,-23.066101508604216
-1.0686848447099513,-4.400387533041239,6.99483196197741,-5.704341511539977,22.3523839581413,-20.690674913866786
-1.1126887200403637,-4.1768636934598256,6.93778854686201,-5.9112482606786445,24.13194459264553,-18.365779249158972
-1.1544573569749619,-3.9355442475333704,6.878676064255224,-6.094906053170234,25.801484992534707,-16.139890368581497
-1.1938127994502956,-3.677529397608023,6.817727003723522,-6.25630495685605,27.3370487199665,-14.059903955988034
-1.2305880934263758,-3.4041589104083583,6.755163954154961,-6.39690399641593,28.721648904362738,-12.169681477850839
-1.2646296825304593,-3.116942421364731,6.691194914190802,-6.518600811194439,29.946045715170495,-10.508939728635408
-1.2957991067441066,-2.817481964213026,6.626008906078857,-6.623690208480793,31.009171328622607,-9.1125722047469
-1.323973926386237,-2.5073902509268002,6.559772003994049,-6.714815930528262,31.91819384013901,-8.010460869951258
-1.349047828895505,-2.18820831252541,6.492623844688767,-6.794920539227775,32.68825025567917,-7.227798977921153
-1.3709299120207592,-1.8613258099686183,6.424674639296489,-6.867198529006986,33.34191224684052,-6.785903973235337
-1.3895431701204455,-1.527906687500213,6.356002654006419,-6.93505756873934,33.90846855612833,-6.703457721668743
-1.4048222369954475,-1.1888220019389297,6.286652078319025,-7.002092145956027,34.423106454262786,-6.998068992796871
-1.4167104570148368,-0.8445909373963019,6.2166311568594645,-7.072072835883996,34.926041839211344,-7.6880016153081066
-1.4251563663887998,-0.4953305190041884,6.145910428500625,-7.148952852037077,35.46156837378149,-8.793828185397835
-1.4301096715788417,-0.14071483526637352,6.074420899980254,-7.2368911338910555,36.07684128529853,-10.339605894876355
-1.4315168199315054,0.22005357758661176,6.002051988641343,-7.340287192839819,36.81992137282041,-12.352834954388955
-1.4293162841556393,0.5882527913148159,5.928649116712944,-7.463815542383708,37.73606001409512,-14.861774290271343
-1.423433756242491,0.9656133914557672,5.854010961289108,-7.612433285286421,38.8601798443859,-17.88732615196932
-1.4137776223279332,1.3542151898996262,5.777886628436243,-7.791306546806115,40.20160420200579,-21.42409429727109
-1.400235470428937,1.756231231919684,5.699973562968182,-8.005547489778825,41.713753368208174,-25.400554921888425
-1.3826731581097402,2.173368765601766,5.619918088070394,-8.25955303899771,43.2364597152677,-29.60105544116079
-1.3609394704537225,2.605733362754443,5.537322557680417,-8.555563593409317,44.393840902012585,-33.52529405237998
-1.334882136826178,3.0496717717745687,5.451766921746324,-8.890816533933117,44.43804046338443,-36.170060656985264
-1.3043854191084323,3.494052176408413,5.362858756406992,-9.25251714050297,42.08693634224436,-35.796456527629836
-1.2694448973443482,3.9149215398308566,5.270333585001962,-9.610481705779268,35.58560394418733,-29.99644674305622
-1.2302956819460396,4.27077757927273,5.17422876794417,-9.91044617320983,23.501454238231098,-16.763106434117763
-1.1875879061533123,4.505792121655041,5.0751243062120714,-10.078077237551009,6.520493222083203,3.058803760811383
-1.1425299849367618,4.570997053875873,4.974343533836562,-10.047489199942895,-11.31843783741655,24.08686975558074
-1.0968200143980031,4.457812675501708,4.873868641837133,-9.806620502387087,-24.800219091628552,39.38100937657377
-1.052241887642986,4.209810484585422,4.775802436813262,-9.412810408621349,-31.600463151426403,45.95442581972034
-1.0101437827971318,3.8938058530711577,4.681674332727048,-8.953266150424145,-32.986790524316596,45.632935742577615
-0.9712057242664203,3.563937947827992,4.592141671222806,-8.496936792998369,-31.38665084999008,41.702980208974466
-0.9355663447881404,3.250071439328091,4.507172303292823,-8.079906990908624,-28.62293598430972,36.55837602892716
-0.9030656303948594,2.963842079484994,4.426373233383736,-7.714323230619352,-25.66179356842322,31.415032847727197
