th1 (rad),w1 (rad/s),th2 (rad),w2 (rad/s)
4.54756002046553,1.998768624539813,0.7313166313371839,2.1506799555415754
4.567547706710928,2.1078474960571434,0.7528234308925997,2.145458845402814
4.5886261816715,2.2148555151321605,0.7742780193466279,2.1344232902948286
4.610774736822822,2.319580407463521,0.7956222522495762,2.117238979487751
4.633970540897457,2.4218092597307113,0.8167946420444536,2.0935785721815887
4.658188633494764,2.5213301932539354,0.8377304277662695,2.0631234220926715
4.6834019354273035,2.617934439207098,0.8583616619871962,2.025565792795937
4.709581279819375,2.7114188777667443,0.8786173199151556,1.9806116228277537
4.736695468597042,2.8015890937747363,0.8984234361434331,1.9279838761866361
4.76471135953479,2.888262985222314,0.9177032749052995,1.8674264806718415
4.793593989387013,2.971274937620173,0.9363775397120179,1.798708813193873
4.823306738763215,3.0504805470924246,0.9543646278439566,1.7216306383390365
4.853811544234139,3.1257618385039034,0.9715809342273469,1.6360273457382122
4.885069162619178,3.1970328836624744,0.987941207684729,1.5417752661680528
4.917039491455803,3.2642456812133145,1.0033589603464095,1.4387967802321546
4.949681948267936,3.3273961179065163,1.017746928148731,1.327064872741095
4.982955909447002,3.3865297950749436,1.031017576876142,1.2066067374090415
5.016821207397751,3.441747479660882,1.0430836442502325,1.077506007531383
5.051238682194359,3.4932099313657954,1.0538587043255463,0.9399031857370157
5.0861707815080175,3.5411418712754723,1.0632577361829165,0.7939938748928898
5.1215822002207725,3.5858348960348505,1.0711976749318455,0.640024475017872
5.157440549181121,3.627649206506837,1.0775979196820242,0.47828510581618083
5.19371704124619,3.667014109239414,1.082380770740186,0.30909963456915424
5.230387182338584,3.7044273583744616,1.0854717670858776,0.13281282321446147
5.2674314559223285,3.740453527581967,1.0867998953180222,-0.050225258935334915
5.304835991198148,3.775721727162787,1.0862976427286688,-0.2396772970473888
5.3425932084697765,3.8109231012448324,1.0839008697581949,-0.43523893133774294
5.380702439482225,3.8468086459115804,1.0795484804448174,-0.6366607373890022
5.4191705259413405,3.8841879759309013,1.0731818730709275,-0.8437716683843212
5.458012405700649,3.9239297342872757,1.0647441563870843,-1.0565037522441456
5.4972517030435215,3.9669643881333614,1.0541791188646428,-1.2749180162996483
5.5369213469248555,4.0142901939730065,1.0414299387016464,-1.4992318537836427
5.577064248864586,4.066983152596687,1.02643762016381,-1.7298483377160576
5.617734080390552,4.126211817462498,1.0091391367866493,-1.9673883100798422
5.658996198565178,4.193257867692446,0.9894652536858509,-2.212726398280881
5.700928777242102,4.269543387856892,0.9673379897030421,-2.4670323847015636
5.743624211120671,4.356665748709152,0.9426676658560265,-2.7318194755654486
5.787190868607762,4.456440707254567,0.915349471100372,-3.009000767353094
5.831755275680308,4.570953514712809,0.885259463426841,-3.3009541383687138
5.877464810827436,4.702615743766424,0.8522499220431539,-3.6105929407768778
5.924490968265101,4.854220767917394,0.8161439926353851,-3.941433219540143
5.973033175944274,5.028980319002542,0.7767296604399836,-4.2976335318278664
6.0233229791343,5.230502080427316,0.7337533251217049,-4.683952095877728
6.075627999938574,5.462621310314933,0.6869138041629276,-5.105500457777666
6.130254213041723,5.728904221121168,0.6358587995851509,-5.5670398152942715
6.187543255252934,6.031458102129627,0.5801884014322082,-6.071310673131542
6.24785783627423,6.368374451610116,0.5194752947008927,-6.615454431335425
6.3115415807903315,6.728775402893777,0.45332075038753844,-7.184086586388362
6.378829334819269,7.084676002526003,0.38147988452365483,-7.737919882299813
6.449676094844529,7.381935562769973,0.3041006857006567,-8.201126270884673
6.523495450472229,7.541819701377243,0.22208942299180995,-8.463594909993239
6.598913647486001,7.493357029762164,0.13745347389187756,-8.426363369046118
6.6738472177836226,7.230084888624792,0.053189840201416386,-8.081119218242954
6.74614806666987,6.825207207428523,-0.027621351981013148,-7.5312078313825275
6.814400138744156,6.374512904045311,-0.10293343029483842,-6.911489016641278
6.878145267784609,5.94197834658803,-0.1720483204612512,-6.312224120730142
6.937565051250489,5.553981647366486,-0.23517056166855263,-5.771066872422637
6.9931048677241545,5.215145610224742,-0.292881230392779,-5.2952323934607906
7.045256323826402,4.921292151054627,-0.34583355432738694,-4.879590291054863
7.094469245336948,4.665838906537998,-0.3946294572379356,-4.515596554304972
7.141127634402328,4.442290892385404,-0.4397854227809853,-4.194779681511228
7.185550543326182,4.245008591544726,-0.4817332195960976,-3.9098244176294874
7.228000629241629,4.069319445530278,-0.5208314637723925,-3.6547393555083887
7.268693823696932,3.9114137908965967,-0.5573788573274764,-3.424722264295027
7.3078079616058975,3.768191952298411,-0.5916260799704267,-3.21595517990841
7.345489881128882,3.637119635116739,-0.6237856317695109,-3.0254088995880313
7.381861077480049,3.516107306304701,-0.6540397207653912,-2.850678866062485
7.4170221505430955,3.4034145803274614,-0.682546509426016,-2.689853996155033
7.45105629634637,3.2975761491036124,-0.7094450493875664,-2.541413748272208
7.484032057837406,3.1973450197363387,-0.7348591868702884,-2.4041476197088207
7.51600550803477,3.1016492588149953,-0.7589006630673766,-2.2770918584346065
7.54702200062292,3.0095591605028353,-0.7816715816517227,-2.1594791787765915
7.577117592227948,2.9202624383044644,-0.8032663734394886,-2.0506982421101516
7.6063202166109924,2.8330455985800462,-0.8237733558605901,-1.9502604771075853
7.634650672596793,2.747280081588111,-0.843275960631666,-1.8577724579626762
7.662123473412675,2.662412073011914,-0.8618536852112928,-1.7729125569056867
7.688747594142794,2.5779551202931446,-0.8795828107803496,-1.6954109685710452
7.714527145345725,2.4934848561726386,-0.89653692046606,-1.6250324938435186
7.739461993907452,2.4086352551280514,-0.9127872454044952,-1.5615616891711128
7.763548346458732,2.3230959414397914,-0.9284028622962063,-1.5047901480468848
7.78677930587313,2.2366101414948583,-0.9434507637766751,-1.4545057943850899
7.809145407288078,2.148972935833441,-0.957995821720526,-1.410484140116122
7.830635136646412,2.0600295240778332,-0.9721006631216872,-1.3724814972815667
7.851235431887191,1.9696732718807601,-0.9858254780945028,-1.3402301434428499
7.870932164605999,1.8778433652239008,-0.9992277795289313,-1.3134354235869665
7.889710598258238,1.7845219541313093,-1.012362133764801,-1.2917747375377613
7.907555817799551,1.6897307243087611,-1.0252798811401787,-1.274898315175292
7.924453125042639,1.5935268897189756,-1.0380288642919315,-1.262431628767342
7.940388393939829,1.4959986495155366,-1.0506531805796049,-1.2539792385688295
7.955348380434984,1.397260196814152,-1.0631929729652931,-1.2491298201999836
7.969320982403126,1.2974464023916021,-1.075684271167293,-1.2474620849421623
7.982295446427042,1.1967073219315125,-1.0881588920167145,-1.2485512805432841
7.994262519646357,1.0952026898859821,-1.1006444048221473,-1.2519759525120426
8.005214546545217,0.9930965661545087,-1.1131641643472678,-1.257324654775806
8.015145512206761,0.8905522941452856,-1.125737410895026,-1.2642023230727335
8.024051035148213,0.7877279116629345,-1.1383794341257534,-1.2722360623378581
8.031928314264842,0.6847721313557938,-1.151101794749132,-1.281080147417393
8.038776035578401,0.58182097747806,-1.163912596223306,-1.290420090866125
8.044594245353181,0.4789951330100221,-1.1768167971319672,-1.2999756882837035
8.049384196683281,0.37639801824565633,-1.1898165540148042,-1.3095030067275788
8.053148176865738,0.2741145910781928,-1.20291158408208,-1.3187953318102468
8.05588932277652,0.17221083225741676,-1.2160995374001826,-1.32768313151317
8.057611431099096,0.07073385719475218,-1.2293763687153143,-1.3360331278031454
8.058318769671043,-0.030287419790539533,-1.2427366999933458,-1.3437465900353591
8.058015895473138,-0.13084115237073646,-1.2561741658936993,-1.3507569769641814
8.056707483949431,-0.2309310474301995,-1.2696817356633412,-1.3570270577831667
8.054398173475128,-0.3305745541829047,-1.283252006241173,-1.3625456383429362
8.0510924279333,-0.429800836939171,-1.2968774626246022,-1.3673240082385059
8.04679441956391,-0.5286486023235833,-1.3105507027069874,-1.3713922096286684
8.041507933540673,-0.6271638407830578,-1.3242646248032741,-1.3747952112144575
8.035236295132842,-0.7253975302866518,-1.3380125769154187,-1.3775890523523802
8.027982319829976,-0.8234033381079928,-1.3517884674389427,-1.3798370041483428
8.019748286448896,-0.9212353452268849,-1.365586837480426,-1.381605777619517
8.010535932996628,-1.0189458077395668,-1.3794028952566213,-1.3829617943883685
8.000346474919233,-1.116582961110706,-1.393232513200505,-1.3839675233952684
7.989180645308126,-1.214188866375412,-1.4070721884344577,-1.3846778780844675
7.977038756644372,-1.311797292636308,-1.4209189672153024,-1.3851366625784634
7.9639207837180095,-1.409431627451236,-1.434770333841087,-1.3853730525511376
7.949826467443497,-1.5071028059768983,-1.4486240643665984,-1.3853980968278197
7.9347554393837285,-1.6048072510072269,-1.4624780453348767,-1.3852012291489473
7.918707366873656,-1.7025248193055242,-1.4763300576263663,-1.3847467860077698
7.901682118680601,-1.800216754870051,-1.490177525486444,-1.383970536004846
7.883679951131901,-1.897823657002232,-1.5040172308464925,-1.382776238764467
7.864701714561879,-1.9952634802849667,-1.5178449932341371,-1.381032267146634
7.84474907975903,-2.092429594845405,-1.5316553159056034,-1.3785683452558164
7.823824783810576,-2.1891889485713127,-1.5454409993581617,-1.3751724765224143
7.801932894324863,-2.285380388221761,-1.5591927241233858,-1.3705881607200023
7.779079090442646,-2.38081321347923,-1.5728986057305858,-1.364512025789532
7.755270958307853,-2.4752660566451046,-1.5865437259884811,-1.3565920290901463
7.730518297741402,-2.5684862003869062,-1.6001096462793827,-1.346426412105897
7.704833435737533,-2.6601894659148404,-1.6135739104004416,-1.3335636211058028
7.678231541078385,-2.7500608230241057,-1.6269095466114996,-1.317503431522205
7.650730932848144,-2.8377558899300652,-1.6400845809267217,-1.2976995328359204
7.622353373948843,-2.922903502508255,-1.6530615762550809,-1.273563839610261
7.593124338923761,-3.005109536544007,-1.6657972146511835,-1.2444727881596427
7.56307324355832,-3.08396215935204,-1.67824194253278,-1.2097758515088262
7.5322336219648,-3.1590386645375403,-1.6903397010478682,-1.168806451593561
7.500643235319425,-3.229914001331789,-1.7020277655638039,-1.12089536089482
7.468344095306107,-3.2961710436420373,-1.713236719172752,-1.0653865606592166
7.435382384869687,-3.3574125504918544,-1.7238905847793442,-1.0016553566011805
7.401808259364769,-3.413274647770664,-1.733907138345356,-0.9291283466009741
7.367675512887062,-3.463441513484378,-1.7431984218113656,-0.8473045955150085
7.3330410977522185,-3.507660782211363,-1.7516714677665157,-0.7557771148224375
7.297964489930105,-3.5457590124926703,-1.7592292389147401,-0.6542534936314376
7.262506899805178,-3.5776564031999447,-1.7657717738510545,-0.5425743157730628
7.226730335773179,-3.6033798269377297,-1.7711975170087852,-0.4207278652310702
7.1906965375038014,-3.6230731986090556,-1.7754047956610959,-0.2888596105012585
7.154465805517711,-3.637004242053476,-1.7782933917661086,-0.1472751028859883
7.118095763097177,-3.6455668758683264,-1.7797661427949685,0.0035647564824461686
7.081640094338494,-3.6492787153143182,-1.779730495230144,0.1630566369468234
7.04514730718535,-3.6487735650733426,-1.7780999288606758,0.3304758210129224
7.008659571534617,-3.6447892208161132,-1.7747951706505465,0.505004620549334
6.972211679326455,-3.638151351642114,-1.769745124445053,0.6857667629348614
6.935830165810034,-3.6297546373682703,-1.7628874568157045,0.8718658175935206
6.899532619436352,-3.6205426252675688,-1.7541687986397692,1.0624254224440794
6.863327193183676,-3.611487908308431,-1.7435445444153284,1.2566290278499066
6.827212314100592,-3.603574196371899,-1.7309782541368293,1.4537571115376835
6.791176572136873,-3.59778166890192,-1.7164406830214525,1.6532202939045375
6.755198755447854,-3.5950767039066727,-1.6999084800824071,1.8545874247776906
6.719247988408787,-3.5964067323915594,-1.6813626058346303,2.057608427378481
6.683283921084872,-3.6027006308529828,-1.6607865215608455,2.2622323830422326
6.647256914776342,-3.6148747907433805,-1.638164197730423,2.468621951610329
6.611108166868909,-3.633844829844443,-1.6134779782143198,2.677165708312795
6.574769718570464,-3.660542853742362,-1.5867063211311918,2.8884903310438603
6.53816429003304,-3.6959402346924155,-1.5578214178207532,3.1034748096178135
6.501204887686116,-3.7410760317477765,-1.526786669724575,3.323268999948545
6.463794127368638,-3.7970913942150113,-1.4935539797250896,3.549318933211625
6.425823213426488,-3.865270508251354,-1.4580607903929734,3.7834013010177925
6.387170508343975,-3.9470887500114458,-1.4202267773827955,4.027669381254405
6.34769962084386,-4.0442684730208915,-1.3799500835702514,4.284712088023758
6.307256936113651,-4.158841816039014,-1.3371029626900137,4.5576262197542805
6.265668517953261,-4.293217087203703,-1.2915267004924709,4.850098013706297
6.2227363470812245,-4.450238578221997,-1.2430257203554078,5.166480934372869
6.1782339612990045,-4.633214691475615,-1.1913609110116792,5.511836148439871
6.131901814384248,-4.845856845931957,-1.1362425495272805,5.891857623272889
6.083443245924928,-5.092003176844388,-1.0773239732945517,6.312509306060781
6.032523214156485,-5.374861573430156,-1.014198880233944,6.77900838768349
5.978774598422183,-5.695242172950656,-0.946408796357109,7.293420159887023
5.921822176692677,-6.047829606724233,-0.8734745947582387,7.849541712945652
5.8613438806254345,-6.41420924828145,-0.7949791776287822,8.423273033863428
5.79720178814262,-6.7524573851239635,-0.7107464472901479,8.958181829518116
5.72967721429138,-6.989388505822579,-0.6211646289949667,9.354710074265606
5.6597833292331545,-7.03516284456713,-0.5276175282523107,9.490440045711873
5.589431700787483,-6.838394828331947,-0.43271312779519194,9.296580021620798
5.521047752504164,-6.439671938561689,-0.33974732757898396,8.831769567586736
5.456651033118547,-5.942812027401717,-0.2514296319031166,8.241235931422786
5.39722291284453,-5.43786786743102,-0.16901727258888877,7.649803502524181
5.34284423417022,-4.969653101379168,-0.09251923756364695,7.119037716525963
5.293147703156428,-4.550465085001002,-0.021328860398387328,6.665557700330234
5.247643052306418,-4.177970959005493,0.045326716604915024,6.286024845488174
5.205863342716363,-3.8452249051634735,0.10818696505979676,5.970985707527087
5.167411093664728,-3.544767167899539,0.16789682213506762,5.710466204678636
5.131963421985732,-3.2699637386325606,0.22500148418185398,5.495756453384388
5.099263784599406,-3.015280848395347,0.2799590487156979,5.319740612660359
5.069110976115453,-2.7762040599372373,0.3331564548423015,5.176749177665988
5.04134893551608,-2.549068599456018,0.3849239466189614,5.062296713135406
5.01585824952152,-2.3308920786574583,0.43554691375031546,4.972826701809641
4.992549328734945,-2.1192355063953774,0.48527518076841186,4.9054963955822
4.971356973670992,-1.9120957303658308,0.5343301447242339,4.858004127692518
4.952236016367333,-1.7078254797520869,0.5829101860011591,4.8284526174838005
4.935157761569813,-1.5050758069459806,0.6311947121759971,4.815240423675076
4.920107003500353,-1.3027561341304803,0.6793471164127478,4.816974715370244
4.907079442159048,-1.1000079112202141,0.7275168635664503,4.832400092659974
4.896079363046845,-0.8961886152373484,0.77584086449305,4.860339700384153
4.887117476894471,-0.6908633385231889,0.8244442614968915,4.89964618569433
4.88020884350924,-0.4838015190352161,0.8734407233538348,4.949161143961585
4.8753708283188875,-0.2749765002296276,0.9229323347934507,5.007682600965911
4.872621063316592,-0.06456562983893674,0.9730091608031098,5.0739408038042075
4.871975407018202,0.1470514120438458,1.0237485688411518,5.14658312542034
4.87344592113864,0.3592983425017355,1.0752144000953552,5.224169189647462
4.8770389045636575,0.5714141972372717,1.1274560919918297,5.305177339850047
4.88275304653603,0.7824732114614208,1.1805078653903303,5.3880232492998985
4.890577778650645,0.9914137848332549,1.2343880978833293,5.471090774333958
4.900491916498978,1.1970767190657547,1.289099005626669,5.552774104053513
4.912462683689635,1.398251738817794,1.344626746667204,5.6315289626796545
4.926445201077813,1.593730018282573,1.4009420362940004,5.705929260652721
4.942382501260639,1.7823592423495425,1.4580013289005276,5.774724428208538
4.960206093684134,1.9630968754801668,1.515748573182613,5.836891984549834
4.979837062438936,2.135057015360771,1.5741174930281114,5.891679931103455
5.0011876325925435,2.2975466035550225,1.633034292339146,5.938634414289407
5.024163098628094,2.450087839070101,1.6924206364820402,5.977609704969901
5.048663977018795,2.5924252213973333,1.7521967335317392,6.00875962765804
5.074588229232768,2.7245174431291774,1.8122843298083195,6.03251175756617
5.10183340366406,2.8465160201733717,1.8726094473839812,6.049527581553125
5.130298563865793,2.958733798703011,1.9331047231995124,6.060653072934478
5.159885901852823,3.061607140327629,1.9937112539288573,6.066864608366317
5.190501973256099,3.155655636139638,2.0543799000125205,6.069214889902265
5.222058529617495,3.241442740574595,2.1150720489115433,6.068782704895463
5.254472957023241,3.3195399292156242,2.175759875960498,6.066629212612282
5.287668356315397,3.3904960700895406,2.236426168086621,6.063762240002278
5.321573317016292,3.454812824291903,2.2970637904866438,6.061108995081876
5.356121445259212,3.5129261709701836,2.3576748804374628,6.059496780002347
5.391250706968913,3.565193635303447,2.418269848237486,6.059640745223548
5.426902643321948,3.6118864883585657,2.4788662556897214,6.062137451818981
5.463021508205533,3.653186055134238,2.539487630207911,6.067462948318023
5.499553368756875,3.6891832677919942,2.6001622596910914,6.075974157909959
5.536445201434796,3.7198806895063488,2.660922001270191,6.087912551292855
5.573644008329859,3.745196371116889,2.7218011267831193,6.103409301566977
5.611095972041028,3.764969057647415,2.782835219798789,6.122491345866745
5.648745662617502,3.7789644139097534,2.8440601332574564,6.14508799209527
5.6865353067566,3.786882074720837,2.905511013178409,6.171037896173507
5.724404127503808,3.7883634382111033,2.9672213921401442,6.200096390211136
5.762287761885919,3.7830002062951307,3.0292223560422555,6.231943263222752
5.800117763948871,3.770343732511092,3.091541788674483,6.2661911832690675
5.837821201273981,3.7499152628453154,3.1542037005071735,6.3023950031767795
5.875320353902435,3.721217148918526,3.217227650538941,6.3400622107722775
5.91253252539162,3.6837450744818416,3.280628272646664,6.37866476785459
5.949369976136438,3.6370012658765107,3.34441492032521,6.417652528993018
5.985739988795204,3.5805085569352104,3.40859144561514,6.456468341763102
6.021545074364556,3.51382505333885,3.473156129032771,6.494564806612669
6.056683324897945,3.436558998773135,3.538101777098898,6.531422523132997
6.091048914885676,3.348383297443732,3.6034160023302277,6.566569480662662
6.124532747860114,3.24904901056507,3.6690816971368543,6.59960108047275
6.157023237965764,3.1383970370927865,3.735077707941582,6.630200124384108
6.188407208336692,3.0163671306600732,3.8013797091854227,6.658155993466933
6.218570879643292,2.8830034124559054,3.867961269120092,6.683382193298044
6.2474009137678514,2.738455624724612,3.9347950910530725,6.705931478080075
6.274785470015098,2.582975533360522,4.001854405833873,6.726007895939841
6.300615225348703,2.4169081206697953,4.069114484793271,6.743975322093411
6.324784306555401,2.240677488521751,4.136554238014205,6.7603623529668395
6.347191081440618,2.054767685267658,4.204157861543873,6.775863798908362
6.367738758293295,1.8596989383340765,4.271916499532956,6.791339403927596
6.386335747676636,1.6559999793715918,4.339829893572232,6.807810803704743
6.402895747470352,1.4441772571794764,4.40790800160928,6.826458077945964
6.417337520042147,1.2246818232335,4.476172582388739,6.848617540376488
