th1 (rad),w1 (rad/s),th2 (rad),w2 (rad/s),a1 (rad/s^2),a2 (rad/s^2)
1.0484589337629564,1.7403252860005367,2.1333574484357674,-1.281629044685047,-5.843143117490861,-8.239153129049543
1.0658621866229618,1.6818938548256281,2.120541157988917,-1.3640205759755424,-5.805971085537629,-7.951056889304599
1.082681125171218,1.623834143970252,2.1069009522291613,-1.4435311448685884,-5.769851812057463,-7.67881171414534
1.0989194666109205,1.5661356258496772,2.0924656407804756,-1.5203192620100419,-5.735460325048304,-7.42187028572813
1.1145808228694174,1.5087810225991942,2.077262448160375,-1.5945379648673232,-5.703423648483269,-7.17958122845122
1.1296686330954093,1.4517467861143616,2.061317068511702,-1.6663337771518354,-5.6743356801752824,-6.951195008654153
1.144186100956553,1.3950034293126088,2.0446537307401838,-1.735845727238377,-5.648771588916339,-6.7358675997263235
1.158136135249679,1.3385157134234453,2.0272952734678,-1.8032044032356402,-5.627301622157274,-6.5326621865780305
1.1715212923839136,1.2822426972018726,2.0092632294354438,-1.8685310251014204,-5.610504173821813,-6.340549263236607
1.1843437193559323,1.2261376554636545,1.9905779191844295,-1.9319365177337866,-5.598977901454339,-6.158405568615814
1.1966050959105687,1.1701478764491111,1.9712585540070917,-1.9935205734199448,-5.593352603404865,-5.985012410344688
1.2083065746750599,1.1142143504150626,1.9513233482728922,-2.0533706975233916,-5.59429847209008,-5.819054044903632
1.2194487181792104,1.0582713656941618,1.9307896412976584,-2.111561237972428,-5.60253323254332,-5.659116911093703
1.230031431836152,1.0022460333687286,1.9096740289179341,-2.168152407083365,-5.618826563479342,-5.503690645708873
1.2400538921698394,0.9460577677339352,1.8879925048471005,-2.2231893135404537,-5.644001091952301,-5.351171932324189
1.2495144698471787,0.8896177568144122,1.8657606117116958,-2.2767010328636954,-5.678929168305126,-5.199872326815239
1.258410647415323,0.832828465131361,1.8429936013830588,-2.3286997561318477,-5.724524586915804,-5.048031239692114
1.2667389320666365,0.775583219262203,1.8197066038217402,-2.3791800685287687,-5.7817284469494385,-4.893835201664842
1.2744947642592586,0.7177659347927086,1.7959148031364525,-2.428118420545417,-5.851488476393637,-4.735444356248403
1.2816724236071857,0.6592510500287722,1.7716336189309982,-2.475472864107901,-5.9347314028838625,-4.571026772576862
1.2882649341074734,0.5999037359999335,1.7468788902899193,-2.52118313183367,-6.032328371496534,-4.398800621362044
1.2942639714674729,0.5395804522849682,1.7216670589715826,-2.5651711380472904,-6.145053994223988,-4.217083494145666
1.2996597759903226,0.47812991234272834,1.6960153475911097,-2.607341972988747,-6.273540355604572,-4.024347189782547
1.3044410751137498,0.4153945087866826,1.6699419278612222,-2.6475854448865723,-6.418228146959571,-3.819275207114204
1.3085950202016168,0.3512122273170869,1.6434660734123565,-2.6857781969577146,-6.5793179692221395,-3.6008190884860345
1.3121071424747877,0.2854190476248655,1.6166082914427793,-2.7217863878425748,-6.756725600968736,-3.368248828825642
1.3149613329510363,0.2178517916151781,1.5893904275643536,-2.755468876130831,-6.950045512998942,-3.1211920114637595
1.317139850867188,0.14835133648518867,1.5618357388030453,-2.7866807962454687,-7.158526957476976,-2.8596563704309093
1.31862336423204,0.0767660669104189,1.5339689308405906,-2.815277359949778,-7.381066435038842,-2.5840312774594874
1.3193910249011442,0.002955402560030476,1.5058161572410929,-2.8411176727243728,-7.616219191366858,-2.295065271539448
1.3194205789267446,-0.07320678935363811,1.4774049805138492,-2.864068325439767,-7.862230674644439,-1.9938190948213617
1.3186885110332083,-0.1518290961000825,1.4487642972594514,-2.8840065163879807,-8.117086787691532,-1.6815965008723215
1.3171702200722075,-0.23299996397699782,1.4199242320955716,-2.900822481396704,-8.3785795981402,-1.3598579415242473
1.3148402204324376,-0.31678575995839986,1.3909160072816045,-2.9144210608119465,-8.644383290729046,-1.0301246273144091
1.3116723628328537,-0.4032295928656903,1.361771796673485,-2.9247223070850907,-8.912133899300041,-0.6938819448337236
1.3076400669041968,-0.4923509318586907,1.332524573602634,-2.931661126533428,-9.179505975779263,-0.3524915087243458
1.30271655758561,-0.5841459916164834,1.3032079623372999,-2.935186041620671,-9.444279902229981,-0.007120169155498162
1.296875097669445,-0.6785887906387832,1.2738561019210932,-2.9352572433122264,-9.704394905432874,0.3413077168251173
1.2900892097630572,-0.775632739693112,1.244503529487971,-2.9318441661439754,-9.957984713861832,0.69213111326647
1.282332882366126,-0.8752125868317303,1.2151850878265311,-2.9249228550113107,-10.203394847641421,1.0449454340925077
1.2735807564978088,-0.9772465353081445,1.185935859276418,-2.9144734006703854,-10.439182404810719,1.3995697109633698
1.2638082911447273,-1.0816383593562517,1.156791125269714,-2.900477703560752,-10.664100636310826,1.7559914289897793
1.2529919075511646,-1.18827936571936,1.1277863482341066,-2.882917789270854,-10.87707144602116,2.1142937339349177
1.241109113893971,-1.2970500801795717,1.098957170341398,-2.861774851931505,-11.077149197168547,2.4745699798288476
1.2281386130921752,-1.4078215721512573,1.070339421822083,-2.8370291521332165,-11.263478940186278,2.8368301824500564
1.2140603973706627,-1.5204563615531201,1.0419691303007508,-2.808660850308716,-11.435251546924011,3.2009030875928954
1.1988558337551316,-1.6348088770223603,1.0138825217976637,-2.776651819432787,-11.591657407048734,3.566336485811028
1.182507744984908,-1.7507254510928476,0.9861160036033358,-2.7409884545746768,-11.731839465765054,3.9322973140782866
1.1650004904739795,-1.8680438457504982,0.9587061190575891,-2.701665481433894,-11.854845578253807,4.297472139353999
1.1463200520164745,-1.9865923015330362,0.9316894642432502,-2.6586907600403538,-11.95957951266438,4.659967930620709
1.126454129001144,-2.10618809665968,0.9051025566428467,-2.612091080734147,-12.044749511085431,5.0172126692310455
1.1053922480345473,-2.2266355917705347,0.8789816458355052,-2.5619189540418366,-12.108813164204983,5.365855379472592
1.0831258921168418,-2.3477237234125847,0.8533624562950868,-2.5082604002471105,-12.149917518600379,5.701665642047542
1.059648654882716,-2.4692228985985887,0.8282798522926157,-2.4512437438266352,-12.165833877108868,6.0194336625828
1.03495642589673,-2.5908812373696772,0.8037674148543493,-2.391049407200807,-12.153887754985758,6.312873615621573
1.0090476135230333,-2.712420114919535,0.7798569207823413,-2.327920671044591,-12.110886021952412,6.574535411790189
0.981923412373838,-2.833528975139059,0.7565777140718953,-2.2621753169266894,-12.033045508532604,6.795733393878698
0.9535881226224474,-2.953859430224385,0.7339559609026285,-2.1942179829879023,-11.915930383273327,6.966504876223856
0.9240495283202036,-3.0730187340571185,0.7120137810727495,-2.1245529342256635,-11.754409443713502,7.075616906486555
0.8933193409796324,-3.1905628284942535,0.6907682517304928,-2.053796765160798,-11.542648976524097,7.11064590752201
0.8614137126946899,-3.3059893182594946,0.6702302840788849,-1.9826903060855778,-11.274161609973785,7.058161269061063
0.828353819512095,-3.4187309343592323,0.6504033810180291,-1.9121086933949671,-10.941935732668153,6.904049150990529
0.7941665101685027,-3.5281502916859138,0.6312822940840794,-1.843068201885062,-10.538672106394305,6.6340144842778495
0.7588850072516435,-3.6335370127498567,0.6128516120652288,-1.7767280570422834,-10.057152103529656,6.2342941890003205
0.722549637124145,-3.7341085337851534,0.5950843314948059,-1.7143851151522802,-9.490752893718078,5.692599051587142
0.6852085517862935,-3.829016062722334,0.577940480343283,-1.6574591246364088,-8.834106333786048,4.999271818148653
0.6469183911590701,-3.9173571260601947,0.561365889096919,-1.6074664064549222,-8.083869015659046,4.148603179668272
0.6077448198984682,-3.998195816216785,0.5452912250323697,-1.5659803746582395,-7.2395326557351,3.14018833078929
0.5677628617363003,-4.070591142774136,0.5296314212857873,-1.5345784913503466,-6.3041632948998805,1.980144709270006
0.5270569503085589,-4.133632775723135,0.5142856363722839,-1.5147770442576465,-5.284926593381021,0.6819645068702055
0.4857206225513276,-4.186482041656945,0.4991378659297074,-1.5079573991889443,-4.193250389002086,-0.7332329885479244
0.4438558021347581,-4.228414545546966,0.4840582919378179,-1.5152897290744236,-3.044508407153482,-2.2372334407968153
0.40157165667928846,-4.258859629618501,0.46890539464707365,-1.5376620634823919,-1.8571847226663825,-3.7961117105989985
0.35898306038310346,-4.277431476845164,0.4535287740122497,-1.5756231805883818,-0.6515851556742066,-5.372371865455539
0.31620874561465184,-4.283947328401906,0.4377725422063659,-1.6293468992429372,0.5517295229098182,-6.927577361140856
0.2733692723306328,-4.278430033172808,0.4214790732139365,-1.6986226728543456,1.733539244493555,-8.425086483609272
0.2305849719989047,-4.2610946407278725,0.4044928464853931,-1.7828735376904383,2.8773277473715315,-9.83248192240754
0.187974025591626,-4.232321363254157,0.3866641111084887,-1.8811983569145136,3.9702078415733912,-11.123360735694655
0.14565081195908441,-4.192619284838424,0.36785212753934354,-1.9924319642714603,5.003307820509831,-12.278303854680972
0.10372461911070018,-4.142586206633325,0.3479278078966289,-2.11521500281827,5.971634289028024,-13.285019628444667
0.06229875704436692,-4.082869863743045,0.3267756578684462,-2.248065199102717,6.873519556198412,-14.137800463381215
0.021470058406936478,-4.014134668181061,0.30429500587741903,-2.389443203736529,7.7098105337885015,-14.836512887961927
-0.01867128827487413,-3.937036562843176,0.28040057384005374,-2.537808332616148,8.48295922140075,-15.385354926216463
-0.058041653903305894,-3.8522069706291684,0.25502249051389225,-2.6916618818783125,9.196144984554314,-15.791577556212598
-0.09656372360959758,-3.7602455207836254,0.22810587169510912,-2.8495776574404386,9.852513779811192,-16.064304906268603
-0.13416617881743384,-3.6617203829855134,0.19961009512070474,-3.010220706503125,10.454574648395335,-16.213523579610722
-0.17078338264728898,-3.55717463650156,0.1695078880556735,-3.172355942299232,11.003758502908527,-16.249259500143452
-0.20635512901230457,-3.447137051472475,0.13778432863268117,-3.3348485373006667,11.500121736688785,-16.180926530430128
-0.24082649952702934,-3.332135834105587,0.1044358432596745,-3.496657802604968,11.94216667323102,-16.016814242415577
-0.2741478578680852,-3.2127141673732766,0.06946926523362482,-3.656825945029124,12.326749698060254,-15.763679077508808
-0.30627499954181797,-3.089446670392674,0.032901005783333576,-3.814462735804212,12.64905325861821,-15.426409665295026
-0.33716946624574473,-2.9629561378064917,-0.0052436215747085485,-3.968726832457162,12.902607628217773,-15.007750047789527
-0.36679902762380967,-2.833930061524314,-0.04493088989928017,-4.118804332935057,13.079361103216476,-14.508081937295444
-0.3951383282390528,-2.7031364504921496,-0.08611893322863075,-4.263885152308012,13.169812417269673,-13.925287792388316
-0.4221696927439743,-2.571438326319453,-0.12875778475171087,-4.4031380302318945,13.163235924461736,-13.25473950569345
-0.44788407600716884,-2.4398059670748355,-0.17278916505402983,-4.535685425288829,13.048047092720884,-12.489481097413325
-0.4722821356779172,-2.309325496147627,-0.21814601930691813,-4.6605802362629625,12.812369931520095,-11.620694078746409
-0.4953753906393935,-2.181201796832426,-0.26475182166954775,-4.776787177050426,12.444873363156724,-10.638543625717906
-0.5171874086077177,-2.056753063200859,-0.31251969344005204,-4.883172613307606,11.935931288232233,-9.533490569476108
-0.5377549392397263,-1.9373937503185366,-0.3613514195731281,-4.978507519002367,11.279120027023776,-8.298103349954866
-0.5571288767429117,-1.8246025500482987,-0.4111364947631518,-5.061488552501915,10.472987284781352,-6.929301881986099
-0.5753749022433947,-1.7198726772004853,-0.4617513802881709,-5.130781571321776,9.52290820323887,-5.430809647744861
-0.5925736290153996,-1.6246435951680966,-0.5130591960013887,-5.185089667799225,8.442705243373483,-3.815404651417481
-0.6088200649670805,-1.540216542734362,-0.564910092679381,-5.2232437143134005,7.255595613193265,-2.106403924211381
-0.6242222303944241,-1.4676605866024293,-0.6171425298225149,-5.244307753555514,5.994011148164729,-0.33778052535141206
-0.6388988362604484,-1.407720475120782,-0.66958560735807,-5.247685558809028,4.697975088279366,1.4475174639289583
-0.6529760410116562,-1.3607407242379883,-0.7220624629461603,-5.233210384169738,3.412032304939593,3.201078531200233
-0.666583448254036,-1.3266204011885925,-0.7743945667878577,-5.201199598857736,2.1811398747119326,4.8738730273075435
-0.679849652265922,-1.3048090024414731,-0.826406562776435,-5.152460868584661,1.0462779341783959,6.42147777843032
-0.6928977422903367,-1.2943462230996892,-0.8779311714622816,-5.088246090800357,0.04067118821128661,7.808556579529087
-0.7058412045213336,-1.2939395112175762,-0.9288136323702851,-5.010160525005066,-0.8126558156314221,9.011689801452926
-0.7187805996335094,-1.3020660693738904,-0.9789152376203358,-4.9200436269905365,-1.501662220991245,10.020156047356426
-0.7318012603272482,-1.3170826915838028,-1.0281156738902413,-4.819842066516972,-2.0245356248170814,10.834842593558923
-0.7449720872430863,-1.3373280478319736,-1.076314094555411,-4.7114936405813825,-2.3878493889914942,11.465872407251327
-0.758345367721406,-1.3612065417218886,-1.123429030961225,-4.596834916508869,-2.604205280429701,11.92967576181589
-0.771957433138625,-1.3872485945261857,-1.1693973801263136,-4.47753815889071,-2.6898689682211354,12.246136235352514
-0.7858299190838868,-1.414147284208397,-1.2141727617152207,-4.355076796537185,-2.6627378973443845,12.436216691530785
-0.7999713919259708,-1.440774663181841,-1.2577235296805926,-4.230714629621877,-2.5407981230222605,12.520234933670114
-0.8143791385577892,-1.4661826444120636,-1.3000306759768114,-4.1055122802851765,-2.341084293016832,12.516780744360387
-0.8290409650019098,-1.4895934873422318,-1.3410857987796632,-3.9803444728415727,-2.079072795281759,12.44216576331425
-0.8439368998753322,-1.5103842152950495,-1.3808892435080788,-3.85592281520843,-1.7684046387341241,12.31026278985586
-0.8590407420282826,-1.5280682616823908,-1.4194484716601632,-3.7328201873098714,-1.4208346542850232,12.132597805287585
-0.8743214246451065,-1.542276608225241,-1.456776673533262,-3.6114942092569957,-1.0463204696786725,11.918584336492296
-0.889744190727359,-1.5527398129220278,-1.4928916156258318,-3.4923083658920726,-0.6531867069974483,11.675820779130243
-0.9052715888565793,-1.5592716799920023,-1.5278146992847526,-3.3755501581007703,-0.2483204499654577,11.41039902042899
-0.9208643056564993,-1.561754884491657,-1.5615702008657601,-3.2614461678964806,0.1626294723044237,11.127194174059467
-0.936481854501416,-1.5601285897686126,-1.594184662544725,-3.150174226155886,0.5750648909935268,10.830120299430586
-0.9520831403991021,-1.5543779408586773,-1.6256864048062838,-3.04187302316158,0.98526990203453,10.522346695296228
-0.9676269198076889,-1.544525241838332,-1.6561051350378997,-2.936649556208618,1.390264201938547,10.206475115342682
-0.9830721722260722,-1.5306225998189464,-1.685471630599986,-2.834584805055191,1.7876778317815958,9.884681307909887
-0.9983783982242617,-1.5127458215011305,-1.7138174786505378,-2.7357379919760922,2.175645543923454,9.55882561372026
-1.013505856439273,-1.490989366061896,-1.7411748585702986,-2.6401497358388895,2.5527184047203866,9.23053766222235
-1.0284157500998918,-1.4654621820146922,-1.7675763559286874,-2.5478443592166657,2.9177901419897885,8.901279953302135
-1.0430703719200387,-1.4362842805947944,-1.7930547995208541,-2.4588315596836443,3.270035902889143,8.572394588732077
-1.0574332147259866,-1.403583921565903,-1.8176431151176906,-2.3731076137963236,3.608861361720539,8.245136800476253
-1.0714690539416456,-1.3674953079486976,-1.8413741912556538,-2.290656245791561,3.9338604242817703,7.9206983074659245
-1.0851440070211327,-1.32815670370588,-1.8642807537135695,-2.211449262716902,4.244780070874952,7.600222967482685
-1.0984255740581914,-1.2857089029971305,-1.8863952463407385,-2.135447033042075,4.5414911427824185,7.284816696761017
-1.1112826630881627,-1.2402939915693063,-1.9077497166711592,-2.062598866074465,4.8239640995570126,6.975553211355696
-1.1236856030038558,-1.1920543505737362,-1.928375705331904,-1.992843333960908,5.092248957005893,6.673476797433657
-1.1356061465095932,-1.1411318610036774,-1.948304138671513,-1.9261085659865713,5.346458762129571,6.379603034888669
-1.14701746511963,-1.0876672733823816,-1.9675652243313786,-1.8623125356376846,5.586756076821418,6.094918171249065
-1.157894137853454,-1.0317997126141674,-1.9861883496877555,-1.8013633539251939,5.813342032353793,5.820377662077301
-1.1682121349795955,-0.9736662922906294,-2.0042019832270075,-1.7431595773044208,6.02644758665979,5.556904252032988
-1.1779487979025018,-0.9134018164240315,-2.021633579000052,-1.687590534784091,6.226326670539913,5.305385860588432
-1.1870828160667422,-0.8511385497186323,-2.038509484347893,-1.6345366761782065,6.41325095077939,5.06667345219466
-1.1955942015639285,-0.7870060402108384,-2.054854851109675,-1.5838699416562598,6.587505970616384,4.841579007613509
-1.203464261966037,-0.7211309805046746,-2.0706935505262374,-1.5354541515801248,6.749388453277941,4.630873667118571
-1.2106755717710838,-0.6536370959718952,-2.086048092042039,-1.4891454149089391,6.899204574102328,4.435286083987579
-1.2172119427308028,-0.584645050230872,-2.100939546191128,-1.4447925540690634,7.037269022392772,4.255501005387266
-1.2230583932331116,-0.5142723600069443,-2.115387471731819,-1.4022375440151906,7.163904686604752,4.09215808505117
-1.228201116833181,-0.4426333131408968,-2.129409847171971,-1.361315963164679,7.27944280655978,3.945850926061689
-1.23262744996459,-0.36983888507529905,-2.143023006803618,-1.321857453904062,7.384223444776671,3.8171263508017192
-1.2363258388153429,-0.29599665062753233,-2.1562415813426585,-1.2836861903960448,7.478596136311357,3.7064838971489755
-1.2392858053216183,-0.22121068926441875,-2.169078443246619,-1.246621351424555,7.562920583246314,3.614375543796809
-1.2414979122142624,-0.1455814834319556,-2.1815446567608645,-1.210477595986587,7.637567266683226,3.5412056718714013
-1.242953727048582,-0.06920581076512333,-2.1936494327207305,-1.175065539267873,7.702917856240426,3.48733127357693
-1.2436457851562333,0.007823367797280933,-2.2054000881134095,-1.1401922265321038,7.759365305055763,3.453062420386963
-1.2435675514782605,0.08541702084783856,-2.2168020103787307,-1.1056616023282342,7.8073135274789935,3.4386630024442715
-1.2427133812697821,0.16349015612262852,-2.2278586264020133,-1.0712749723037915,7.847176567227671,3.444351746685487
-1.241078479708556,0.24196192179490522,-2.238571376125051,-1.0368314548369366,7.879377175862541,3.4703035133823925
-1.2386588604906068,0.3207556935535306,-2.2489396906734203,-1.0021284197031126,7.904344734943672,3.5166508591834527
-1.2354513035550716,0.3997991409029673,-2.2589609748704516,-0.966961911111278,7.922512469928687,3.583485839540163
-1.231453312146042,0.4790242656022542,-2.2686305939815643,-0.9311270527158764,7.934313919392254,3.6708620050960996
-1.2266630694900196,0.5583674047961767,-2.277941864508723,-0.8944184326649154,7.940178638981063,3.778796525947091
-1.2210793954420578,0.6377691911859874,-2.286886048835372,-0.8566304674054445,7.940527135091,3.9072723556088804
-1.214701703530198,0.7171744625368974,-2.2954523535094267,-0.8175577438493556,7.935765037958026,4.056240324163392
-1.207529958904829,0.7965321129164777,-2.30362793094792,-0.7769953406077217,7.926276537123585,4.225621028582525
-1.1995646377756641,0.8757948782877136,-2.3113978843539975,-0.7347391303218964,7.912417113604214,4.415306368835064
-1.190806688992787,0.9549190494237558,-2.3187452756572164,-0.6905860666335458,7.894505612260245,4.625160562184962
-1.1812574984985496,1.0338641055463582,-2.3256511363235517,-0.6443344610116962,7.872815704729379,4.855020456080197
-1.170918857443086,1.112592262593652,-2.3320944809336686,-0.5957842564508943,7.847566798023135,5.1046949530449615
