th1 (rad),w1 (rad/s),th2 (rad),w2 (rad/s),a1 (rad/s^2),a2 (rad/s^2)
3.0186280743729794,2.9890556066914957,3.29328941848928,-0.49287954104364984,-1.333124416167445,0.3408769063700117
3.0485186304398946,2.9757243625298213,3.288360623078843,-0.4894707719799497,-1.0540964196692173,0.3536089758739691
3.0782758740651928,2.9651833983331293,3.2834659153590438,-0.48593468222121,-0.7631337698573326,0.34136144309706073
3.107927708048524,2.957552060634556,3.2786065685368317,-0.4825210677902394,-0.4618075984267479,0.3079270853324449
3.1375032286548694,2.9529339846502882,3.273781357858929,-0.47944179693691497,-0.15215713711423268,0.257780404386975
3.1670325685013725,2.951412413279146,3.26898693988956,-0.4768639928930452,0.1633624008000688,0.1960057810493291
3.196546692634164,2.9530460372871468,3.2642182999606293,-0.4749039350825519,0.4819547933992032,0.12819152625876687
3.2260771530070356,2.9578655852211386,3.2594692606098037,-0.4736220198199642,0.8005782202745906,0.060293252476352796
3.255655808859247,2.9658713674238846,3.254733040411604,-0.4730190872952007,1.116057484269307,-0.0015281983776827897
3.285314522533486,2.977031942266578,3.250002849538652,-0.4730343692789775,1.4252082884909876,-0.05108733736217537
3.3150848419561516,2.991284025151488,3.2452725058458625,-0.4735452426525993,1.7249677600941997,-0.08236461319292676
3.3449976822076666,3.00853370275243,3.2405370534193363,-0.47436888878452854,2.012524480394209,-0.08969710165727335
3.375083019235191,3.028658947556372,3.235793364531491,-0.47526585980110125,2.285440576752818,-0.0679583570331846
3.4053696087107546,3.0515133533239003,3.23104070593348,-0.4759454433714331,2.541758127730123,-0.012716032872547963
3.4358847422439935,3.0769309346012017,3.2262812514997656,-0.4760726037001586,2.7800824320292534,0.07964368053886985
3.4666540515900057,3.1047317589214942,3.221520525462764,-0.47527616689476987,2.9996357639752578,0.21183417786627876
3.4977013691792207,3.134728116561247,3.216767763793816,-0.4731578251161071,3.2002771469077795,0.38563568931302983
3.529048650344833,3.1667308880303247,3.212036185542655,-0.4693014682229768,3.3824863179858657,0.6019143427811362
3.5607159592251363,3.2005557512101834,3.207343170860425,-0.46328232479516546,3.5473131466807875,0.8606911667864284
3.592721516737238,3.236028882676991,3.2027103476124736,-0.4546754131273012,3.696296872926692,1.1612545688307652
3.6250818055640077,3.272991851406258,3.1981635934812007,-0.44306286743899354,3.831362163579696,1.5023058941623753
3.65781172407807,3.3113054730420552,3.1937329648068107,-0.4280398084973698,3.9547007241894834,1.8821250222094075
3.6909247788084905,3.35085248028395,3.189452566721837,-0.4092185582752757,4.068647791476687,2.298741969351985
3.72443330361133,3.391538958198717,3.1853603811390845,-0.38623113858175584,4.175562240933336,2.750101187786999
3.758348693193317,3.43329458060805,3.181498069753267,-0.3587301267038858,4.277717465074842,3.2342074118122297
3.792681638999398,3.4760717552587987,3.177910768486228,-0.32638805258576353,4.377207960248163,3.7492450056358515
3.8274423565519857,3.5198438348612804,3.1746468879603706,-0.288895602529405,4.475874114972236,4.293666218679873
3.8626407949005985,3.5646025760110027,3.1717579319350766,-0.24595894034260626,4.575245398935354,4.866247008185957
3.8982868206607084,3.610355030000356,3.1692983425316505,-0.1972964702607467,4.676500285726393,5.466111742859351
3.934390370960712,3.65712003285762,3.167325377829043,-0.1426353528321532,4.780439949733677,6.092729942901164
3.9709615712892883,3.704924432354957,3.1658990243007215,-0.08170805340314156,4.887472080156889,6.745889209554983
4.008010815612838,3.7537991531565256,3.16508194376669,-0.014249161307591726,4.997600982412242,7.425648756394125
4.045548807144404,3.803775162980648,3.164939452153614,0.060007326256349525,5.110420368030069,8.132277658799161
4.08358655877421,3.8548793666609487,3.1655395254161776,0.14133010284434114,5.225105733957628,8.86618129594551
4.12213535244082,3.907130424000525,3.166952826444621,0.22999191580379624,5.340403880785509,9.627818665065526
4.161206656680825,3.96053446280838,3.169252745602659,0.3262701024544515,5.454617825970451,10.417612458249542
4.200812001308909,4.015080641068084,3.1725154466272034,0.4304462270369469,5.565586075543366,11.235853121852063
4.24096280771959,4.070736501823518,3.176819908897573,0.5428047582554676,5.670655899774978,12.082597642105698
4.281670172737826,4.1274430608212676,3.1822479564801274,0.6636307346765246,5.766650912402608,12.957563560982942
4.322944603346039,4.185109569945293,3.1888842638268926,0.793206370286354,5.849833892494569,13.860018745208862
4.364795699045492,4.243607908870239,3.1968163275297563,0.9318065577384427,5.9158664336348465,14.788667716579535
4.407231778134194,4.302766573206588,3.2061343931071407,1.079693234904238,5.959767678146505,15.74153590299075
4.45025944386626,4.362364249988053,3.216931325456183,1.2371085939341455,5.975875110248435,16.715853980019304
4.49388308636614,4.4221230010905375,3.2293024113955244,1.4042671337343386,5.957811146163773,17.707945528147736
4.538104316377046,4.481701112552175,3.243345082732868,1.581346589015816,5.89846006036818,18.71312250513291
4.582921327502568,4.540685713155857,3.259158548623026,1.768477814067145,5.789960594330606,19.725594484136455
4.628328184634126,4.598585319099163,3.2768433267636974,1.9657337589085095,5.6237203520916985,20.73839917037282
4.674314037825118,4.65482252262008,3.2965006643527826,2.1731177506122377,5.3904587134407125,21.743363287048574
4.720862263051319,4.708727109754487,3.3182318418589047,2.3905513834827232,5.080285379047463,22.731104385985514
4.767949534148864,4.759529963544962,3.342137355693732,2.6178624273425783,4.682821663382278,23.69108532445761
4.815544833784314,4.806358180178784,3.3683159799671576,2.8547732805871546,4.187371107447359,24.611733859387186
4.863608415586102,4.848231891253258,3.3968637127730292,3.1008906191810266,3.5831447157934413,25.480639820831936
4.912090734498634,4.884063338411193,3.4278726189648396,3.355697017389346,2.8595439511188028,26.28484140752601
4.960931367882746,4.91265877792238,3.461429589138733,3.6185454314646064,2.006501383405737,27.011210080694926
5.01005795566197,4.9327237917564375,3.4976150434533793,3.8886575322715555,1.014874472027278,27.646940144095502
5.059385193579534,4.9428725364767105,3.5365016187760947,4.165126933712511,-0.12311768115794582,28.180144292529665
5.108813918944302,4.941641359665131,3.5781528881132196,4.446928376637807,-1.4134315551135241,28.60055021202074
5.158230332540953,4.927507044113996,3.622622171879598,4.732933878758014,-2.859735048753693,28.90028591239302
5.207505402982092,4.898909693626459,3.669951510667178,5.021936737881944,-4.462974726714265,29.074733272868894
5.256494499918357,4.854279946359316,3.7201708780459977,5.312684070610633,-6.221015174478577,29.123420954517123
5.305037299381951,4.79206979461453,3.773297718752104,5.6039182801558045,-8.12839786262856,29.050920355144967
5.3529579973280965,4.7107858159882445,3.829336901553662,5.894427483707254,-10.176271164118589,28.86770293866249
5.400065855487979,4.609023104347059,3.8882811763907346,6.183104513093879,-12.352543534823655,28.590915598354094
5.44615608653145,4.485497668998822,3.9501122215216733,6.46901366907742,-14.64230689935841,28.24503432125919
5.491011063221438,4.3390746000052385,4.014802358212448,6.751464012290011,-17.028565713313537,27.86236664206118
5.534401809221491,4.168788942872103,4.082316998335348,7.030087678710623,-19.493288134163787,27.483390687717492
5.576089698650212,3.9738560615304652,4.152617875122455,7.304921585587798,-22.01876879648177,27.156941768592965
5.615828259265516,3.7536683735656475,4.225667090978333,7.576491003273728,-24.589257390842008,26.940282192645356
5.653364943001173,3.5077757996572276,4.3014320010110705,7.845893825200181,-27.1927615871388,26.899106893697155
5.688442700997745,3.2358481837858397,4.379890939263072,8.114884894137154,-29.82286981689113,27.107528333497864
5.720801182835604,2.937619485616928,4.4610397882044435,8.385960177472132,-32.480339951734884,27.648014171046633
5.750177377691774,2.6128160860995795,4.5448993899791645,8.662440319182599,-35.174018841900555,28.61105254733434
5.776305538552769,2.261075897680574,4.631523793170991,8.948550844655943,-37.92029616900622,30.09385600123032
5.798916297529575,1.8818729359905115,4.72100930161755,9.249489404668246,-40.7395469352089,32.196405873815145
5.817735026889481,1.4744774666384226,4.813504195664232,9.571453463406398,-43.64645979555465,35.01101107676235
5.8324798015558645,1.038012868682876,4.909218730298297,9.921563574174021,-46.627970199787654,38.597175415171634
5.842859930242693,0.5717331666849994,5.008434366040037,10.307535328325738,-49.59630962316401,42.92491549134046
5.8485772619095435,0.07577007045335926,5.111509719323294,10.736784483239143,-52.29373455272689,47.754122557586555
5.849334962614077,-0.44716727507390963,5.218877564155686,11.214325708815009,-54.111102145956814,52.39619387878608
5.844863289863338,-0.9882782965334778,5.331020821243836,11.73828764760287,-53.78424222007253,55.30253042611604
5.834980506898003,-1.526120718734203,5.448403697719865,12.29131295186403,-49.03564118183924,53.558426363151455
5.819719299710662,-2.0164771305525955,5.571316827238505,12.826897215495546,-36.647476022119925,42.92417387724391
5.799554528405136,-2.3829518907737945,5.69958579939346,13.256138954267985,-14.219255828547302,20.11509260302613
5.775725009497398,-2.5251444490592676,5.83214718893614,13.457289880298246,15.781156058966232,-11.843799639890177
5.750473565006805,-2.367332888469605,5.966720087739122,13.338851883899345,44.287500554710725,-41.40865988092133
5.726800236122109,-1.924457882922498,6.100108606578115,12.924765285090132,62.55063966255768,-57.80904658567287
5.707555657292884,-1.2989514862969211,6.229356259429017,12.346674819233403,69.62599475132164,-60.67412114670887
5.694566142429915,-0.6026915387837047,6.352823007621351,11.739933607766314,69.7927646852325,-56.11435306573599
5.688539227042078,0.09523610806862026,6.470222343699015,11.178790077108955,67.04141036872375,-49.409905881515705
5.689491588122764,0.7656502117558577,6.582010244470104,10.684691018293798,63.47163648325737,-43.16701736575644
5.697148090240323,1.4003665765884314,6.688857154653042,10.253020844636232,59.888035095057056,-38.283080457512966
5.711151756006207,1.999246927539002,6.791387363099404,9.870190040061102,56.49444590705558,-34.910065185021146
5.731144225281597,2.564191386609558,6.890089263500015,9.521089388210891,53.267492603723966,-32.937806709721436
5.756786139147693,3.0968663126467977,6.985300157382124,9.191711321113676,50.11826343092152,-32.18500040530314
5.787754802274161,3.598048946956013,7.077217270593261,8.869861317060645,46.956208875087896,-32.46301077759572
5.823735291743722,4.067611035706892,7.1659158837638675,8.545231209284687,43.7128359570164,-33.59184457041479
5.8644114021007905,4.504739395277056,7.251368195856714,8.209312763580538,40.349388554554615,-35.40062618748761
5.909458796053561,4.908233280822603,7.33346132349252,7.855306501705662,36.85790974742974,-37.724856255461106
5.958541128861786,5.2768123782969,7.412014388509577,7.478057939151051,33.25915522290853,-40.40478918035777
6.011309252644756,5.6094039305259855,7.486794967901087,7.074010047347473,29.5986243203279,-43.286138515181726
6.067403291950016,5.9053901737292644,7.557535068374562,6.641148662195656,25.94127235575154,-46.22303934745724
6.126457193687308,6.16480289728678,7.623946554996518,6.178918268721084,22.365339866957118,-49.08264272093569
6.188105222660176,6.388456295956351,7.685735737683729,5.688091841511727,18.955789590441434,-51.75048621965873
6.251989785619739,6.578014191860765,7.742616656098846,5.170586979315139,15.797909650027828,-54.13573888283365
6.317769927538347,6.735993288361043,7.794322525891998,4.629229590486803,12.971650416530998,-56.175506083161885
6.385129860421957,6.865709792526353,7.840614821796866,4.067474529655184,10.547191534593205,-57.83757017023433
6.45378695834722,6.971181707872285,7.881289567093417,3.489098827952841,8.58209024006874,-59.12120206766134
6.523498775425943,7.057002610272972,7.916180555372946,2.897886807276228,7.120161683681277,-60.055963251188295
6.594068801528673,7.128204227109785,7.945159423445708,2.297327174764345,6.192010442094278,-60.69866912685215
6.665350843799771,7.190124331530728,7.9681326951933515,1.6903404834958233,5.816888103169877,-61.12883358054036
6.737252087115078,7.248293212562427,7.98503610002831,1.0790521476904198,6.0052928717488046,-61.44287657492626
6.809735019240702,7.308346141279915,7.9958266215052145,0.46462338194115715,6.7614085899907215,-61.74704320729744
6.882818480653501,7.375960227179823,8.000472855324626,-0.1528470501318172,8.083978804681951,-62.14818250007487
6.9565780829253,7.4568000152266425,7.998944384823307,-0.7743288751325659,9.963268180508273,-62.7399539451441
7.031146083077567,7.556432697031725,7.991201096071982,-1.401728414584007,12.36990399901057,-63.579085269795456
7.106710410047884,7.6801317370218305,7.977183811926142,-2.0375192672819615,15.22786304152381,-64.64103967132228
7.183511727418103,7.832410367437069,7.956808619253322,-2.683929663995184,18.357907274501013,-65.735902840966
7.2618358310924735,8.015989440182079,7.9299693226133705,-3.341288692404844,21.370439127823435,-66.35512703009658
7.341995725494295,8.229693831460313,7.896556435689322,-4.00483996270581,23.488380530819484,-65.42279221531739
7.424292663808898,8.464577636768508,7.856508036062264,-4.659067884858984,23.331918204737118,-60.99889699326762
7.508938440176583,8.69789681881588,7.809917357213674,-5.26905685479166,18.89509330204604,-50.264035756739354
7.595917408364742,8.88684775183634,7.757226788665758,-5.7716972123590535,8.331723344214241,-30.66212669101681
7.684785885883105,8.970164985278483,7.699509816542167,-6.078318479269222,-7.907603633671906,-2.9612657494795447
7.77448753573589,8.891088948941764,7.638726631749475,-6.107931136764018,-25.239990981455886,26.133074543260967
7.8633984252253075,8.638689039127206,7.577647320381835,-5.846600391331408,-37.399711543614956,47.490661375446415
7.949785315616579,8.264691923691057,7.51918131646852,-5.371693777576944,-41.77431676925285,57.21694442922586
8.03243223485349,7.846948755998529,7.465464378692751,-4.799524333284685,-40.28549920058993,57.9828307098856
8.110901722413475,7.44409376399263,7.417469135359904,-4.219696026185829,-36.028262003723434,54.2466040609188
8.1853426600534,7.083811143955395,7.375272175098046,-3.6772299855766413,-31.082833310238033,49.079039233737134
8.256180771492955,6.772982810853015,7.33849987524228,-3.1864395932392697,-26.403310574513082,43.950109180675106
8.323910599601486,6.508949705107884,7.306635479309888,-2.7469385014325187,-22.302061989411584,39.39579328254372
8.389000096652564,6.285929085213769,7.2791660942955625,-2.3529805686070815,-18.81226122443831,35.53155760576342
8.451859387504703,6.097806472969386,7.255636288609492,-1.9976649925494474,-15.868356800273533,32.31350800644013
8.512837452234397,5.93912290496665,7.235659638683997,-1.6745299124850461,-13.381564907264986,29.65090055651541
8.572228681284063,5.805307255894,7.218914339559147,-1.378020906919892,-11.267541313635736,27.449617030507564
8.630281753843002,5.692631842757643,7.205134130489948,-1.1035247366148164,-9.45449525027035,25.62666103036947
8.687208072270579,5.598086890254939,7.194098883123799,-0.8472581263111217,-7.883960465318886,24.113293773457023
8.743188941173129,5.51924728560175,7.1856263018606885,-0.6061251885765515,-6.509167966926774,22.854110172396403
8.798381414029146,5.454155605932483,7.179565049974923,-0.3775840868525875,-5.292913178852855,21.804953993033187
8.852922970088471,5.401226474143955,7.175789209106397,-0.1595345469222556,-4.205578269988249,20.930755516695402
8.906935234829911,5.359170691444072,7.174193863637175,0.049773008244698436,-3.2234909303024284,20.20364553636189
8.960526941744352,5.326935782141049,7.174691593719622,0.25180946360831735,-2.327625691031589,19.601417789434795
9.013796299565762,5.303659525230732,7.177209688355705,0.4478236415026653,-1.5025989127306962,19.106312271570335
9.066832894818068,5.288633536103426,7.181687924770732,0.6388867642183687,-0.7358990031567788,18.704064315314405
9.119719230179102,5.281274546071858,7.188076792412915,0.8259274073715127,-0.017299340422657974,18.38316367364023
9.17253197563982,5.281101552667631,7.196336066486631,1.009759044107915,0.6615888473534252,18.13427587059672
9.225342991166498,5.287717441141165,7.20643365692771,1.1911018028138822,1.3076569445640391,17.949787689890297
9.27822016557791,5.300794010586806,7.218344674955849,1.3705996797127853,1.9265581722073641,17.823447375142425
9.331228105683778,5.32005959230888,7.232050671752977,1.5488341534642096,2.522904822973942,17.750077250690325
9.384428701606867,5.3452886405386195,7.247539013287619,1.726334925971113,3.100418068264885,17.725342059307884
9.437881588012253,5.376292821221268,7.2648023625473295,1.9035883465641918,3.662041384909419,17.74556058720803
9.491644516224465,5.412913235070362,7.283838246012971,2.0810439524362723,4.210026028851759,17.80755137315913
9.54577364857517,5.455013495358879,7.304648685537334,2.2591194661678635,4.745995024520181,17.90850571253197
9.600323783528758,5.502473445604081,7.327239880199013,2.4382045232931833,5.2709906639399255,18.045882957528068
9.655348517984798,5.55518335224348,7.351621925431945,2.618663352868464,5.785509385652724,18.2173244271726
9.710900351507233,5.613038446100007,7.37780855896063,2.80083659714019,6.289527032281142,18.42058318469773
9.767030735968232,5.6759337164228185,7.405816924932032,2.9850424289871675,6.782516796216776,18.653467598118244
9.82379007313246,5.743758884384986,7.435667349221903,3.17157710496835,7.263461604623069,18.91379703411413
9.881227661976311,5.816393500431217,7.467383120271587,3.3607150753094914,7.730862231694056,19.199368292677196
9.939391596980624,5.893702122748158,7.5009902710246825,3.5527087582362635,8.182742032470475,19.50793150589788
9.998328618208106,5.975529543072862,7.536517358607045,3.747788073295242,8.616648850433759,19.83717422548981
10.058083913638834,6.0616960315772,7.573995239339998,3.9461598155501405,9.029654347422763,20.184712329647667
10.118700873954605,6.151992575051428,7.613456837495499,4.148006938846617,9.41835072900392,20.54808620380039
10.18022079970512,6.246176082341467,7.654936906883965,4.353487800884621,9.77884458283135,20.924760399298766
10.242682560528534,6.3439645281697805,7.698471784892812,4.562735404877609,10.106747304304049,21.312124651579683
10.306122205810231,6.445032001212821,7.744099138941587,4.775856651393406,10.39716134645061,21.707493743266692
10.370572525822359,6.549003614677328,7.791857705455522,4.992931588826073,10.644661294688442,22.108103223786866
10.436062561969132,6.655450227624212,7.841787021343783,5.214012621063942,10.84326853076498,22.51109744113702
10.502617064245374,6.763882912931861,7.893927147554423,5.439123595475312,10.986418019458874,22.913505703133
10.570255893374693,6.87374709312645,7.948318383509176,5.668258652506642,11.066915543927143,23.312201674664
10.638993364305957,6.984416248565722,8.005000970034242,5.901380669253283,11.076883567210325,23.703840363105876
10.708837526791614,7.0951850842378255,8.064014776726776,6.138419072884341,11.007693873247533,24.08476630694307
10.779789377633993,7.205262022970301,8.125398967455618,6.379266735953772,10.849885347129383,24.4508859730016
10.851841997863696,7.313760876441594,8.189191634815156,6.623775595683788,10.593065855005703,24.797497068311642
10.924979606628112,7.419691534991651,8.255429390771994,6.871750566366904,10.225798418952962,25.119067768352128
10.999176521978029,7.521949519181181,8.324146896435662,7.122941244050425,9.735474086444391,25.408960176129437
11.07439601716984,7.619304260045625,8.395376308876166,7.37703084581172,9.108177513531128,25.659095251975174
11.150589059770297,7.710386035180936,8.469146617334284,7.633621798331472,8.328556872860192,25.859561792250073
11.227692920122106,7.793671603909538,8.545482835317598,7.892217416253972,7.379717901878313,25.99818079722861
