th1 (rad),w1 (rad/s),th2 (rad),w2 (rad/s)
3.6468823182864876,3.0281988247365206,4.086935492684162,-0.4972204509874839
3.677164306533853,3.078467999882807,4.081963288174287,-0.5023150673733331
3.707948986532681,3.1326290126542036,4.076940137500554,-0.5102602729122491
3.7392752766592228,3.190637624884727,4.071837534771431,-0.5208878170320982
3.77118165290807,3.252383142456919,4.06662865660111,-0.5339119197726193
3.803705484332639,3.3176745043522287,4.0612895374033835,-0.5489070733062859
3.8368822293761613,3.3862265409966317,4.055800466670321,-0.5652861962618594
3.870744494786128,3.4576479355821323,4.0501476047077025,-0.5822815044865152
3.905320974141949,3.5314330187379075,4.044324789662837,-0.5989313586087271
3.9406353043293283,3.6069600375162874,4.03833547607675,-0.6140771177306673
3.976704904704491,3.6834987492619673,4.032194704899443,-0.6263743536236545
4.013539892197111,3.7602298261780667,4.025930961363207,-0.6343222588216609
4.051142190458891,3.8362773656615965,4.01958773877499,-0.6363133434357271
4.089504964115507,3.910753696998562,4.013224605340633,-0.6307024248906925
4.128612501085493,3.9828128966170224,4.006917581091726,-0.6158898136250389
4.168440630051663,4.051706625709188,4.0007586829554755,-0.5904094322269354
4.2089576963087545,4.116834041464508,3.9948545886332063,-0.5530097685979903
4.250126036723399,4.177777505954663,3.9893244909472263,-0.502715380846828
4.291903811782946,4.234317990716569,3.984297337138758,-0.43885970759789955
4.334246991690112,4.286427971951495,3.979908740062779,-0.36108553729600906
4.3771112714096265,4.334244023392301,3.976297884689819,-0.2693159289625545
4.42045371164355,4.378024839460056,3.9736047254001936,-0.16370362003192357
4.46423396003815,4.418102105232518,3.9719676891998743,-0.04456958570212288
4.508414981090476,4.454831319110887,3.971521993342853,0.08765884610699456
4.552963294281585,4.488547922544005,3.972398581803923,0.2325023179138078
4.597848773507025,4.519531760316042,3.974723604983061,0.38947151500447075
4.643044091110185,4.5479807427035865,3.978618320133106,0.5580954413925475
4.688523898537221,4.5739930396307455,3.984199274547031,0.7379366822410227
4.734263828933528,4.597556305967803,3.991578641369441,0.9285957821465992
4.780239391993207,4.618542197781139,4.0008645991909075,1.129707383244698
4.826424813971018,4.636704589407563,4.012161673023354,1.3409307266406034
4.872791859865093,4.651680248195773,4.025570980289761,1.5619367944293003
4.919308662347051,4.662991126786571,4.041190348234053,1.7923939560742461
4.965938573614917,4.670047807740055,4.059114287794796,2.0319535998288067
5.012639051692317,4.672153942102451,4.079433823793084,2.280236929753138
5.059360591113341,4.668511749672532,4.102236193090616,2.5368239014670064
5.106045708610067,4.658228795771697,4.127604432105286,2.801245141198893
5.152627996567784,4.640326333821842,4.155616883517275,3.072977618543873
5.199031259906002,4.61374951207113,4.186346659702713,3.3514447964645915
5.245168755026714,4.577379692482724,4.219861107667359,3.6360219365803994
5.290942551951541,4.530049025758702,4.256221327033163,3.926047170998746
5.336243042209127,4.470557275618116,4.29548179874315,4.2208388451671315
5.380948614965309,4.397690698413114,4.337690187194822,4.519719474985015
5.42492552194944,4.310242578272094,4.382887381944672,4.822046434956282
5.468027947732161,4.2070348207179835,4.431107846294235,5.1272491937205125
5.510098295939342,4.086939861156846,4.482380338231439,5.434872527997047
5.55096769455091,3.948902111277527,4.53672906351141,5.744624654433492
5.590456715663685,3.791958338490992,4.5941753100557445,6.056428573475697
5.628376299048595,3.6152568888002143,4.654739595790502,6.37047401835426
5.664528867936597,3.418076733064104,4.718444335974044,6.68726604126347
5.698709635267238,3.1998492744310787,4.785316996386679,7.007664059477682
5.730708128011549,2.9601892419877682,4.855393636981455,7.332901420588472
5.760310020431427,2.6989466958340267,4.92872265118734,7.664568995628719
5.787299487389767,2.4163015944890605,5.005368341143627,8.00453491840413
5.811462503334657,2.112937638762899,5.085413690327668,8.354753183965622
5.832591879722286,1.7903558557883967,5.168961222167324,8.716882193254628
5.85049543828017,1.4514222630091114,5.25613004409987,9.091587118437822
5.865009660910261,1.1012827289636626,5.347045915284248,9.477342255940929
5.876022488199898,0.7487928506031558,5.441819337843658,9.868517538812315
5.88351041670593,0.40851051169147395,5.540504513231781,10.252646631071736
5.887595521822845,0.1028780931800235,5.643030979542498,10.607310582343958
5.8886243027546445,-0.13679812564344535,5.749104085365937,10.898417632162692
5.88725632149821,-0.2734195865999003,5.8580882616875645,11.083624486293777
5.884522125632211,-0.27407622561648093,5.968924506550502,11.124718749265469
5.881781363376046,-0.12484252980851332,6.080171694043157,11.006246093431878
5.880532938077961,0.16007937874999237,6.1902341549774755,10.74664113426877
5.88213373186546,0.5445655889274853,6.297700566320163,10.389464982823036
5.8875793877547355,0.9871176668357976,6.401595216148394,9.981959910390046
5.897450564423093,1.4539522353504832,6.501414815252295,9.559083095933595
5.911990086776598,1.9227702747075184,6.59700564621163,9.13998067581291
5.931217789523673,2.38065868681361,6.688405452969759,8.731744946209714
5.955024376391809,2.820690736931487,6.775722902431856,8.334379730035753
5.983231283761124,3.239276852906958,6.859066699732214,7.94447461618009
6.015624052290193,3.6345528878584656,6.938511445894015,7.557395345947632
6.051969581168778,4.0055295053425475,7.014085399353491,7.168451023840868
6.092024876222204,4.351698507737409,7.0857699095919,6.7734700221220505
6.135541861299577,4.672886702387334,7.15350460981312,6.369058437642483
6.18227072832345,4.969232598179984,7.217195194189545,5.952690559442468
6.23196305430525,5.241215567883831,7.276722099783969,5.522706850438589
6.284375209984089,5.489698568660076,7.331949168288355,5.07825627104152
6.33927219567069,5.715963359485247,7.38273173099877,4.619201545843731
6.396431829265542,5.92172752313331,7.428923746457207,4.145998679983794
6.455649104496875,6.109138815281824,7.470383733257045,3.6595602844167283
6.516740492649694,6.280745965507353,7.506979336101213,3.16111321690978
6.579547952304767,6.439446562644582,7.538590468270311,2.6520633618032745
6.643942417931213,6.588411991946551,7.565111101888343,2.133883766198496
6.709826537850678,6.730986058046039,7.586449939550328,1.608047396675064
6.777136398431138,6.870547029833502,7.602530413517079,1.0760339017229001
6.845841868729473,7.010311055095516,7.613290752534308,0.5394532014036338
6.915944979280429,7.153036667614931,7.618685284548344,0.00035008929248292464
6.987475345956578,7.300564924919085,7.618688785441269,-0.5382156641862121
7.0604809952057686,7.45310238230436,7.613306628799407,-1.0711868958141975
7.135012019028812,7.608146423433901,7.602594759841265,-1.5899947122646356
7.211093483263151,7.75902771865091,7.586694812718619,-2.0805001319517498
7.28868376044966,7.893337803103203,7.565889811399102,-2.520809284881497
7.367617138480693,7.992190293862492,7.540681718550287,-2.8803583094656835
7.447539041419318,8.032206776917501,7.51187813545563,-3.123000721096594
7.527861109188493,7.992135464568112,7.480648128244664,-3.2168139252301593
7.607782463834174,7.862905903971811,7.4484799889923625,-3.1488320817616255
7.686411522873892,7.654415138307308,7.416991668174746,-2.9349606641381927
7.762955674256966,7.3920813346566545,7.387642061533364,-2.6149308143192638
7.836876487603532,7.105428591098773,7.361492753390171,-2.2354655012442506
7.9079307735145195,6.8181027393876645,7.339138098377728,-1.8352834568025815
7.976111800908396,6.544519552436703,7.320785263809703,-1.439688175358754
8.041556996432764,6.291341446870559,7.306388382056116,-1.0623341914991227
8.10447041090147,6.0602985925849,7.2957650401411245,-0.7091616115841786
8.165073396827319,5.850512962979374,7.288673424025283,-0.38175939322748503
8.223578526457112,5.65996165230799,7.284855830093008,-0.07954943928526009
8.280178142980192,5.4862744650904025,7.284060335700155,0.19897679612385166
8.335040887631097,5.327124457453479,7.286050103661394,0.45561755181483565
8.388312132205632,5.180396542422606,7.290606279179542,0.6921549635344337
8.440116097629858,5.04424364389694,7.297527828814887,0.9102258236951852
8.490558534068827,4.917089589814461,7.306630087051839,1.111280887380257
8.539729429966972,4.797609082965157,7.317742895925641,1.296586066850218
8.587705520796623,4.68469964270966,7.330708756594143,1.467241530862616
8.63455251722372,4.577452459827742,7.345381171902769,1.6242067380694638
8.680327041821997,4.475125131182049,7.361623239283464,1.768325674652147
8.725078293133818,4.377117315676785,7.379306496029986,1.9003497601568862
8.768849466290586,4.2829494650922735,7.398309993631554,2.0209574912624033
8.811678960941508,4.1922444100951965,7.418519568544178,2.1307706779057907
8.85360140504246,4.104711456514596,7.4398272753232355,2.230367489578664
8.894648519607605,4.0201326353452735,7.462130950219022,2.3202926791503375
8.934849845961057,3.938350785066017,7.485333877010525,2.401065394552793
8.974233353811718,3.859259194438211,7.509344530956053,2.47318498025367
9.0128259457561,3.782792583191216,7.53407638075859,2.537135138794403
9.050653871588013,3.7089192408909764,7.559447732146534,2.593386781951032
9.087743063996923,3.6376341791039275,7.585381599966045,2.6423998582803843
9.124119405787962,3.5689531789761295,7.611805598548848,2.6846244022969215
9.159808937577724,3.5029076366354652,7.638651842571817,2.7205010118163133
9.194838013944079,3.4395401237178724,7.665856852689981,2.7504609247362173
9.229233415181257,3.3789005911001024,7.693361461937343,2.7749258349045545
9.263022421092257,3.321043151711168,7.721110720286388,2.7943075587423207
9.29623285260937,3.266023384008626,7.749053795873811,2.809007639827313
9.328893086449456,3.2138961020573897,7.7771438722720845,2.819416957534116
9.36103204747003,3.164713541668184,7.805338041847426,2.825915387854039
9.392679182886711,3.1185239151151185,7.833597195725966,2.8288715494501107
9.423864422037862,3.075370289806417,7.861885911220467,2.82864265558183
9.454618124935926,3.0352897490803294,7.890172337776286,2.8255744824957327
9.48497102242673,2.9983127961176583,7.918428082601243,2.82000145694971
9.514954150387908,2.964462964828805,7.9466280971707395,2.8122468594521153
9.544598780036196,2.9337566044773564,7.974750565765261,2.802623135289766
9.57393634608097,2.9062028077130515,8.002776797118159,2.7914323022439946
9.6029983741581,2.881803454562338,8.030691120140599,2.778966441820348
9.631816408703722,2.8605533477189873,8.058480784558803,2.7655082596350176
9.660421942180912,2.8424404171463946,8.086135867155154,2.7513317001212836
9.688846346352376,2.827445974508481,8.113649184156367,2.736702600776381
9.71712080609746,2.815545000255844,8.14101621016413,2.721879371619883
9.745276256100018,2.806706448284465,8.168235003880328,2.707113686256866
9.773343320582862,2.800893554940479,8.195306140742897,2.6926511718306556
9.801352256132267,2.798064140758757,8.222232652461203,2.6787320861268054
9.829332897539855,2.7981708946949415,8.249019973322472,2.665591971084207
9.857314606486804,2.801161631746009,8.275675893033315,2.6534622729270994
9.885326222804265,2.806979515764655,8.302210515762585,2.6425709200117287
9.913396017961912,2.815563239973562,8.328636224962702,2.6331428502524608
9.941551650361648,2.8268471581964545,8.354967653465227,2.6254004806323246
9.969820121943613,2.8407613601664523,8.381221658271551,2.6195641117980246
9.998227735545278,2.8572316844739434,8.40741729938953,2.615852261082128
10.026800052390017,2.8761796628039,8.433575822000352,2.6144819174843876
10.055561849018057,2.897522389116391,8.459720641175196,2.615668712184934
10.084537072909221,2.9211723073766556,8.485877328297045,2.619626998065441
10.113748795982987,2.947036911377726,8.5120735982777,2.6265698314976182
10.143219165096765,2.975018350157626,8.538339296592676,2.636708849345931
10.172969348598341,3.005012932536328,8.564706385086136,2.65025403375542
10.203019477923705,3.036910524430915,8.591208925423691,2.6674133568970118
10.233388583168015,3.070593832901165,8.617883058992662,2.6883922974730243
10.264094521497027,3.1059375713877224,8.644766981967393,2.7133932205074593
10.295153897210904,3.1428075013922827,8.671900914172468,2.742614611834747
10.326581972224826,3.181059346980625,8.699327060290816,2.776250158846665
10.358392565694633,3.220537580037191,8.727089561879282,2.814487669565095
10.390597941495004,3.261074076241238,8.755234438574933,2.8575078230988225
10.423208682257417,3.30248664434959,8.78380951680592,2.905482746152152
10.456233548700913,3.3445774346405526,8.812864344267442,2.9585744126329985
10.48967932304732,3.387131236375441,8.842450088393772,3.0169328667222066
10.523550635411073,3.4299136789377607,8.872619417060994,3.080694274187131
10.55784977220045,3.4726693569689266,8.903426359802864,3.149978812427086
10.59257646577014,3.5151199063620457,8.934926147927134,3.2248884168976955
10.62772766483376,3.556962065392866,8.967175032096112,3.3055044103312636
10.663297285487689,3.5978657634990534,9.000230076199424,3.391885051677518
10.699275943122679,3.6374722891356663,9.034148926716199,3.4840630540130904
10.735650666014035,3.6753925975172748,9.06898955725633,3.582043134821167
10.772404591989208,3.711205828575804,9.104809988604542,3.6857996779459117
10.809516650274967,3.7444581146545097,9.141667985384,3.7952746039831635
10.846961231421512,3.7746617657034336,9.179620731423832,3.910375564538557
10.884707849078547,3.801294926247127,9.218724487069217,4.030974595154607
10.922720798341018,3.823801802182365,9.259034233020763,4.1569073810749595
10.960958816362842,3.841593555367285,9.300603306831514,4.2879733084666825
10.999374751916514,3.854049958650851,9.34348303991618,4.423936490146628
11.037915251503023,3.860521892003401,9.387722404817646,4.564527967963213
11.076520470423057,3.860334740233154,9.433367684497279,4.709449302355794
11.115123817825388,3.852792722957308,9.480462177520836,4.858377761810054
11.153651745054962,3.8371841468023704,9.529045955138937,5.010973319630601
11.192023586522986,3.8127875174150994,9.579155688335243,5.16688765166373
11.230151461697137,3.778878384607062,9.63082456485188,5.325775305900301
11.267940245543207,3.7347367185890556,9.684082317910882,5.487307183710495
11.305287612729098,3.679654530727301,9.738955389747987,5.651186434406097
11.342084158036371,3.612943361967044,9.795467254092049,5.817166822888007
11.378213591656042,3.5339411710681046,9.853638922320929,5.985073588808106
11.413553003366722,3.442018069944,9.91348965820901,6.154826780755641
11.447973184066162,3.336580283551312,9.975037926016565,6.326467026909418
11.481338986901676,3.217071668167762,10.038302596285659,6.500183700001195
11.513509703583354,3.082972119072914,10.10330443328567,6.676345451381715
11.544339424774083,2.9337922567494483,10.170067887799487,6.855533120113036
11.573677347341578,2.7690639305094136,10.238623219000617,7.038575044968036
11.601367986646672,2.5883263715724882,10.309008969450298,7.226584764324674
11.627251250362397,2.3911083568493248,10.381274817093544,7.42100086532864
11.65116233393089,2.176907682541387,10.455484825746831,7.62362811154082
11.672931410756304,1.9451709181772912,10.53172110686224,7.836677500557017
11.692383119938077,1.6952794296072626,10.610087881867809,8.062799750391047
11.709335914234149,1.4265531716001614,10.69071587937172,8.305100322639747
11.72360144595015,1.1382938775338183,10.773766882598117,8.56711154772907
11.734984384725488,0.829907826163225,10.859437998075409,8.852673418291669
11.74328346298712,0.5011818109047494,10.947964732258326,9.165629994729084
11.748295281096167,0.15284388416301892,11.039621032205616,9.509169088665695
11.749823719937798,-0.21236777718870486,11.134712723092273,9.884504041762087
11.74770004216591,-0.587789165482242,11.233557763509893,10.28842738232648
11.741822150511087,-0.9596875966525531,11.336442037333157,10.709181884337632
11.732225274544561,-1.3028988735068634,11.443533856176533,11.120570459639948
11.719196285809492,-1.5768949452216536,11.554739560772932,11.476391307211859
11.703427336357276,-1.7275680560908822,11.669503473845051,11.712176845822725
11.686151655796367,-1.7027523222793643,11.786625242303279,11.76496246443972
11.669124132573574,-1.4807206519381135,11.904274866947675,11.6100459933524
11.654316926054193,-1.0883896804211057,12.020375326881199,11.28365146692907
11.643433029249982,-0.5856405603375014,12.133211841550489,10.860860019972181
11.637576623646607,-0.03186966171364758,12.24182044175021,10.4117131806649
11.63725792702947,0.5329614100627601,12.34593757355686,9.978140357361882
11.642587541130098,1.0879965364924982,12.445718977130479,9.576324795236443
11.653467506495023,1.624301423141266,12.541482225082843,9.207161949040431
11.669710520726435,2.138781742009427,12.633553844573248,8.86451870202715
11.69109833814653,2.6306682256342455,12.722199031593519,8.539810164107665
11.717405020402872,3.099824161439827,12.807597133234596,8.224145414069124
11.74840326201727,3.546048961595778,12.889838587375287,7.909233673827945
11.783863751633227,3.9688729214997305,12.968930924113566,7.58773535237077
11.823552480848225,4.367582752934118,13.044808277637275,7.253387183693462
11.867228308377566,4.7413506574609015,13.11734214947421,6.901043129558522
11.914641814952175,5.0894040754750005,13.186352580769794,6.526683548010605
11.965535855706925,5.41120277967983,13.2516194162499,6.127405209492225
12.019647883503723,5.706603511536018,13.312893468344823,5.701388414511249
12.076713918619083,5.975999208037595,13.369907352489935,5.24783257474554
12.13647391069946,6.220424373609182,13.42238567823739,4.766852496888747
12.198678154435552,6.441622141917348,13.470054203206278,4.259331452452349
12.263094375854726,6.642072569871504,13.512647517730802,3.726732332899807
12.32951510155344,6.824985532246519,13.549914841059799,3.170873737650571
12.397764956875905,6.994264652111936,13.581623578436306,2.5936830886775573
12.467707603397024,7.1544501292722344,13.607560409323082,1.9969437256860592
12.539252104689746,7.310646885782499,13.627529846579941,1.3820582521999096
12.61235857354757,7.468438226337057,13.64135042910194,0.7498586149409187
12.687042955810941,7.633770825766123,13.64884901525135,0.10050972806364811
12.763380664068602,7.812767845906676,13.649854112531987,-0.5664119956248201
12.84150834252767,8.011371135773334,13.644189992575738,-1.251512677494972
12.921622053885402,8.234609793864657,13.631674865800788,-1.954556924328323
13.003968151824049,8.48511393010813,13.612129296557505,-2.672292649788667
13.08881929112513,8.76024214193324,13.58540637005962,-3.3942527293438625
13.176421712544462,9.047058133659863,13.55146384276618,-4.095501709530844
13.26689229388106,9.315201869861085,13.510508825670872,-4.726496522049878
13.36004431257967,9.511486361014262,13.463243860450373,-5.205672856067938
13.455159176189813,9.567937893309887,13.411187131889694,-5.431596552210184
13.550838555122912,9.436083474586802,13.356871166367592,-5.332917390443103
13.64519938986878,9.12933225725871,13.303541992463161,-4.92994076017875
13.736492712441368,8.720052520983595,13.254242584861373,-4.330946634602053
13.823693237651204,8.28816941642688,13.210933118515353,-3.6578874299567796
13.906574931815474,7.883570222149375,13.174354244215785,-2.990705960458153
13.985410634036967,7.525587437836023,13.144447184611202,-2.3649646259705417
14.060666508415327,7.21625339123487,13.120797538351496,-1.7901775874556942
14.132829042327677,6.950570607481513,13.102895762476939,-1.2645555684207568
14.202334748402492,6.721652844344063,13.090250206792732,-0.7826359914526522
14.269551276845933,6.522785156050741,13.082423846878205,-0.338502417739518
14.33477912840644,6.348080344955814,13.07903882270081,0.0730705044794524
14.398259931855998,6.192581727103764,13.079769527745604,0.4563315208762395
14.460185749127035,6.052177579684801,13.084332842954367,0.8145893049878632
14.520707524923884,5.923470694846371,13.092478736004246,1.1503509285858278
14.579942231872348,5.803654033257642,13.103982245290105,1.4654775028114628
