th1 (rad),w1 (rad/s),th2 (rad),w2 (rad/s)
1.6035803035080967,-2.044254979108706,0.05983946771768114,0.7425526080252874
1.5831377537170095,-2.1454810441590113,0.067264993797934,0.781204716177635
1.5616829432754193,-2.2477552386680966,0.07507704095971035,0.8261936346702379
1.5392053908887384,-2.351325972804697,0.08333897730641274,0.8778974454283611
1.5156921311606915,-2.456478017710137,0.09211795176069634,0.9367208022699812
1.49112735098359,-2.563537706244424,0.10148515978339616,1.0031007636556217
1.4654919739211458,-2.6728788836173396,0.11151616741995238,1.0775136138092822
1.4387631850849725,-2.784929677687749,0.1222913035580452,1.160482749314763
1.410913888308095,-2.9001801296141645,0.13389613105119283,1.252587652902486
1.3819120870119532,-3.0191906601655347,0.1464220075802177,1.354473865459843
1.3517201804102978,-3.142601216974477,0.15996674623481613,1.4668636604271421
1.3202941682405531,-3.271140704644574,0.17463538283908756,1.5905667519578268
1.2875827611941073,-3.405635859696219,0.1905410503586658,1.7264897109603856
1.253526402597145,-3.5470179543480826,0.20780594746826966,1.8756416206024817
1.2180562230536642,-3.696324358420153,0.22656236367429447,2.039131537568615
1.1810929794694627,-3.8546896605600502,0.2469536790499806,2.2181499782525123
1.1425460828638623,-4.023317106918341,0.2691351788325057,2.413921018684125
1.1023129117946788,-4.203414571321509,0.29327438901934694,2.6276023031556663
1.0602787660814637,-4.396068762673926,0.3195504120509036,2.860095401598301
1.0163180784547243,-4.602015470077195,0.3481513660668866,3.111706573118452
0.9702979237539524,-4.821242270995225,0.3792684317980711,3.3815680880878585
0.9220855010440001,-5.052339008764734,0.41308411267894973,3.6667011131302822
0.8715621109563527,-5.291513030373596,0.44975112381025256,3.960604924002985
0.8186469806526168,-5.53127080035442,0.4893571730502824,4.251379221324196
0.7633342726490726,-5.759051336975579,0.5318709652635244,4.51979111645257
0.7057437592793168,-5.95669620064437,0.57706887642805,4.738549784402597
0.646176797272873,-6.1023666014343805,0.6244543742720761,4.87508088815673
0.5851531312585292,-6.176317072495167,0.6732051831536434,4.89980630216743
0.5233899605335776,-6.169234048261585,0.7222032461753177,4.798102464980562
0.4616976200509617,-6.087714336996034,0.7701842708251233,4.578236942931533
0.40082047668100135,-5.951702509453975,0.8159666402544387,4.2678901591759475
0.3413034515864616,-5.7856688893754225,0.8586455418461981,3.901709430497637
0.28344676269270735,-5.61047358460374,0.8976626361511745,3.509706058832059
0.22734202684666996,-5.440035400272845,0.9327596967394951,3.1123862024085174
0.17294167284394152,-5.281876191881078,0.9638835587635802,2.7213798438911594
0.12012291092513075,-5.139059733012855,0.9910973572024918,2.3420955522293623
0.0687323135950022,-5.012005132129191,1.0145183127247854,1.9762479125944448
0.018612262273710288,-4.8997374958063595,1.03428079185073,1.623621303876923
-0.03038511268435331,-4.800632844585772,1.0505170048894992,1.2831344384942098
-0.07839144113021104,-4.7128232895397595,1.0633483492744413,0.9534299387411465
-0.12551967402560865,-4.634401495793426,1.0728826486618528,0.6331797228378333
-0.17186368898354293,-4.56351499311809,1.079214445890231,0.32123124768684136
-0.21749883891472382,-4.498403388020311,1.0824267583670995,0.016668098159963618
-0.26248287279492694,-4.437407900558985,1.0825934393486991,-0.28117426953144464
-0.3068569518005168,-4.378968989585021,1.0797816966533846,-0.5727157602991899
-0.350646641696367,-4.321620251983561,1.0740545390503928,-0.8581504567919752
-0.3938628442162026,-4.26398265736311,1.065473034482473,-1.1374712566710166
-0.4365026707898337,-4.204760949982287,1.054098321915763,-1.4104975050094621
-0.47855028028965657,-4.142742841391944,1.0399933468656684,-1.67690426690335
-0.519977708703576,-4.076800956317304,1.023224304196635,-1.9362525654624212
-0.560745718266749,-4.005897128597873,1.0038617785420108,-2.188020172611525
-0.6008046895527277,-3.929088441874814,0.9819815768158955,-2.4316325911941172
-0.6400955739714759,-3.845534303775614,0.9576652509039543,-2.666493822738889
-0.678550917009232,-3.754503798780787,0.9310003126765654,-2.892016441811559
-0.7160959549970398,-3.655382566874984,0.9020801482584497,-3.1076504324151544
-0.7526497806657897,-3.5476784935904577,0.8710036439342982,-3.312910204679604
-0.7881265656016943,-3.431025566598314,0.8378745418875021,-3.507399210750118
-0.8224368212676774,-3.3051853500911523,0.8028005497800009,-3.690831620216389
-0.8554886747685889,-3.170045646302293,0.7658922335778371,-3.8630505961411976
-0.8871891312316118,-3.025616048579876,0.7272617276164252,-4.024042828500512
-0.9174452917174105,-2.8720202366668524,0.68702129933142,-4.173949126597857
-0.946165494084079,-2.7094850154934353,0.6452818080654414,-4.313071038438376
-0.9732603442390134,-2.5383262461692864,0.6021510976810577,-4.441873644732608
-0.9986436067007063,-2.3589319534953197,0.5577323612337316,-4.560984858744779
-1.0222329262356595,-2.171743009464782,0.5121225126462838,-4.671191740392021
-1.0439503563303074,-1.9772318787862446,0.4654105952423636,-4.773434493197434
-1.0637226751181699,-1.775879964194735,0.41767625031038924,-4.868798945389946
-1.0814814747601171,-1.5681541032983415,0.3689882608564898,-4.958508411771001
-1.0971630157931005,-1.354482746908347,0.31940317673877977,-5.043915881823963
-1.110707843262184,-1.1352322997870217,0.26896401792054014,-5.12649747265608
-1.1220601662600542,-0.9106840457663167,0.21769904319397934,-5.207848010613918
-1.1311670067177173,-0.6810120393566355,0.16562056308784015,-5.289679442268758
-1.1379771271112837,-0.4462623719195559,0.11272376866515257,-5.3738224848301686
-1.1424397508304793,-0.20633438695241013,0.05898554381685089,-5.462231432566948
-1.1445030947000034,0.039035151640545496,0.004363229491181411,-5.556991197544043
-1.144112743183598,0.290283037222965,-0.051206682484259025,-5.660324219475284
-1.1412099128113684,0.5480221293079863,-0.10780992467901188,-5.774592363968672
-1.1357296915182886,0.813028655563975,-0.1655558483186986,-5.902284523354428
-1.1275994049626488,1.0862020436985966,-0.2245786935522429,-6.045972949461198
-1.1167373845256627,1.3684755053706261,-0.2850384230468549,-6.208208132252878
-1.1030526294719565,1.660639787789245,-0.3471205043693837,-6.391299984226497
-1.086446231594064,1.9630178288882645,-0.41103350421164864,-6.596898381552566
-1.0668160533051814,2.274894120593201,-0.47700248802717427,-6.825237781900678
-1.0440671120992493,2.593569626392358,-0.5452548658461811,-7.073862139411286
-1.0181314158353256,2.9129239607353052,-0.615993487240294,-7.335656176919473
-0.9890021762279726,3.221538723519675,-0.6893500490094887,-7.596239828421109
-0.9567867889927758,3.50099039955951,-0.7653124472936998,-7.831542933556492
-0.9217768849971807,3.726010734300937,-0.8436278766292648,-8.007885990288681
-0.8845167776541714,3.8691669318318214,-0.9237067365321515,-8.088231922911769
-0.8458251083358531,3.9111092096747218,-1.0045890557612691,-8.046088090731656
-0.8067140162391059,3.851413304457276,-1.0850499366685857,-7.880252809378813
-0.7681998831945331,3.710436425312667,-1.1638524647623738,-7.617281936147616
-0.7310955189414065,3.5193737686251088,-1.24002528412385,-7.297922213186517
-0.6959017812551553,3.3074140843509294,-1.3130045062557152,-6.959787422303789
-0.662827640411646,3.0949877569442745,-1.382602380478753,-6.6284785598731295
-0.6318777628422032,2.8936008227948466,-1.4488871660774842,-6.317629216283171
-0.6029417546142547,2.7084417473848728,-1.5120634582403158,-6.03258560556612
-0.575857337140406,2.5410127937926488,-1.572389314295977,-5.7740039989401355
-0.5504472092024795,2.3909388741273463,-1.6301293542853785,-5.540271042565886
-0.526537820461206,2.257017962341506,-1.6855320647110374,-5.328875894678883
-0.503967640837791,2.1377738768189145,-1.7388208236578262,-5.137108772683101
-0.48258990206960184,2.0317249351092928,-1.7901919113846572,-4.962382744238978
-0.4622726527185089,1.9375018829866546,-1.8398157388270469,-4.80236066248551
-0.4428976338886424,1.8538897941308967,-1.887839345451902,-4.654987279104103
-0.4243587359473334,1.779833525177001,-1.934389218242943,-4.518478480233712
-0.40656040069556343,1.7144270026126347,-1.9795740030452802,-4.391293576782333
-0.3894161306694371,1.656896422119199,-2.0234869388131034,-4.272103088618712
-0.3728471664482451,1.6065821771273285,-2.0662079696992905,-4.159757647886762
-0.3567813446769718,1.5629216612577488,-2.107805546178158,-4.053260287536848
-0.3411521280643943,1.5254337590003626,-2.1483381490535267,-3.9517427789461794
-0.3258977904743907,1.4937051968170019,-2.1878555768429884,-3.854445961278653
-0.3109607385062207,1.467378634248297,-2.226400036455775,-3.7607037179830973
-0.29628695216373774,1.4461422570645228,-2.264007073635606,-3.6699301759349856
-0.2818255295930925,1.4297206026103872,-2.300706375394956,-3.5816097160952314
-0.26752832356698864,1.4178663559653306,-2.336522472555908,-3.4952894342854437
-0.25334966000733533,1.4103528820120435,-2.3714753668987627,-3.4105737487435874
-0.23924613118721488,1.4069672925489287,-2.4055811043861985,-3.3271209039192544
-0.2251764582617256,1.407503884974154,-2.438852313425391,-3.244641160906886
-0.21110141941198407,1.4117578287721708,-2.47129872503446,-3.1628964907078343
-0.19698384112426237,1.4195190185593933,-2.5029276899415382,-3.081701595366387
-0.18278865093866845,1.430566058902223,-2.5337447058952023,-3.0009260729023297
-0.1684829903496462,1.4446603975741297,-2.5637539666242257,-2.9204975144451715
-0.1540363863739049,1.4615406808737619,-2.5929589417686776,-2.8404052765211225
-0.13942097956516727,1.4809174665349687,-2.621362994533889,-2.760704609902459
-0.12461180489981759,1.5024684945417106,-2.6489700406329137,-2.6815207527036535
-0.10958711995440049,1.5258347797817353,-2.6757852481599502,-2.6030525161345994
-0.09432877215658313,1.5506178466837677,-2.701815773321296,-2.5255748163661687
-0.07882259368974545,1.5763784663722142,-2.727071521484958,-2.449439548505751
-0.06305880902602332,1.6026372714004056,-2.7515659169700153,-2.3750741745849275
-0.04703243631201926,1.6288776012751176,-2.7753166587158646,-2.302977423707931
-0.030743660299268085,1.6545508645929343,-2.798346432952944,-2.2337115945727657
-0.01419815165333874,1.6790845851826837,-2.8206835488986717,-2.1678911189180803
0.002592694198488097,1.701893130846793,-2.8423624600878523,-2.106167290641531
0.019611625506956026,1.7223909129288208,-2.863424132994268,-2.049209378713316
0.036835534636244234,1.740007610780035,-2.883916226781401,-1.997682697950125
0.054235610744044586,1.754204742993942,-2.903893053760902,-1.9522245725961453
0.071777658173984,1.7644927076496655,-2.9234152994868636,-1.9134194470253763
0.08942258525048066,1.7704472774197433,-2.9425494939571175,-1.8817746275533367
0.10712705802467809,1.7717244872739593,-2.9613672402326507,-1.8576982382012837
0.12484430289741769,1.7680729068256253,-2.9799442226146637,-1.8414809156947256
0.14252503196567395,1.7593424461142049,-2.998359031771611,-1.8332825509348671
0.160118456426816,1.7454890880305207,-3.01669185728096,-1.8331250250320654
0.1775733473071212,1.7265752454785086,-3.0350231075312806,-1.8408914278160118
0.1948390997619063,1.7027657717420168,-3.053432021809441,-1.8563317396410466
0.21186675747932648,1.674319971337724,-3.071995339205851,-1.8790744624236653
0.22860995719270372,1.641580232348377,-3.090786083830088,-1.9086432580896602
0.2450257595161875,1.6049581042020382,-3.1098725164109844,-1.944477334908262
0.26107534055820786,1.5649187619833143,-3.129317289760067,-1.985954140487546
0.276724528178041,1.5219648258430083,-3.1491768311649424,-2.0324128815630713
0.2919441764364711,1.4766204486030023,-3.169500959980573,-2.0831774844341298
0.3067103809225011,1.4294164613127598,-3.1903327348249144,-2.1375778110369485
0.3210045455356287,1.3808771958834343,-3.211708512935284,-2.194968220040666
0.334813317494463,1.3315094088653345,-3.2336581951356904,-2.2547428723327543
0.34812841158311636,1.2817935329860766,-3.256205623859018,-2.3163474899935554
0.3609463469129771,1.232177301894238,-3.2793690987589534,-2.379287557650885
0.3732681199319195,1.1830716422314593,-3.3031619743354623,-2.443133184101592
0.3850988363542341,1.1348486134502167,-3.327593306176478,-2.507521009208961
0.39644732248873626,1.087841101887306,-3.352668516268568,-2.57215364436742
0.4073257335076093,1.0423439390548366,-3.378390052712242,-2.636797179589841
0.41774917289815766,0.9986161092470781,-3.4047580245081406,-2.7012772866944834
0.42773533399062846,0.9568837309662145,-3.4317707973750853,-2.7654744086903666
0.4373041713002906,0.9173435325170587,-3.459425541461989,-2.8293184630522124
0.44647760662546115,0.8801665871860768,-3.487718726092511,-2.8927834125907963
0.4552792724973219,0.845502121711664,-3.516646560218419,-2.955881981293496
0.4637342937144386,0.8134812587856501,-3.546205380031354,-3.0186607205200593
0.47186910630229506,0.7842205971202378,-3.5763919872365544,-3.0811955675359477
0.47971131227349745,0.7578255695100757,-3.607203942911914,-3.143587985723747
0.4872895679685982,0.7343935497004981,-3.6386398227691514,-3.2059617345204066
0.49463350346560314,0.7140167028719234,-3.6706994401143556,-3.2684602866834185
0.5017736704943224,0.6967845927737315,-3.70338404298119,-3.3312448897382567
0.5087415164220598,0.6827865718467595,-3.7366964918785723,-3.3944932559394267
0.5155693821405274,0.6721139900037922,-3.7706414244379665,-3.4583988592621107
0.5222905220405654,0.6648622640019409,-3.8052254130305876,-3.523170817396341
0.5289391446805848,0.6611328533431334,-3.840457121204551,-3.589034340179493
0.5355504732140162,0.6610351910306641,-3.876347464606346,-3.656231732309876
0.5421608251243228,0.6646886187600671,-3.9129097819294447,-3.7250239466420916
0.5488077113119235,0.6722243764891461,-3.9501600213958654,-3.7956926940956164
0.555529955076815,0.6837876958184295,-3.9881169483368217,-3.8685431264510983
0.5623678320349993,0.6995400448954464,-4.026802379601333,-3.943907118176067
0.5693632324839537,0.7196615688529491,-4.066241450783093,-4.022147181681393
0.5765598481724832,0.7443537626438713,-4.106462922599907,-4.103661055154803
0.5840033857989219,0.773842400038953,-4.147499533151455,-4.188887000243252
0.5917418097993113,0.8083807193445633,-4.189388403153888,-4.278309833221811
0.5998256169927569,0.8482528262596217,-4.232171501486106,-4.372467679357415
0.6083081452553531,0.8937772061110837,-4.27589617827968,-4.471959371797697
0.6172459173164639,0.9453101234179071,-4.320615771997657,-4.577452290076281
0.626699018550643,1.00324849697109,-4.3663902948984195,-4.689690210598896
0.6367315035203539,1.0680315257301631,-4.413287197004409,-4.809500358727516
0.6474118187776555,1.1401398277415606,-4.461382200591684,-4.937798205310399
0.6588132170550711,1.2200900171672653,-4.5107601826447885,-5.075587470825769
0.6710141172267438,1.308421287212179,-4.561516057353046,-5.2239510173161445
0.6840983300988656,1.4056683863350796,-4.613755567526208,-5.384025399847461
0.6981550139622164,1.5123119257904594,-4.667595821524682,-5.556947186040983
0.7132781332201209,1.6286916427361253,-4.723165293385092,-5.743751877953229
0.7295650496474821,1.7548604391201088,-4.7806028121646245,-5.945195448001264
0.7471136540386832,1.8903465706840457,-4.840054766644637,-6.161453777207961
0.7660171197455237,2.0337800880532475,-4.901669304416717,-6.39163891113488
0.7863549206260562,2.182334973881837,-4.965585693528066,-6.633062897083223
0.8081782703648746,2.330960778791447,-5.0319163224988985,-6.880207686826834
0.831487878152789,2.471470341837696,-5.1007183993671665,-7.123482723607375
0.856202581571166,2.5917784296016104,-5.17195322660324,-7.348160551829316
0.8821203658671821,2.6759751646457866,-5.245434832121534,-7.534412147336686
0.90888011751364,2.7062582704547924,-5.320778953594901,-7.6598325504793445
0.9359427002181879,2.667365455279031,-5.397377279099694,-7.7053295281508225
0.9626163547709783,2.5523271564161583,-5.474430574381202,-7.662764057798897
0.9881396263351399,2.366051530075197,-5.551058214959191,-7.5396012967683514
1.011800141635892,2.1236465423916315,-5.6264542279268746,-7.356429285760301
1.0330366070598083,1.8444797275748173,-5.700018520784478,-7.138829447645953
1.0514814043355565,1.546207656334762,-5.771406815260938,-6.9094060084271405
1.066943480898904,1.2417529408011907,-5.840500875345209,-6.683933815514691
1.079361010306916,0.9391247379193335,-5.9073402135003565,-6.471349665608398
1.0887522576861093,0.6425849657680585,-5.97205371015644,-6.275482970715127
1.0951781073437898,0.35399010534066555,-6.034808539863591,-6.096939022281672
1.0987180083971966,0.07383312628934968,-6.095777930086408,-5.934520495231744
1.09945633966009,-0.1980739395212195,-6.155123135038726,-5.786135710741698
1.0974756002648778,-0.46219408601458795,-6.212984492146143,-5.649324485467102
1.092853659404732,-0.7190401763352461,-6.269477737000814,-5.5215413374994595
1.0856632576413796,-0.969058694375561,-6.324693150375809,-5.400297763977903
1.075972670697624,-1.2125762961322808,-6.378696128015588,-5.2832276309685735
1.0638469077363013,-1.4497817151130947,-6.431528404325274,-5.1681131365907635
1.0493490905851703,-1.6807273558790408,-6.483209535691182,-5.052892277725111
1.03254181702638,-1.9053418575941146,-6.533738458468433,-4.935659062282828
1.0134883984504388,-2.1234488429490423,-6.583095049091261,-4.814662194192395
0.9922539100209484,-2.3347892216083483,-6.631241671033185,-4.688304859026766
0.968906017804865,-2.5390455506829612,-6.678124719623453,-4.5551465018142645
0.9435155622980353,-2.7358675152127727,-6.7236761846415956,-4.413906514772237
0.9161568871459076,-2.9248978392606118,-6.767815249789318,-4.263469209474418
0.8869079087533015,-3.1057980243798844,-6.810449941884062,-4.102889156046387
0.8558499285095027,-3.2782733261920938,-6.851478833444525,-3.93139583672164
0.8230671952475818,-3.442096374940214,-6.890792791811742,-3.748396533330064
0.7886462314981796,-3.5971288539979125,-6.928276757145042,-3.553476422180771
0.7526749429582005,-3.7433406895335994,-6.96381152136685,-3.3463949702754436
0.7152415360628644,-3.880826283489352,-6.997275471069604,-3.1270779026065765
0.676433273227971,-4.009817442230521,-7.02854625009567,-2.8956042303567093
0.6363350988056657,-4.1306928103691725,-7.057502292399237,-2.6521880814934056
0.595028170701974,-4.243983804171209,-7.08402417321417,-2.3971553441283966
0.5525883326602619,-4.350377238093156,-7.107995726655455,-2.1309154037489066
0.5090845602793304,-4.450715033800004,-7.129304880692944,-1.8539285138717783
0.4645774099413303,-4.54599157179308,-7.147844165831661,-1.5666695763070702
0.4191174942233995,-4.637349364760516,-7.163510861594732,-1.2695893225348434
0.3727440005757943,-4.726073764525313,-7.176206754820081,-0.9630741001724268
0.3254832629305412,-4.813587313160495,-7.185837495821805,-0.6474057267202171
0.27734738979893625,-4.901444040699086,-7.192311553089008,-0.3227232744697238
0.2283329493919454,-4.991323377673903,-7.195538785833705,0.011010626210680052
0.17841971561520636,-5.085022186335489,-7.195428679571598,0.35403502188153635
0.12756949375185148,-5.184441364563499,-7.191888329352783,0.7068009441623275
0.07572508010621648,-5.291559926219098,-7.18482031991116,1.0699557378513858
0.022809480844025495,-5.40838337171743,-7.174120762532646,1.4442822126629762
-0.0312743528731488,-5.536842862542765,-7.1596779404060165,1.8305593693197681
-0.08664278149857646,-5.678604783970985,-7.141372346712819,2.2292881247917555
-0.14342882933828632,-5.834724046332923,-7.1190794654649014,2.640189219682474
-0.20177606980161555,-6.005038737099734,-7.092677573268077,3.0613313129707356
-0.2618264571726129,-6.187169972218696,-7.062064260138369,3.487701795159407
-0.32369815689479986,-6.375006272416638,-7.027187242186775,3.909058392424356
-0.38744821961896625,-6.556745486572357,-6.988096658262531,4.307178687375928
-0.4530156744846898,-6.713179898719793,-6.945024871388772,4.653496168704807
-0.5201474734718877,-6.818096112632268,-6.898489909701723,4.909788606276922
-0.5883284345982104,-6.8436349838780295,-6.849392023638954,5.035946682598943
-0.6567647844369907,-6.771486464139943,-6.799032556812964,5.0060264702612525
