th1 (rad),w1 (rad/s),th2 (rad),w2 (rad/s),a1 (rad/s^2),a2 (rad/s^2)
3.3794555483081354,1.3170643717158843,0.1649065135443195,-0.9633870787731913,2.939711363268603,1.1966800433493012
3.3926261920252943,1.3464614853485704,0.1552726427565876,-0.9514202783396983,3.2444594224453533,1.5406845993871372
3.40609080687878,1.378906079573024,0.1457584399731906,-0.936013432345827,3.5410121784611532,1.8674594022436217
3.4198798676745104,1.4143162013576354,0.13639830564973232,-0.9173388383233908,3.827561766342136,2.1736671366386675
3.434023029688087,1.4525918190210567,0.12722491726649843,-0.8956021669570041,4.10245776599129,2.4561538775384117
3.4485489478782974,1.4936163966809697,0.11826889559692838,-0.87104062818162,4.364243260423883,2.712001019583817
3.463485111845107,1.5372588292852085,0.10955848931511218,-0.8439206179857818,4.611683215728961,2.938568004933527
3.478857700137959,1.583375661442498,0.10111928313525437,-0.8145349379364465,4.843784280407449,3.1335244831948015
3.494691456752384,1.6318135042465727,0.0929739337558899,-0.7831996931044984,5.059805671970759,3.2948712344082867
3.5110095917948496,1.6824115609662802,0.08514193682484492,-0.7502509807604156,5.259261381028386,3.4209498854938456
3.5278337074045125,1.735004174776564,0.07763942701724076,-0.7160414819054772,5.441914429301871,3.5104420907768557
3.545183749152278,1.7894233190695827,0.07047901219818599,-0.6809370609977087,5.607764329870064,3.562359378234328
3.563077982342974,1.8455009623682834,0.0636696415882089,-0.6453134672153654,5.757029190795133,3.576025251022451
3.5815329919666565,1.9030712542762347,0.057216506916055246,-0.6095532147051409,5.890124067132813,3.5510513626839337
3.600563704509419,1.9619724949475628,0.05112097476900384,-0.5740427010783016,6.007637204982582,3.4873096553085343
3.6201834294588946,2.0220488669973884,0.04538054775822083,-0.5391696045252162,6.110305749622538,3.384902278172542
3.6404039181288685,2.0831519244936136,0.03998885171296866,-0.5053205817434908,6.198992330423778,3.2441309153859073
3.6612354373738047,2.145141847797851,0.03493564589553375,-0.47287927258963175,6.274663714454722,3.0654668756546273
3.682686855851783,2.2078884849423983,0.030206853169637435,-0.4422246038330855,6.338372465106411,2.8495229674443165
3.704765740701207,2.2712722095934623,0.025784607131306578,-0.4137293741586423,6.391242275985757,2.597027828425755
3.7274784627971416,2.33518463235332,0.021647313389720153,-0.38775909587438473,6.4344573939448875,2.3088030244007602
3.750830309120675,2.399529206292769,0.017769722430976305,-0.3646710656303771,6.469256313776365,1.9857428995449153
3.7748256011836028,2.4642217694305324,0.014123011774672534,-0.3448136366349279,6.496929731272266,1.6287968604103489
3.799467818877908,2.529191066743255,0.010674875408323254,-0.32852566803082445,6.518822587197503,1.2389535188550103
3.824759729545341,2.59437929261523,0.00738961872801501,-0.3161361328422743,6.536339925072772,0.8172259074079167
3.850703522471493,2.6597426918659575,0.004228257399592266,-0.3079638737681952,6.550956220987169,0.3646368143981273
3.8773009493901527,2.725252254075829,0.0011486186619103144,-0.3043175056242139,6.564227823138116,-0.11779683739923193
3.904553471930911,2.79089453230721,-0.0018945563943318245,-0.3054954739982062,6.577808161153534,-0.6290817306917332
3.9324624172539835,2.8566726139187453,-0.004949511134313887,-0.31178629130512353,6.593465449439396,-1.1682692288548047
3.961029143393171,2.9226072684131394,-0.008067374047365121,-0.3234689835936716,6.61310271446671,-1.7344810343513002
3.9902552160773026,2.9887382955578063,-0.011302063883301837,-0.3408137939371846,6.6387801237331425,-2.326940696009098
4.020142599032881,3.0551260967951377,-0.014710201822673684,-0.3640832008972756,6.672739785998663,-2.945012246528527
4.050693860000832,3.121853494655124,-0.01835103383164644,-0.39353332336256086,6.717433431606305,-3.588247279910941
4.081912394947383,3.189027828971187,-0.022286367065272046,-0.42941579616167025,6.77555367320958,-4.256441837285014
4.113802673237095,3.2567833657032828,-0.02658052502688875,-0.4719802145345204,6.850069898004236,-4.949704580912428
4.146370506894128,3.3252840646833253,-0.03130032717223395,-0.5214772603436446,6.944270262140866,-5.668537926890815
4.179623347540961,3.394726767304734,-0.0365150997756704,-0.5781626396125528,7.061811759248338,-6.41393410957846
4.213570615214008,3.4653448848972173,-0.042296726171795924,-0.6423019807083373,7.2067809350583065,-7.187488603114156
4.24822406406298,3.5374126942478004,-0.0487197459788793,-0.7141768667394789,7.383768541268352,-7.991533971180668
4.283598191005458,3.611250379660484,-0.05586151464627409,-0.7940922064512855,7.5979622918499885,-8.829298103089569
4.319710694802063,3.6872300025789837,-0.06380243671078695,-0.8823851874821812,7.8552629363343645,-9.705091970435163
4.3565829948278525,3.7657826319423275,-0.07262628858560877,-0.9794361071865328,8.162430129555508,-10.624533543504784
4.394240821147275,3.8474069332378824,-0.0824206496574741,-1.0856814426215806,8.527266076418707,-11.594816351701493
4.432714890479654,3.9326795940020696,-0.0932774640836899,-1.2016296061385956,8.95884664497081,-12.625033299068011
4.472041686419675,4.022268060451777,-0.10529376014507587,-1.3278799391292757,9.467811455341554,-13.726568540307287
4.512264367024192,4.116946175005193,-0.11857255953636862,-1.4651456245323486,10.06672603054684,-14.913571937696641
4.553433828774244,4.217613435310661,-0.1332240157816921,-1.614281343909315,10.770529632303472,-16.20353061630277
4.595609963127351,4.325318731633696,-0.14936682922078526,-1.7763166500723429,11.597080113360374,-17.617947752810394
4.6388631504436875,4.4412895327673,-0.1671299957215087,-1.9524961276004469,12.56779818048341,-19.183124401299
4.68327604577136,4.566967514572134,-0.18665495699751317,-2.144327371613437,13.708389886403062,-20.93100435885991
4.728945720917082,4.704051413436165,-0.20809823071364753,-2.3536374152020363,15.049571374429915,-22.89996111118972
4.775986235051444,4.8545471271804645,-0.2316346048656679,-2.5826370263139333,16.627599644942315,-25.13523112613791
4.824531706323248,5.020823123629888,-0.2574609751288072,-2.8339893375753125,18.484156938481906,-27.688329497628427
4.874739937559547,5.205664693014707,-0.2858008685045603,-3.1108726325515965,20.6646002954481,-30.61401918927466
4.926796584489694,5.412310695969188,-0.3169095948300763,-3.417012824444343,23.212483149981733,-33.961837644892356
4.980919691449386,5.644435527469005,-0.35107972307451973,-3.756631200893267,26.156027222187063,-37.75603524418863
5.0373640467240755,5.905995799690876,-0.3886460350834524,-4.134191553335153,29.477908271605862,-41.95170309984261
5.096424004720984,6.200774882406935,-0.42998795061680395,-4.553708584333579,33.05209605617934,-46.34416679009722
5.158431753545054,6.531295842968729,-0.47552503646013977,-5.0171502522345515,36.52095249017873,-50.394018739894776
5.223744711974741,6.896505367870516,-0.5256965389824853,-5.521090439633499,39.08302334880779,-52.926648833337524
5.292709765653447,7.287335601358594,-0.5809074433788203,-6.050356927966875,39.21499462529572,-51.740779827760974
5.365583121667033,7.679485547611551,-0.641411012658489,-6.5677647262444845,34.587161797263036,-43.49468628358079
5.442377977143148,8.025357165584182,-0.7070886599209338,-7.002711589080293,22.93621483651367,-24.951845315695483
5.52263154879899,8.25471931394932,-0.7771157758117367,-7.252230042237247,4.639007250759353,3.3621351413088862
5.605178741938483,8.301109386456913,-0.8496380762341093,-7.2186086908241585,-15.015678040297308,33.92414231223231
5.688189835803052,8.15095260605394,-0.9218241631423508,-6.879367267701835,-28.830779442377846,56.44168679930407
5.769699361863592,7.862644811630161,-0.9906178358193691,-6.314950399708795,-34.01309372767785,66.80108550924935
5.848325809979893,7.522513874353383,-1.053767339816457,-5.646939544616301,-32.86126680358578,68.11439450766635
5.923550948723427,7.193901206317525,-1.1102367352626201,-4.9657955995396375,-28.77010698904969,65.11694748629095
5.9954899607866015,6.906200136427028,-1.1598946912580166,-4.314626124676728,-23.92970263579969,60.89718312964284
6.064551962150872,6.666903110069031,-1.2030409525047838,-3.7056542933802996,-19.32558885929399,56.86106099959061
6.131220993251562,6.4736472214760905,-1.2400974954385868,-3.1370436833843933,-15.287135846690731,53.484970212261054
6.195957465466322,6.3207758630091835,-1.2714679322724307,-2.6021939812617827,-11.865865386654601,50.841931675302696
6.259165224096414,6.202117209142638,-1.2974898720850485,-2.093774664508756,-9.017007406829375,48.85640777739424
6.32118639618784,6.111947135074344,-1.318427618730136,-1.6052105867348134,-6.673956426389677,47.41018283120325
6.382305867538583,6.045207570810447,-1.3344797245974842,-1.1311087584227808,-4.775215534591886,46.381854655306945
6.442757943246687,5.997455415464528,-1.345790812181712,-0.6672902118697113,-3.272093135270203,45.65941789286981
6.5027324974013325,5.964734484111826,-1.352463714300409,-0.21069603294101313,-2.1291011912913214,45.14279293139626
6.562379842242451,5.943443472198913,-1.3545706746298192,0.24073189637294945,-1.32183511324906,44.743130553102
6.62181427696444,5.930225121066423,-1.3521633556660897,0.6881632019039694,-0.8341673770498791,44.38153698876879
6.681116528175105,5.921883447295924,-1.34528172364705,1.1319785717916573,-0.6554227909134754,43.988150426962655
6.740335362648064,5.9153292193867895,-1.3339619379291334,1.571860076061284,-0.7777678643271245,43.501799487819866
6.799488654841932,5.907551540743518,-1.3182433371685205,2.0068780709394827,-1.193900878088856,42.870185901532686
6.858564170249367,5.895612531962629,-1.2981745564591256,2.4355799299548098,-1.895090961830372,42.05041739193142
6.917520295568993,5.876661622344326,-1.2738187571595776,2.856084103874124,-2.869607640725676,41.00967983840481
6.976286911792436,5.847965545937069,-1.2452579161208364,3.266180902258172,-4.1015758748180895,39.7258454968287
7.034766567251807,5.806949787188889,-1.2125961070982547,3.663439357226459,-5.5702754878287095,38.18785170052215
7.092836065123696,5.7512470323106015,-1.17596171352599,4.045317874231681,-7.249878884557295,36.39574133585995
7.150348535446802,5.678748243465028,-1.1355085347836733,4.4092752875902805,-9.109593514215977,34.36032039584148
7.207136017881452,5.587652308322869,-1.0914157819077706,4.752878491548695,-11.114153630305958,32.10244584788469
7.263012540964681,5.476510772019809,-1.0438869969922835,5.073902950027541,-13.224595527755069,29.651997675876924
7.317777648684879,5.344264816742259,-0.9931479674920081,5.37042292678631,-15.39925314917315,27.046606510564267
7.371220296852301,5.190272285250527,-0.939443738224145,5.640888991891953,-17.59492313462216,24.330204402555946
7.423123019704806,5.014323053904306,-0.8830348483052254,5.884191035917512,-19.768162631253507,21.551449417630895
7.473266250243849,4.816641427591771,-0.8241929379460503,6.099705530093821,-21.87669117830589,18.762056828506207
7.521432664519767,4.597874515808711,-0.7631958826451121,6.287326098378884,-23.880863924012587,16.01506184025573
7.567411409677854,4.359065876568585,-0.7003226216613232,6.447476716781441,-25.745166542825583,13.363047128204846
7.61100206844354,4.101614211140329,-0.6358478544935088,6.5811071880634895,-27.439657516373504,10.856391871138046
7.652018210554943,3.8272176359765937,-0.5700367826128738,6.6896711067748695,-28.941260283583087,8.54162951407276
7.690290386914709,3.5378050331407627,-0.5031400715451251,6.775087401915597,-30.234796700131145,6.4600274000567754
7.725668437246117,3.235457066139451,-0.4353891975259691,6.8396876759161644,-31.313662201220133,4.646511332808409
7.758023007907512,2.9223204441272497,-0.36699232076680743,6.886152789244249,-32.1800743167436,3.1290453353651064
7.7872462123487844,2.6005197009598136,-0.29813079287436495,6.9174432425978996,-32.84487530110521,1.9285416282016639
7.813251409358383,2.2720709479487615,-0.22895636044838596,6.936728658879916,-33.32692672360014,1.0593252633263648
7.83597211883787,1.9388016807127602,-0.15958907385958682,6.94732191151318,-33.65218668180602,0.5301232378341415
7.855360135644998,1.6022798138946999,-0.090115854744455,6.952623143891522,-33.852597882915525,0.34550086555538434
7.871382933783945,1.2637538350655446,-0.02058962330553979,6.956078152547076,-33.964930177618484,0.5076367344576685
7.8840204721346,0.9241045332893598,0.04897115821993098,6.961154519891653,-34.029711899915334,1.0183135056409423
7.893261517467494,0.5838074142902065,0.11858270341884751,6.971337654948062,-34.09035134870163,1.8809993257810511
7.899099591610396,0.24290390080319024,0.18829607996832814,6.990147648205872,-34.192493164052514,3.1028894230654407
7.901528630618428,-0.09902103083733493,0.2581975564503869,7.0211765424365264,-34.383568154733425,4.696744164208396
7.900538420310054,-0.44285671238466917,0.32840932187475214,7.068143984078611,-34.71235839990139,6.6822546377420915
7.896109853186208,-0.7899802963836831,0.39909076171553826,7.1349665304560315,-35.22816206224185,9.086410049960115
7.888210050222371,-1.1422619170061017,0.4704404270200986,7.225830630955633,-35.97869919534314,11.941781625064467
7.8767874310523105,-1.502048908959533,0.5426987333296549,7.345248447206277,-37.00504455090431,15.28048570918158
7.861766941962715,-1.8720993544685762,0.6161512178017177,7.498053304298093,-38.330225822430336,19.11930990053692
7.8430459484180295,-2.2554016126928795,0.6911317508446986,7.689246403303462,-39.93506604897251,23.427198031512585
7.820491932291101,-2.6547522731826048,0.7680242148777332,7.923518383618588,-41.70968108713952,28.058968682160238
7.793944409559275,-3.071849084054,0.8472593987139191,8.20410807044019,-43.362319887766745,32.629429321088885
7.763225918718735,-3.5054722829316676,0.929300479418321,8.53040236365108,-44.266244756116535,36.299857116533495
7.728171195889418,-3.948134730492833,1.0146045030548319,8.893400934816414,-43.26012412200908,37.49571523574451
7.68868984858449,-4.380735971712924,1.103538512402996,9.26835808717386,-38.564655642154385,33.777555361482236
7.644882488867361,-4.766382528134468,1.1962220932747345,9.606133640788682,-28.300451463610074,22.53556787471269
7.597218663586016,-5.049387042770569,1.2922834296826213,9.831489319535809,-12.188069037749555,3.3173250755027563
7.546724793158311,-5.171267733148064,1.3905983228779795,9.864662570290836,6.470050567774427,-19.447889034202404
7.49501211582683,-5.10656722747032,1.4892449485808879,9.670183679948812,21.88136708572559,-37.95398438349373
7.443946443552127,-4.887753556613064,1.585946785380376,9.290643836113874,30.365936855904078,-47.31553455492405
7.395068907985996,-4.584094188054023,1.6788532237415146,8.817488490564633,32.53773870419002,-48.475598610617155
7.349227966105456,-4.258716801012123,1.7670281086471609,8.332732504458463,31.011816219054676,-45.00899398798192
7.3066407980953345,-3.948598638821576,1.8503554336917456,7.882642564578643,27.981807045624823,-39.840432214984844
7.267154811707119,-3.668780568365328,1.929181859337532,7.484238242428795,24.650277612212328,-34.52275501688619
7.230467006023465,-3.4222777922432046,2.00402424176182,7.139010692259933,21.53025651347827,-29.67960720634108
7.196244228101033,-3.2069752271084218,2.0754143486844194,6.842214620196522,18.786786675811776,-25.478920333398452
7.164174475829949,-3.019107360350304,2.1438364948863846,6.587425416862537,16.436384663450497,-21.902674357955597
7.133983402226446,-2.854743513715799,2.20971074905501,6.368398673282981,14.441379197064306,-18.871243381019358
7.105435967089288,-2.710329721745156,2.2733947357878397,6.179686239472788,12.749984017164698,-16.294315872940153
7.078332669871836,-2.5828298815735087,2.3351915981825675,6.016743080743386,11.311769723425892,-14.089311857978807
7.0525043710561,-2.4697121843392495,2.3953590289900015,5.875849962163598,10.082697314982909,-12.186457199813026
7.0278072492127075,-2.3688852111894203,2.4541175286116377,5.753985390165468,9.0259691941682,-10.528802685284257
7.004118397100814,-2.2786255192477385,2.511657382513292,5.648697363312626,8.111351328714745,-9.070611307110102
6.981332141908336,-2.197512005960591,2.5681443561464183,5.557991250241525,7.31405076791837,-7.775460432712154
6.95935702184873,-2.1243714982814073,2.6237242686488336,5.480236645914403,6.613563891707407,-6.6145437761894215
6.938113306865915,-2.0582358593643333,2.6785266351079775,5.414091208152509,5.992631871302588,-5.565311939886491
6.9175309482722716,-1.9983095406513074,2.7326675471895028,5.358438088753645,5.436328394382267,-4.610458856592977
6.897547852865759,-1.9439462567074848,2.7862519280770393,5.312333500187715,4.9312653442549825,-3.7372163267045795
6.878108390298684,-1.894633603264935,2.8393752630789164,5.274961336920669,4.46489466318929,-2.9369047317332146
6.859162054266035,-1.849984656633042,2.892124876448123,5.245592289603337,4.024893098191386,-2.2046802316791
6.840662207699705,-1.8097357256511282,2.9445807993441564,5.223545487286546,3.5986356091997855,-1.5394052866772092
6.822564850443193,-1.7737493695591302,2.996816254217022,5.208151434419774,3.172791922041638,-0.9435438210865577
6.804827356747602,-1.742021450338714,3.0488977685612197,5.198715996208908,2.7331184196986853,-0.4229427030387505
6.787407142244215,-1.7146902661417271,3.1008849285233087,5.194486569178521,2.264560145341114,0.01368790595853881
6.7702602395827975,-1.692044664688316,3.152829794215094,5.194623448238106,1.7518126493655166,0.3558246290364996
6.753339792935915,-1.6745265381946608,3.204776028697475,5.198181694528471,1.180495136723504,0.5929403215375797
6.736594527553968,-1.6627215868274257,3.2567578456427597,5.204111097743847,0.5390156642856276,0.7172054817581901
6.719967311685694,-1.6573314301845694,3.308798956620198,5.211283152561429,-0.17897461054371838,0.7269656437957267
6.703393997383848,-1.6591211762900067,3.3609117881458124,5.2185528089993864,-0.9719466710656953,0.6304645094517729
6.686802785620948,-1.6688406430006637,3.413097316235806,5.224857454093904,-1.8284411805253735,0.4488001801244879
6.670114379190942,-1.6871250548059173,3.465345890776745,5.229345455895149,-2.7265783151410083,0.21680250026525677
6.653243128642883,-1.7143908379573274,3.5176393453356964,5.231513480897801,-3.6359447546226202,-0.019263979092832312
6.63609922026331,-1.7507502855035535,3.5699544801446743,5.231320841106873,-4.521993843702713,-0.20735565017429167
6.6185917174082745,-1.7959702239405806,3.622267688555743,5.2292472846051306,-5.352087413891841,-0.2974925312712879
6.600632015168869,-1.849491098079499,3.674560161401794,5.226272359292418,-6.101486144454582,-0.24951224599301286
6.582137104188074,-1.9105059595240448,3.7268228849947183,5.223777236832488,-6.757493557497824,-0.03832709527824129
6.563032044592833,-1.978080895099023,3.779060657363043,5.223393965879706,-7.320697560510891,0.34472629886799394
6.543251235641843,-2.0512878707041318,3.83129459702184,5.226841228868386,-7.803406629207309,0.8943075681223405
6.522738356934801,-2.1293219369962046,3.883563009310524,5.235784304549609,-8.226300569108268,1.595898040019373
6.501445137564839,-2.211584942687287,3.9359208523560203,5.251743284949803,-8.614617319952448,2.431278487723891
6.479329288137966,-2.2977311158868114,3.9884382852055182,5.276056069827042,-8.994927499827995,3.3832858511843824
6.456351976979097,-2.3876803908850914,4.041198845903788,5.309888928338886,-9.393025368575687,4.439189605547662
6.432475173070246,-2.481610644570848,4.094297735187177,5.354280824394363,-9.832994990847942,5.592666576920659
6.407659066624538,-2.5799405944793277,4.147840543431121,5.410207490163569,-10.33723846509746,6.844724835581965
6.381859660679744,-2.683312979130302,4.201942618332756,5.4786547385193884,-10.927174870690587,8.204043041398542
6.355026530888441,-2.792584727837208,4.2567291657179505,5.560695168933374,-11.624361882830543,9.687151164141397
6.32710068361007,-2.9088283466655134,4.312336117407284,5.657566680574788,-12.45188353799506,11.318781143214833
6.298012400143414,-3.033347182045464,4.368911784213032,5.770754492006936,-13.435940239060782,13.132623328639184
6.26767892832296,-3.167706584436072,4.426619329133102,5.902080725293327,-14.607648506264088,15.172659335651126
