th1 (rad),w1 (rad/s),th2 (rad),w2 (rad/s)
2.317179908947343,2.9605509726897186,6.205473856235899,1.4091241777669954
2.3467854186742403,2.886575714873213,6.219565098013568,1.4219721450959544
2.3756511758229726,2.8123393945346664,6.233784819464527,1.4285818900093918
2.403774569768319,2.7379674024230143,6.248070638364621,1.4292849941389916
2.431154243792549,2.663584968155148,6.262363488306011,1.4244128354189864
2.4577900934741006,2.589314829829592,6.276607616660201,1.4142938810300352
2.4836832417723964,2.515275312321693,6.290750555470502,1.3992513187381315
2.5088359948956134,2.4415787860829585,6.304743068657883,1.3796010405183194
2.533251782756443,2.3683304732539114,6.318539079063067,1.3556499763665224
2.5569350874889825,2.2956275650212215,6.332095578826732,1.3276947642000034
2.5798913631391946,2.223558613099375,6.345372526468732,1.2960207332992024
2.6021269492701884,2.152203158645436,6.358332733801724,1.260901173332515
2.6236489808566428,2.0816315634702667,6.370941745535049,1.222596858082972
2.6444652964913455,2.0119050107628893,6.383167714115879,1.1813557920287188
2.6645843465989745,1.943075645408987,6.394981272036166,1.1374131484296588
2.6840151030530643,1.8751868271206684,6.406355403520462,1.0909913691147397
2.7027669713242712,1.808273472813087,6.417265317211609,1.0423003983918047
2.720849706052402,1.742362467821627,6.427688321195528,0.9915380261278612
2.7382733307306184,1.67747312854996,6.437603701456807,0.9388903178499501
2.755048062016118,1.6136177019079754,6.446992604635306,0.8845321125305553
2.7711842390351977,1.5508018894011044,6.455837925760612,0.8286275714300383
2.7866922579292086,1.4890253859521474,6.464124201474912,0.771330763894525
2.8015825117887303,1.428282425472466,6.471837509113858,0.7127862783044748
2.815865336043455,1.3685623268613918,6.478965371896902,0.6531298484135744
2.8295509593120687,1.3098500355180536,6.485496670381038,0.5924889871033177
2.8426494596672494,1.2521266566196778,6.491421560252071,0.5309836211110447
2.855170726233446,1.1953699773776152,6.496731396463182,0.46872672158132644
2.8671244260072224,1.139554976249889,6.5014186636789955,0.40582492635987066
2.8785199757697213,1.0846543176889327,6.505476912942594,0.3423791508152325
2.8893665189466105,1.0306388314557773,6.508900704450746,0.2784851846567672
2.899672907261168,0.9774779758556932,6.511685556297314,0.2142342727372169
2.9094476870197252,0.9251402844615456,6.513827899024686,0.1497136782037276
2.9186990898643406,0.8735937960043352,6.515325035806723,0.08500722660922615
2.927435027824384,0.8228064671382106,6.516175108072815,0.020195829732786816
2.935663092495766,0.77274656774088,6.5163770663701435,-0.044642012102589126
2.9433905581731747,0.7233830582998944,6.515930646249117,-0.10942973047000516
2.950624388756174,0.6746859487700709,6.514836348944417,-0.17409223340611346
2.9573712482438745,0.626626638076336,6.513095426610356,-0.2385554756483497
2.963637514624638,0.5791782331884741,6.510709871853872,-0.3027460563031943
2.969429296956523,0.5323158464190103,6.5076824112908405,-0.36659084595895647
2.9747524554207128,0.4860168693027645,6.504016502831251,-0.43001664552886876
2.9796126241137406,0.440261221117487,6.499716336375963,-0.49294987938825174
2.9840152363249155,0.3950315698116096,6.4947868375820805,-0.5553163256376334
2.9879655520230317,0.35031352283099776,6.489233674325704,-0.6170408865651673
2.991468687251342,0.3060957850965114,6.483063265460053,-0.6780474025784091
2.994529645102307,0.26237028119421757,6.476282791434269,-0.7382585130083167
2.9971533479142494,0.2191322387172981,6.468900206304186,-0.7975955672373066
2.999344670301422,0.17638022966065148,6.4609242506318125,-0.8559785895482308
3.0011084725980286,0.1341161668334653,6.4523644647363305,-0.9133263009126277
3.0024496342663634,0.09234525243836492,6.443231201727205,-0.969556200616479
3.003373086790747,0.05107587628306807,6.43353563972104,-1.0245847101444845
3.0038838455535775,0.010319461553826154,6.423289792619594,-1.0783273810980094
3.0039870401691156,-0.029909743302792058,6.412506518808614,-1.1306991681011154
3.0036879427360876,-0.06959492726953162,6.401199527127603,-1.1816147666539256
3.002991993463392,-0.10871703377330533,6.389383379461064,-1.2309890147315123
3.0019048231256593,-0.14725513071273857,6.377073489313749,-1.2787373556171844
3.000432271818532,-0.18518683099954356,6.364286115757577,-1.3247763580290577
2.998580403508537,-0.22248875983790367,6.351038352177286,-1.3690242880858723
2.9963555159101576,-0.25913706363667066,6.3373481092964274,-1.4114017261097438
2.993764145273791,-0.2951079541137379,6.32323409203533,-1.451832219736258
2.9908130657326537,-0.33037827986355245,6.308715769837967,-1.4902429633592433
2.987509282934018,-0.3649261164751142,6.293813340204375,-1.5265654926461896
2.9838600217692672,-0.398731365268634,6.278547685277913,-1.560736381788958
2.979872708116581,-0.4317763499225421,6.262940321460023,-1.5926979303685063
2.9755549446173553,-0.46404639974199985,6.247013342156339,-1.6223988262699027
2.9709144806199355,-0.495530408119954,6.230789353893639,-1.649794771031496
2.965959176538736,-0.5262213548942986,6.2142914061833245,-1.6748490543809142
2.960696962989793,-0.5561167818267845,6.197542915639516,-1.697533065513103
2.955135795171525,-0.5852192113203696,6.180567584984384,-1.7178267298935666
2.9492836030583214,-0.6135364997325564,6.163389317685449,-1.7357188619934152
2.9431482380609957,-0.6410821181952886,6.146032129065515,-1.751207426330618
2.9367374168790428,-0.6678753556625225,6.128520054802208,-1.764299701434063
2.9300586633224177,-0.6939414409057388,6.110877057787867,-1.7750123437781835
2.9231192489133604,-0.7193115822860152,6.093126934350085,-1.783371351259994
2.9159261330905,-0.7440229262635862,6.0752932208374855,-1.78941192830617
2.9084859038278643,-0.7681184376759798,6.057399101554424,-1.793178257105006
2.9008047194511044,-0.7916467067419737,6.039467318983374,-1.7947231816629021
2.8928882523836847,-0.8146616894577626,6.021520087166745,-1.7941078133056396
2.884741635489107,-0.8372223894836359,6.003579009033689,-1.7914010678153054
2.8763694115942706,-0.8593924907295403,5.985664998355536,-1.7866791455676423
2.867775486686975,-0.8812399506087868,5.967798206899859,-1.7800249667856856
2.858963087180887,-0.9028365643311649,5.949997957232003,-1.7715275743483028
2.8499347215375757,-0.9242575106569298,5.93228268148852,-1.761281516500424
2.840692146431006,-0.9455808892535835,5.914669866323515,-1.7493862213358873
2.83123633753847,-0.9668872592223731,5.897176004110157,-1.7359453741078839
2.8215674649462463,-0.9882591875343812,5.879816550369077,-1.721066307319539
2.8116848730709023,-1.0097808150860572,5.862605887295882,-1.704859412217246
2.801587064920042,-1.031537446902435,5.84555729317371,-1.6874375788127163
2.7912716904510173,-1.053615171733754,5.828682917385582,-1.668915669955077
2.78073553873368,-1.0761005149550222,5.811993760686032,-1.64941003331575
2.7699745335841297,-1.0990801273300872,5.795499660352874,-1.6290380534831364
2.758983732310829,-1.1226405108770376,5.779209279818042,-1.6079177447296638
2.747757327202059,-1.1468677817975648,5.763130102370746,-1.586167383439446
2.736288649384083,-1.171847469228709,5.747268428536351,-1.5639051776900958
2.724570174691796,-1.1976643474529498,5.73162937675945,-1.541248970077451
2.7125935312172667,-1.2244022981665446,5.716216887058676,-1.5183159685592187
2.7003495082356013,-1.2521441984549952,5.701033727373083,-1.4952224988678402
2.6878280662510514,-1.2809718292520593,5.686081502384405,-1.4720837708936456
2.675018347958531,-1.3109657982547065,5.671360664675468,-1.4490136503519295
2.661908689975984,-1.3422054705182214,5.656870528171949,-1.4261244260048598
2.6484866352708014,-1.3747688992495692,5.6426092839119,-1.4035265616933055
2.6347389462783055,-1.4087327486396695,5.628574018294968,-1.3813284214279358
2.620651618791909,-1.4441721999143575,5.614760734080688,-1.3596359547792898
2.606209896792765,-1.4811608311303848,5.601164374532895,-1.33855232878356
2.5913982884814613,-1.5197704605917808,5.5877788512450595,-1.3181774915418538
2.5762005838755435,-1.5600709431137614,5.574597076329641,-1.2986076516417207
2.560599874444406,-1.6021299077236082,5.561610999813224,-1.2799346564879803
2.54457857536717,-1.64601242477662,5.548811653248344,-1.2622452516263893
2.5281184511194037,-1.691780589906699,5.53618920073208,-1.2456202022262368
2.511200645220337,-1.7394930117639142,5.523732998709818,-1.2301332571244674
2.4938057151026976,-1.789204190168171,5.511431666138573,-1.2158499353158685
2.4759136732010156,-1.8409637711979585,5.4992731667854144,-1.2028261146201507
2.457504035489036,-1.8948156659234594,5.487244905639213,-1.1911064026174978
2.4385558788298014,-1.9507970200921347,5.475333841613038,-1.180722271004316
2.41904790862888,-2.0089370232125425,5.4635266189029945,-1.1716899365033042
2.3989585383967547,-2.069255547312629,5.451809719537962,-1.164007974629326
2.3782659829236286,-2.1317616083502466,5.440169639791669,-1.1576546572677513
2.3569483668401263,-2.196451647027931,5.428593093218991,-1.1525850115056264
2.334983850369847,-2.263307630833861,5.417067243103935,-1.1487276058405727
2.312350774061508,-2.332294985735694,5.4055799670455285,-1.1459810811706448
2.289027824204151,-2.4033603743413114,5.394120156233822,-1.1442104582359325
2.264994220460738,-2.47642934775454,5.382678051651463,-1.1432432708107645
2.2402299269831922,-2.5514039110174713,5.371245618943355,-1.1428655952430609
2.2147158878730173,-2.628160057121018,5.359816962990925,-1.1428180720997603
2.1884342873018072,-2.706545342178858,5.348388782269927,-1.142792044716483
2.1613688338800188,-2.7863765944686207,5.336960861822762,-1.1424259721059378
2.1335050679353325,-2.8674378724341936,5.325536602101702,-1.1413023093094445
2.1048306892109907,-2.949478810937857,5.314123579008608,-1.138945085715286
2.075335901101612,-3.032213520214689,5.302734128151455,-1.1348184492719184
2.045013765899465,-3.1153202268035516,5.291385943658736,-1.128326479191064
2.0138605636314297,-3.1984418682938163,5.280102678866825,-1.1188145979261788
1.9818761449484916,-3.281187871384549,5.268914532887563,-1.1055729299976667
1.9490642662346462,-3.3631373520120187,5.257858803587586,-1.0878419544250655
1.915432892714526,-3.4438439727921075,5.2469803840433356,-1.0648207717364588
1.880994452986605,-3.522842671591637,5.236332176325971,-1.0356782475124815
1.8457660262706885,-3.5996584300575516,5.225975393850846,-0.9995671937821806
1.809769441970113,-3.6738171769141754,5.215979721913024,-0.9556415999578203
1.7730312702009712,-3.7448588134712586,5.206423305913447,-0.9030767218405369
1.7355826820662585,-3.8123522063652393,5.197392538695041,-0.8410915811937949
1.697459160002606,-3.875911817784151,5.188981622883103,-0.7689731280008064
1.6587000418247646,-3.935215445300102,5.181291891603095,-0.686100991798724
1.6193478873717635,-3.990022338762983,5.174430881685108,-0.591971428538036
1.5794476639841337,-4.040190775584889,5.1685111673997275,-0.4862187981439752
1.5390457562282849,-4.085694040181053,5.163648979418288,-0.36863273658385187
1.4981888158264745,-4.126633703482991,5.1599626520524495,-0.23916916707525368
1.4569224787916446,-4.163249166278984,5.157570960381697,-0.09795347062925877
1.4152899871288547,-4.195922636387933,5.156591425675404,0.05472547370473854
1.3733307607649754,-4.225179055756955,5.1571386804124515,0.21843107822412058
1.331078970207406,-4.251680956177095,5.159322991194693,0.39260462984924605
1.288562160645635,-4.27621875317388,5.163249037493185,0.576599845472344
1.2457999731138962,-4.2996975201217,5.169015035947909,0.7697248594445442
1.2028029979126793,-4.323121746644882,5.176712284542354,0.9712895751372899
1.1595717804462304,-4.347579915639735,5.186425180293727,1.1806560736943061
1.116095981289833,-4.3742308965643195,5.19823174103067,1.3972898784583176
1.0723536723241898,-4.40429414928106,5.212204639815254,1.6208103228733182
1.0283107308313792,-4.439045599326547,5.228412743043987,1.8510390115992927
0.9839202748381137,-4.479820847260087,5.24692313315998,2.088046314075476
0.9391220663655129,-4.5280271920392465,5.267803596300735,2.3321968928437644
0.8938417944451205,-4.585165861331825,5.291125565229173,2.584196366641863
0.8479901358318022,-4.652865916260913,5.316967528895591,2.8451422915804137
0.801461476669193,-4.732931573057094,5.3454189518113955,3.1165836920646113
0.754132160938622,-4.827405152679575,5.376584788732042,3.4005943675838317
0.7058581094118263,-4.9386484387174585,5.41059073240788,3.699866054122941
0.6564716250246516,-5.069445613201636,5.4475893929491095,4.0178279117741225
0.6057771688926352,-5.2231304309747735,5.487767672066851,4.358797827990876
0.5535458645828875,-5.4037371260094265,5.53135565034676,4.728166301219795
0.4995084933227932,-5.61616447282063,5.578637313358958,5.132599361610477
0.4433468485945869,-5.866315296688304,5.629963306975062,5.580208991151201
0.3846836956277039,-6.16110546543294,5.685765396886574,6.080544260453028
0.32307264097337446,-6.508071219036079,5.746570839491104,6.644025931709426
0.2579919287830137,-6.913919964030313,5.813011098808198,7.279911217930685
0.18885272914271056,-7.380545088980613,5.885810210987505,7.990721641288803
0.11504727825290444,-7.8955834901547,5.965717427400393,8.759045682412875
0.03609144335135743,-8.413657089549277,6.053307884224521,9.521306674243595
-0.04804512754413534,-8.831231561788716,6.148520950966957,10.132595034664472
-0.1363574431620225,-8.989777536438554,6.249846901313602,10.371174316216653
-0.22625521852640806,-8.77537008027442,6.353558644475768,10.078061375943498
-0.31400891932915226,-8.256964344497959,6.454339258235203,9.350314859586895
-0.39657856277413184,-7.6292071892980315,6.547842406831072,8.460362938490562
-0.47287063466711216,-7.035507045664659,6.632446036215978,7.608728556658126
-0.5432257051237588,-6.525948273131602,6.708533321782559,6.865731585052006
-0.6084851878550748,-6.1022193010460155,6.777190637633079,6.2343024083453145
-0.669507380865535,-5.751593842448769,6.839533661716532,5.697292253366335
-0.7270233192900226,-5.459982806186151,6.896506584250195,5.235611739293776
-0.7816231473518841,-5.2154437687102915,6.948862701643133,4.83311432765117
-0.833777585038987,-5.008581032557516,6.997193844919645,4.477171575715394
-0.8838633953645622,-4.832145501596081,7.041965560676799,4.1581425770077045
-0.932184850380523,-4.680533436699301,7.083546986446875,3.8687046183056353
-0.978990184747516,-4.549361309529245,7.122234032629931,3.6032894073141097
-1.0244837978428085,-4.4351403585017035,7.158266926703073,3.3576568701730203
-1.0688352014278255,-4.3350356479306145,7.191843495404803,3.1285848243947814
-1.1121855579071316,-4.246689232812855,7.2231293436487505,2.9136454073116114
-1.1546524502352602,-4.168090385681237,7.252265797721867,2.7110434119004925
-1.1963333540920726,-4.097480388199026,7.279376231840872,2.5194975538543516
-1.2373081579740628,-4.033283229514568,7.304571207379415,2.338150620883193
-1.2776409902692085,-3.9740563937702165,7.327952713588247,2.166498125053996
-1.3173815542069107,-3.9184578778089,7.349617694838787,2.004327758332815
-1.3565661329849996,-3.8652268310356206,7.369660972422115,1.8516639898049476
-1.395218401295356,-3.8131758988424975,7.388177612320164,1.7087138339252492
-1.4333501602837808,-3.7611935954871183,7.405264750659416,1.575811365726746
-1.470962096238652,-3.708254937968256,7.421022864316684,1.4533600655812267
-1.5080446456183345,-3.6534382542853523,7.435556464972496,1.3417735484004494
-1.544579028161188,-3.5959456708850146,7.448974200456501,1.2414165863154158
-1.5805384848700381,-3.535124432073386,7.461388366319655,1.1525494216618877
-1.615889729190772,-3.4704860501332835,7.4729138605362735,1.0752790181484533
-1.6505945896921048,-3.4017204363126106,7.483666650717758,1.0095209736691853
-1.684611794055231,-3.3287026654419662,7.49376186045445,0.9549752629719231
-1.7178988207096506,-3.251490848520311,7.503311613084169,0.9111178526924097
-1.7504137291948538,-3.1703146217449696,7.512422791611093,0.8772087114323783
-1.7821168754123036,-3.0855548505332426,7.521194878725417,0.8523150815722474
-1.812972423917636,-2.9977161237135985,7.52971802954114,0.8353473687395165
-1.842949585154772,-2.9073943331043695,7.538071503228536,0.8251038807130258
-1.8720235284858155,-2.815242009277954,7.546322542035666,0.820320062343657
-1.9001759485785952,-2.721934095237479,7.554525742659103,0.8197178675090004
-1.92739528953097,-2.6281365287334317,7.562722921334193,0.8220514185526803
-1.9536766548183044,-2.5344794591803135,7.57094343551972,0.8261459865971738
-1.9790214494101075,-2.441536256696234,7.579204895385692,0.8309284037376632
-2.00343681197707,-2.3498087876104097,7.587514179423068,0.835448113510918
-2.026934899853174,-2.259718822562891,7.595868660558177,0.8388890347169644
-2.049532088078803,-2.171604969922627,7.604257550905347,0.8405731610864138
-2.071248137778029,-2.0857242158792975,7.612663282516211,0.8399573047589209
-2.092105379936822,-2.00225700140335,7.6210628555638005,0.8366246213877787
-2.1121279499508554,-1.9213147522698564,7.629429101777678,0.8302725686865404
-2.131341097473554,-1.8429488665882299,7.637731827464544,0.8206988059611576
-2.1497705861394363,-1.767160316678045,7.645938815524155,0.8077863009201243
-2.167442189306217,-1.6939092039823433,7.654016678533356,0.7914886265610013
-2.1843812813460404,-1.6231237895992865,7.661931564798966,0.7718161475940558
-2.2006125192420334,-1.5547086902043719,7.669649726274907,0.7488235409838047
-2.216159606144077,-1.488552069102924,7.677137961684744,0.7225988840815256
-2.2310451268351064,-1.4245317610261452,7.68436395052556,0.6932543815136802
-2.245290444445368,-1.362520347893468,7.691296494340697,0.6609186864216343
-2.2589156479243027,-1.3023892547677527,7.697905681204913,0.6257306966292648
-2.27193954047198,-1.244011965595743,7.704162988171206,0.5878346638764258
-2.2843796601279376,-1.1872664722524897,7.71004133480997,0.5473764362665883
-2.2962523248504625,-1.1320370726605125,7.715515099172636,0.5045006532114147
-2.3075726955770675,-1.0782156283318574,7.720560105704751,0.45934872235329793
-2.318354851860386,-1.025702381717281,7.725153592928284,0.4120574245236765
-2.328611875677559,-0.9744064215508542,7.729274167173521,0.3627580123430766
-2.3383559398930673,-0.9242458715514766,7.7329017472969515,0.311575688261
-2.347598398608582,-0.8751478654199448,7.736017504179562,0.25862936719339896
-2.3563498772627818,-0.8270483596590916,7.738603797851495,0.2040316465984253
-2.3646203608593725,-0.7798918256475372,7.74064411431748,0.1478889224386174
-2.372419279115848,-0.7336308537104126,7.742123003541866,0.09030160290714048
-2.3797555876529524,-0.6882256946172245,7.743026019570937,0.03136438312851641
-2.3866378445991248,-0.6436437578853145,7.743339663402223,-0.028833446534626966
-2.393074282177978,-0.5998590813259126,7.743051328936876,-0.0902076781943511
-2.399072872991237,-0.556851782273752,7.742149252154933,-0.15267886348387832
-2.4046413908139743,-0.5146074977277342,7.740622463520094,-0.21617199813344018
-2.4097874657912515,-0.4731168180472758,7.73846074353876,-0.2806162181271784
-2.414518633971724,-0.4323747167601469,7.735654581357489,-0.3459445081296342
-2.4188423811393256,-0.39237997732321683,7.732195136276192,-0.4120934201207567
-2.4227661809125576,-0.35313461623473735,7.728074202074985,-0.47900279789990446
-2.426297527074905,-0.3146433006385715,7.723284174095985,-0.5466155011921463
-2.4294439600812905,-0.27691275741441673,7.7178180190840635,-0.6148771214141685
-2.432213087655435,-0.23995116965379604,7.711669247869922,-0.6837356796491898
-2.434612599351973,-0.20376755533143254,7.70483189107343,-0.7531412959722901
-2.436650274905287,-0.1683711218587158,7.697300478113707,-0.8230458179047321
-2.438333986123874,-0.13377058902453126,7.68907001993466,-0.8934023944164656
-2.4396716920141195,-0.0999734715748272,7.680135995990495,-0.9641649805120748
-2.440671426729868,-0.06698531135564734,7.670494346185374,-1.035287756014949
-2.4413412798434244,-0.03480884756136318,7.660141468625225,-1.106724440715354
-2.441689368319038,-0.003443112228197924,7.649074224218071,-1.17842748660434
-2.4417237994413203,0.02711756324165642,7.637289949352028,-1.250347126545843
