th1 (rad),w1 (rad/s),th2 (rad),w2 (rad/s)
4.12218075102668,-2.5768358895339354,1.3494015822066308,2.8957100584778943
4.096412392131341,-2.5186377580685626,1.3783586827914096,2.878324766713613
4.071226014550655,-2.465593871800473,1.4071419304585457,2.856561944666946
4.04657007583265,-2.417285019639379,1.4357075499052152,2.83071435988144
4.022397225636257,-2.3732339474151534,1.4640146935040297,2.8011749723388526
3.9986648861621057,-2.3329440004608717,1.4920264432274182,2.768380232969392
3.975335446157497,-2.2959273129796505,1.519710245557112,2.732768635982676
3.9523761730277007,-2.2617233589851193,1.547037931916939,2.694753190813268
3.9297589394378494,-2.2299096089475356,1.5739854638250717,2.6547052265178666
3.907459843348374,-2.200106279679885,1.6005325160902504,2.612946649356918
3.8854587805515752,-2.171977007834402,1.6266619825838196,2.5697480339117567
3.8637390104732314,-2.1452269418393968,1.6523594629229372,2.5253304257874536
3.8422867410548376,-2.119599374575336,1.6776127671808119,2.4798692730302885
3.8210907473090843,-2.0948717036134044,1.7024114599111146,2.433499382814141
3.80014203027295,-2.0708512361822673,1.726746453739256,2.3863201821037436
3.7794335179111274,-2.0473711552445395,1.7506096555602935,2.3384008437068915
3.758959806358682,-2.0242868221964194,1.7739936639973624,2.289785036363876
3.738716938136718,-2.0014724979435248,1.7968915143610011,2.24049518810492
3.7187022131572824,-1.9788185049622051,1.8192964662420503,2.190536234000285
3.6989140281076605,-1.9562288179691592,1.8412018285820533,2.139898867491104
3.6793517399279687,-1.9336190519581544,1.8626008172569644,2.0885623400305486
3.6600155494083872,-1.910914807794818,1.8834864406572698,2.036496864918331
3.640906401330439,-1.888050333244281,1.9038514093064531,1.9836656835786821
3.6220258979979962,-1.8649674585348495,1.92368806614224,1.9300268498314457
3.603376223412648,-1.8416147685834783,1.9429883346405545,1.875534782321199
3.584960075726813,-1.8179469777354054,1.9617436824637666,1.8201416286725682
3.566780605949459,-1.7939244766532694,1.9799450987504923,1.7637984780015143
3.5488413611829266,-1.7695130244726802,1.9975830835305075,1.7064564516187348
3.5311462309382,-1.7446835623497146,2.014647648046695,1.6480676953633575
3.5136993953147027,-1.7194121270065175,2.0311283250003287,1.5885862911172492
3.4965052740446376,-1.6936798448521562,2.0470141879115014,1.5279690997150204
3.4795684755961163,-1.6674729887796678,2.0622938789086516,1.4661765426933777
3.4628937457083198,-1.6407830809061665,2.076955644335585,1.403173326120386
3.446485914899258,-1.6136070254354855,2.090987377596789,1.3389291061217088
3.4303498446449034,-1.585947256593967,2.104376668658006,1.2734190927006135
3.414490372078964,-1.5578118873324518,2.1171108595850123,1.2066245860673503
3.3989122532056393,-1.5292148453090533,2.129177105445686,1.1385334379953465
3.383620104752549,-1.5001759836647415,2.140562439825639,1.069140429751065
3.3686183449159017,-1.4707211553566235,2.1512538441231497,0.998447557937181
3.3539111333623355,-1.4408822413779272,2.1612383197025213,0.9264642201615975
3.339502310948556,-1.4106971250954834,2.170502961904137,0.853207293785258
3.3253953396976015,-1.3802096071672492,2.1790350348419896,0.7787011030594049
3.311593243625929,-1.349469258019918,2.1868220458725838,0.7029772726442641
3.29809855104573,-1.3185312075894922,2.1938518185990263,0.6260744686676238
3.284913238969835,-1.2874558748430056,2.2001125632857024,0.5480380319535325
3.2720386802214048,-1.2563086423693617,2.2055929436052377,0.46891951161575296
3.259475593797711,-1.2251594838989157,2.210282138721395,0.3887761106358747
3.247223998958722,-1.19408255483072,2.2141698998277537,0.3076700580984226
3.235283173410415,-1.163155757571578,2.217246600408738,0.22566792521865517
3.223651615834699,-1.1324602946068338,2.2195032796609246,0.14283990399337837
3.2123270128886308,-1.1020802226518545,2.2209316787008584,0.05925906810465119
3.2013062106621124,-1.0721020209446606,2.221524269381905,-0.02499936445026371
3.1905851904526656,-1.0426141857535853,2.221274275737402,-0.1098587486315782
3.18015904859513,-1.013706861557902,2.220175688251086,-0.19524169312833792
3.170021979979551,-0.985471517226063,2.2182232713198027,-0.28107069091312775
3.1601672648072903,-0.958000673010979,2.2154125644106712,-0.3672686890819421
3.1505872580771803,-0.9313876814709093,2.211739877519852,-0.4537595910018295
3.1412733812624714,-0.9057265626812836,2.207202281609834,-0.5404686873757278
3.1322161156356585,-0.8811118914937731,2.2017975947360764,-0.6273230162555096
3.123404996720721,-0.8576387322722618,2.1955243645735214,-0.7142516550828659
3.1148286093979984,-0.8354026146110893,2.1883818480226926,-0.8011859503425173
3.1064745832518876,-0.8144995421047704,2.1803699885192676,-0.8880596922489252
3.09832958783084,-0.795026025338542,2.1714893915967783,-0.9748092429829454
3.0903793275774545,-0.7770791299161173,2.1617412991669487,-1.0613736273272198
3.0826085362782933,-0.7607565305101949,2.1511275628936763,-1.1476945941457926
3.0750009709731914,-0.7461565625569132,2.1396506169522183,-1.233716656084526
3.067539405347622,-0.7333782642366107,2.127313450391373,-1.3193871132394313
3.060205622705256,-0.7225214026903494,2.1141195792589786,-1.4046560644807946
3.0529804086783527,-0.7136864799033559,2.1000730186141707,-1.4894764077788525
3.045843543879319,-0.7069747152268228,2.085178254536382,-1.5738038284047406
3.038773796727051,-0.7024880029945266,2.069440216252335,-1.6575967714284
3.0317489166971057,-0.7003288450150298,2.052864248538051,-1.7408163926410163
3.0247456282469556,-0.7006002587924837,2.0354560846116407,-1.8234264800121112
3.0177396256590305,-0.7034056630765849,2.0172218198115197,-1.905393336144051
3.0107055690282647,-0.7088487427145735,1.9981678864500791,-1.9866856109736508
3.003617081601119,-0.7170332947490604,1.9783010303403425,-2.06727407322465
2.996446748653628,-0.728063057273539,1.957628289608096,-2.1471313088381443
2.9891661180808926,-0.7420415217451657,1.9361569765197146,-2.2262313347743374
2.981745702863441,-0.7590717283058515,1.9138946631719713,-2.3045491171384636
2.974154985580382,-0.7792560422400314,1.8908491720005867,-2.38205998346963
2.966362425157982,-0.8026959080766073,1.8670285721658904,-2.458738920167531
2.958335466077216,-0.8294915761086032,1.842441182964215,-2.534559747341247
2.95004055031613,-0.8597417943468761,1.8170955854908026,-2.6094941647766072
2.9414431323726613,-0.893543457234413,1.7910006438430366,-2.683510664178147
2.9325076978003173,-0.9309912009138859,1.764165537201255,-2.756573304313484
2.9231977857911784,-0.9721769335478871,1.73659980415812,-2.8286403471618025
2.9134760164556996,-1.0171892882189848,1.7083134006865022,-2.899662754661288
2.90330412357351,-1.066112985362098,1.6793167731398893,-2.9695825472079775
2.892642993719889,-1.1190280915793773,1.6496209476678094,-3.0383310267521666
2.881452712804095,-1.1760091621326567,1.6192376374002877,-3.105826869263247
2.8696926211827685,-1.2371242554780522,1.5881793687076553,-3.171974093603235
2.857321378627988,-1.302433809983367,1.556459627771623,-3.2366599165894607
2.8442970405281542,-1.3719893755391428,1.5240930286057284,-3.2997525073692264
2.8305771467727627,-1.445832196231221,1.4910955035320361,-3.361098658301373
2.8161188248104505,-1.523991644682198,1.4574845169490225,-3.4205213944555797
2.8008789083636287,-1.6064835141851568,1.4232793030044666,-3.4778175496882757
2.784814073221777,-1.693308181430552,1.3885011275075838,-3.532755344083875
2.7678809914074716,-1.7844486605320815,1.353173574066745,-3.585072005357038
2.750036504802151,-1.8798685782238134,1.3173228540131745,-3.63447148552025
2.731237819019913,-1.9795101105153006,1.280978139157972,-3.6806223335660815
2.71144271791476,-2.0832919326756505,1.2441719158223112,-3.723155794821615
2.6906097985880035,-2.1911072470099673,1.2069403578740951,-3.7616642176028514
2.668698726117904,-2.302821966229489,1.1693237156980667,-3.7956998572848093
2.645670506455609,-2.4182731439205214,1.1313667171252186,-3.824774176206666
2.6214877750164036,-2.5372677571793973,1.093118975363152,-3.848357744085398
2.5961150974446094,-2.6595819592620056,1.054635397922298,-3.86588084678912
2.5695192778519895,-2.784960931332076,1.0159765894544068,-3.8767349102481417
2.5416696685386686,-2.9131194712105644,0.9772092403519255,-3.8802748396630244
2.512538473826563,-3.0437434624836586,0.9384064919552952,-3.875822360633285
2.4821010392017264,-3.176492368449726,0.8996482683489624,-3.8626704269909564
2.450336115517229,-3.311002891249932,0.8610215640790528,-3.84008872865622
2.41722608660473,-3.4468939263352465,0.8226206767924906,-3.807330290574394
2.3827571473413776,-3.5837729256069797,0.7845473738867467,-3.763639099856521
2.346919418085308,-3.721243758912174,0.7469109828881815,-3.7082586321476643
2.3097069804961863,-3.8589161333503865,0.7098283965667048,-3.6404410700571357
2.2711178191626824,-3.9964165939671212,0.6734239858661335,-3.559456916976145
2.231153653223011,-4.133401089592299,0.637829416696372,-3.464604610406794
2.1898196423270884,-4.269569046532124,0.6031833705923041,-3.3552196326353325
2.1471239518617673,-4.404678854386369,0.5696311742659508,-3.2306825068519585
2.1030771633179035,-4.538564637554883,0.5373243491974312,-3.0904249583129255
2.057691516942355,-4.671154169434111,0.506420099614302,-2.9339334183554557
2.0109799752480138,-4.802487791483949,0.47708076543074746,-2.760748959979055
1.9629550973331742,-4.932738234667521,0.4494732758309569,-2.570462683210136
1.913627714986499,-5.062231314670869,0.4237686489988556,-2.3627055218793798
1.8630054018397904,-5.191467591921782,0.40014159378006176,-2.1371314252664186
1.8110907259205726,-5.321145256266693,0.37877027952739756,-1.89339288291251
1.7578792733579056,-5.452184710207612,0.35983635069827247,-1.631107816982559
1.7033574262558295,-5.585755565202237,0.3435252725284469,-1.3498169845508081
1.647499870603807,-5.723306986003729,0.33002710268293883,-1.0489312646905575
1.5902668007437697,-5.86660241708282,0.3195377900360333,-0.7276686770428008
1.5316007765729416,-6.0177594930599385,0.31226110326560524,-0.38498196794340395
1.4714231816423422,-6.179294942818531,0.3084112835861712,-0.019479702790039466
1.409630232214157,-6.354171668629917,0.30821648655827083,0.3706517381067576
1.3460885155278577,-6.54583912820702,0.3119230039393384,0.787708494348139
1.2806301242457874,-6.758245029825937,0.3198000888828198,1.2344756607986085
1.213047673947528,-6.995768868767882,0.33214484549080586,1.7141036888960401
1.143089985259849,-7.262971853368481,0.34928588237976627,2.229698385539594
1.0704602667261642,-7.563948129234741,0.37158286623516223,2.7833124832147504
0.9948207854338168,-7.900863265339631,0.39941599106730974,3.3737467942674004
0.9158121527804205,-8.270965343077599,0.43315345900998375,3.992151203402125
0.8331024993496445,-8.661129233495013,0.473074971044005,4.614120351677663
0.7464912070146944,-9.039734035357416,0.5192161745607816,5.188078799087464
0.6560938666611202,-9.349754713717285,0.5710969625516562,5.625626522761516
0.5625963195239474,-9.516149820097798,0.6273532277792714,5.812659603198586
0.46743482132296943,-9.483083447917897,0.6854798238112573,5.663535136749034
0.3726039868437905,-9.261867368443031,0.7421151751787476,5.190983267669196
0.27998531315936015,-8.928695736776575,0.7940250078554395,4.504255595027244
0.1906983557915944,-8.568092680565744,0.8390675638057119,3.7283730287360255
0.10501742898593694,-8.23228184126522,0.8763512940930721,2.9444673248268973
0.022694610573284743,-7.941151560006804,0.905795967341341,2.188005594150594
-0.056716905026783296,-7.696452479663046,0.927676023282847,1.468276860265576
-0.13368142982341374,-7.492475846177388,0.9423587918855028,0.7835871613076009
-0.20860618828518762,-7.321302770017672,0.9501946634985787,0.12897969286120303
-0.28181921598536436,-7.174889363014992,0.9514844604271908,-0.5005386543285999
-0.35356810961551427,-7.0457401446725285,0.9464790738839048,-1.1088520369942456
-0.42402551106223957,-6.9270387339525215,0.9353905535139624,-1.698452840079161
-0.4932958984017648,-6.812605781321633,0.9184060251131708,-2.2704939374803375
-0.5614219562149811,-6.6968287331787275,0.8957010857383675,-2.824964765683177
-0.6283902435467684,-6.574614004488559,0.8674514380815357,-3.3609116216942314
-0.694136383591654,-6.441374011345725,0.8338423218645934,-3.87667398355679
-0.7585501237051112,-6.2930461234154125,0.7950755820290255,-4.370126662736077
-0.8214805849392653,-6.12613436640291,0.7513743154016648,-4.838922237141289
-0.8827419286032945,-5.937762315646349,0.7029850930302519,-5.280727968600507
-0.9421195517597579,-5.725725081444718,0.6501778133442468,-5.693449936407378
-0.9993768025742051,-5.488528890459777,0.593243313980173,-6.075436004935439
-1.054262091478803,-5.225408268183567,0.5324889539308186,-6.42564913458683
-1.1065161741606386,-4.936313102920276,0.4682324625849503,-6.743803629464298
-1.1558793051898415,-4.621860791486797,0.40079442629030737,-7.030459137481593
-1.2020979131047094,-4.283252032190987,0.33048983491549144,-7.2870703760785585
-1.2449304334266191,-3.9221523476085176,0.25761913115470586,-7.515994329611726
-1.2841519569027042,-3.5405447058700115,0.1824591878585886,-7.720460625355561
-1.3195574039614044,-3.1405612494654607,0.105254581605033,-7.904514427464339
-1.350963016456059,-2.724303796511144,0.026209437330389607,-8.072943930767268
-1.3782060544211705,-2.293663338303083,-0.05452000197728307,-8.23120583059314
-1.4011426878042013,-1.850148499844706,-0.13683206028321448,-8.385361424426222
-1.4196441728026483,-1.3947327245491081,-0.2206856745274767,-8.542032514395704
-1.4335915000481394,-0.9277315420729183,-0.3061059996714337,-8.708378588197892
-1.4428688154688687,-0.44872792444229503,-0.3931897855534126,-8.892081646098006
-1.4473560947132917,0.043418509843973385,-0.48211060201439265,-9.101295365665925
-1.446921909614852,0.550402299366374,-0.5731235556710519,-9.34445594607579
-1.4414178866211882,1.0739823660119088,-0.6665681151318098,-9.629733273908824
-1.4306780629610691,1.6148471061067435,-0.762865447870898,-9.963672174354267
-1.4145295919000016,2.170228327101022,-0.8625021696144407,-10.348176688348715
-1.3928273086289913,2.7293118865185724,-0.9659839364979279,-10.774486718970696
-1.3655341897638056,3.265598901238462,-1.073728803687635,-11.212880273190136
-1.332878200751421,3.7278125677937806,-1.1858576064195363,-11.600092621702094
-1.2956000750734833,4.039024075668501,-1.3018585326365573,-11.837475576357015
-1.2552098343167983,4.123379633046478,-1.4202332884001274,-11.826331241135941
-1.2139760379863336,3.961191735545293,-1.5384966008114869,-11.541524900995512
-1.1743641206308806,3.6150459542025595,-1.653911849821442,-11.065466189586477
-1.138213661088855,3.1827874833003507,-1.7645665117173068,-10.524007745739677
-1.1063857862558515,2.7382339904026347,-1.8698065891747035,-10.008295287008
-1.0790034463518252,2.3171206491458918,-1.9698895420447835,-9.558559359691122
-1.0558322398603663,1.9302959694160853,-2.065475135641695,-9.18330387194312
-1.0365292801662054,1.5772524105333443,-2.157308174361126,-8.87762900172065
-1.020756756060872,1.2535160574907942,-2.2460844643783324,-8.63278742713033
-1.008221595485964,0.9538131208604765,-2.3324123386496356,-8.440020447561666
-0.9986834642773591,0.6732213076600808,-2.416812543125252,-8.291777062183577
-0.9919512512007583,0.40749264441633154,-2.499730313747088,-8.181915706905674
-0.987876324756595,0.15306950007798836,-2.5815494708161446,-8.105564617771478
-0.9863456297558152,-0.09299553327186605,-2.6626051169938596,-8.058899237808193
-0.9872755850885339,-0.3331358238602632,-2.7431941093719416,-8.038925941684449
-0.9906069433271365,-0.5693550614746016,-2.823583368788786,-8.043296796657824
-0.9963004939418825,-0.8032919388680584,-2.904016336755364,-8.070156987911988
-1.004333413330563,-1.0362644589265757,-2.9847179066344838,-8.1180192996199
-1.0146960579198288,-1.2692953145687473,-3.0658980996306826,-8.185658593666723
-1.0273890110655162,-1.5031200695541211,-3.14775468556735,-8.27201969912817
-1.0424202117610575,-1.7381795617554687,-3.2304748825586316,-8.37613309074727
-1.059802007378612,-1.9745975736933468,-3.314236213466104,-8.497033722408476
-1.0795479831155455,-2.2121445939449065,-3.399206550690189,-8.633679293909791
-1.1016694290549944,-2.450188551900839,-3.485543343629287,-8.784865117047014
-1.1261713145740029,-2.687633849854538,-3.573391994799757,-8.949133727444114
-1.1530476530725482,-2.922850952864022,-3.6628833320741983,-9.124678618567945
-1.1822761626011884,-3.153600357404437,-3.754130118259878,-9.30924314283864
-1.2138121661752328,-3.376957078345645,-3.847222549688264,-9.500017945336667
-1.2475817369586892,-3.5892449714688897,-3.9422227291416307,-9.693543483735615
-1.283474186673378,-3.7859942384310403,-4.039158163978987,-9.885628401296628
-1.3213341290576885,-3.9619400944379923,-4.138014447991954,-10.071299732566201
-1.3609535300020685,-4.111085122589247,-4.238727445317616,-10.244806704057709
-1.402064381227961,-4.226850896344471,-4.341175512358193,-10.399705086640692
-1.4443328901914056,-4.3023437059324365,-4.4451725632246,-10.529051425423349
-1.48735632725073,-4.330751500381145,-4.550463077478833,-10.625732566234237
-1.5306638422545413,-4.305871157165221,-4.6567204031411755,-10.682941596989375
-1.5737225538261936,-4.222735301491766,-4.763549819111069,-10.694783605552031
-1.6159499068411114,-4.07826896731332,-4.87049765516659,-10.656954685577517
-1.6567325965142445,-3.871868254272594,-4.977067202022365,-10.567394002174865
-1.6954512790569705,-3.6057722651271633,-5.082741142044114,-10.426778137782595
-1.7315090017082422,-3.2851133945821336,-5.187008923421939,-10.2387290174427
-1.7643601356540635,-2.917587242951389,-5.289396213596366,-10.009653137490178
-1.7935360080835774,-2.5127707843862925,-5.389492744971268,-9.748213323467795
-1.8186637159274404,-2.081206015249573,-5.486974878205946,-9.464526913272117
-1.839475776079936,-1.6334211521660382,-5.5816201473386675,-9.16924987996045
-1.8558099876015965,-1.179061774432144,-5.673312646138272,-8.87272024900281
-1.867600605345918,-0.7262547651031129,-5.7620398486283,-8.584296202907609
-1.874863152996949,-0.2812537069224948,-5.847882810657376,-8.311956541940095
-1.877675690066174,0.15165466078754292,-5.931002376076777,-8.062162934658206
-1.8761591434582985,0.5700475823796713,-6.011624005423359,-7.839935919455267
-1.8704586676345019,0.9731468419290297,-6.090023364617911,-7.649076736443414
-1.8607271992152115,1.3615556237764572,-6.166514131982345,-7.49246991484219
-1.8471116429774468,1.7370065313747531,-6.241438831130767,-7.3724173318847335
-1.8297415776636992,2.102155795666581,-6.315163004449615,-7.2909741667553885
-1.8087200197070334,2.4604425012632527,-6.388072746117169,-7.250275063465736
-1.784115594694401,2.81602083360235,-6.460575496751827,-7.252852381366898
-1.7559553863583774,3.1737671647545427,-6.533104020565496,-7.3019569960910395
-1.724217714710832,3.5393598198947234,-6.606123590526406,-7.401895072142551
-1.6888241165118847,3.9194231144394904,-6.6801425412478315,-7.558388476209099
-1.6496298853674898,4.321709608667417,-6.755726426009923,-7.778942014384571
-1.6064127892808155,4.755244532966919,-6.833515846153769,-8.07313017257291
-1.5588603439511464,5.230223422992073,-6.914247147879498,-8.452530142855602
-1.5065581097212257,5.757117915237524,-6.998772449308054,-8.929558891862582
-1.4489869305688505,6.343644271144475,-7.088068038226679,-9.513352815882829
-1.3855504878574059,6.986572690362876,-7.183201566385508,-10.198474421858432
-1.3156847609537772,7.6530344750997825,-7.285186310604092,-10.938940575805775
-1.2391544162027794,8.24858110416567,-7.39457571636215,-11.603579658172048
-1.1566686051611228,8.598638939478697,-7.51061151294387,-11.949638452714414
-1.0706822157663358,8.533254493608041,-7.630107897471015,-11.739866210559025
-0.9853496708302554,8.080056825524817,-7.747506559576605,-11.009696051673318
-0.9045491025750072,7.4624536189833295,-7.857603520093338,-10.063259588615127
-0.8299245663851739,6.868772984429365,-7.958236115979489,-9.15411336700929
-0.7612368365408803,6.367914916796735,-8.049777249649582,-8.37132497755263
