th1 (rad),w1 (rad/s),th2 (rad),w2 (rad/s),a1 (rad/s^2),a2 (rad/s^2)
2.705942524614913,-1.5913637256549962,2.2557272214711865,-1.5134076656081699,-2.881075500334608,-3.893734491251498
2.690028887358363,-1.6201744806583422,2.240593144815105,-1.5523450105206849,-3.118645222237573,-3.733313070518422
2.67382714255178,-1.651360932880718,2.225069694709898,-1.5896781412258691,-3.3609523719355883,-3.564935571162257
2.6573135332229727,-1.6849704566000738,2.2091729132976394,-1.6253274969374918,-3.6081912688252156,-3.387965070281576
2.640463828656972,-1.721052369288326,2.1929196383282643,-1.6592071476403076,-3.8605455242986735,-3.2017468283598074
2.6232533049640887,-1.7596578245313126,2.176327566851861,-1.6912246159239057,-4.118185725188482,-3.0056130898140014
2.6056567267187756,-1.8008396817831973,2.159415320692622,-1.7212807468220457,-4.381267267658644,-2.798888514417542
2.5876483299009436,-1.8446523544597837,2.1422025132244014,-1.749269631966221,-4.649928274686606,-2.5808964871368905
2.5692018063563458,-1.8911516372066497,2.124709816904739,-1.77507859683759,-4.924287502005314,-2.3509666095548476
2.550290289984279,-1.9403945122267028,2.106959030936363,-1.7985882629331384,-5.204442100704844,-2.1084437433335133
2.530886344862012,-1.9924389332337513,2.0889731483070317,-1.8196727003664737,-5.490465057142314,-1.852699058102764
2.5109619555296745,-2.0473435838051746,2.070776421303367,-1.8381996909475014,-5.782402069305192,-1.58314363642093
2.4904885196916227,-2.1051676044982264,2.0523944243938916,-1.8540311273117107,-6.080267539551122,-1.2992453115020757
2.4694368436466405,-2.1659702798937377,2.0338541131207744,-1.8670235804267314,-6.38403926215596,-1.0005495645511233
2.447777140847703,-2.2298106725152973,2.015183877316507,-1.8770290760722428,-6.693651254958124,-0.6867054939465614
2.4254790341225503,-2.2967471850648784,1.9964135865557846,-1.8838961310117084,-7.008984021427957,-0.3574980949712773
2.4025115622719015,-2.366837025279158,1.9775746252456676,-1.8874711119614211,-7.329851326009347,-0.012888363294636105
2.3788431920191098,-2.4401355385392516,1.9586999141260535,-1.8875999955943674,-7.655982314895274,0.3469369359143016
2.3544418366337174,-2.516695361688204,1.93982391417011,-1.8841306262352244,-7.986997510978158,0.7215036051149752
2.3292748830168355,-2.596565336797986,1.9209826079077577,-1.8769155901840746,-8.322376853221428,1.1099737884517202
2.3033092296488555,-2.6797891053302,1.9022134520059168,-1.8658158522995574,-8.661417541473467,1.5110520314450593
2.2765113385955535,-2.766403280744935,1.8835552934829212,-1.8507053319851068,-9.003179004522215,1.9228699866894532
2.248847305788104,-2.856435070790157,1.8650482401630701,-1.8314766321182123,-9.346411870074144,2.342845699577996
2.2202829550802026,-2.949899189490899,1.846733473841888,-1.8080481751224324,-9.689467453409605,2.767513166218784
2.1907839631852934,-3.0467938640249947,1.8286529920906636,-1.7803730434602445,-10.030184124419758,3.1923180039347447
2.1603160245450437,-3.147095705269192,1.8108492616560612,-1.7484498634208971,-10.365747169709463,3.6113759404964476
2.128845067492352,-3.250753176966287,1.7933647630218523,-1.7123361040159326,-10.692519761542734,4.017192908322383
2.096337535722689,-3.3576783745817145,1.776241401981693,-1.6721641749327087,-11.005844853511434,4.400349539465371
2.062760751976872,-3.467736823116829,1.759519760232366,-1.628160679538055,-11.299821895433286,4.749159761128629
2.0280833837457037,-3.580735042071162,1.7432381534369854,-1.5806690819267688,-11.567069013762447,5.049324176620684
1.992276033324992,-3.6964057322087864,1.7274314626177176,-1.5301758401605619,-11.798491621015392,5.283615230091421
1.955311976002904,-3.8143906484189403,1.712129704216112,-1.4773396878596476,-11.983092977217462,5.431653686003854
1.9171680695187148,-3.934221578191115,1.6973563073375155,-1.4230231509996092,-12.107880956118349,5.469864412855658
1.8778258537368036,-4.055300387752299,1.6831260758275195,-1.3683245068710526,-12.157946421277686,5.3717309885332245
1.8372728498592805,-4.176879851965076,1.669442830758809,-1.3146071969857203,-12.116807482043164,5.108495924305211
1.7955040513396299,-4.298047926785507,1.6562967587889517,-1.2635222377426683,-11.967121489490733,4.650462646961152
1.752523572071775,-4.417719141680415,1.643661536411525,-1.2170176112730566,-11.691849274069178,3.9690261875661754
1.7083463806549708,-4.534637634421107,1.6314913602987944,-1.1773273493973948,-11.275897659978405,3.0394676408632524
1.6630000043107598,-4.64739661102089,1.6197180868048204,-1.1469326729887623,-10.708154918951212,1.844375373386954
1.6165260382005509,-4.754478160210403,1.608248760074933,-1.1284889192548928,-9.983674309701565,0.3773109096262225
1.568981256598447,-4.854314903307419,1.596963870882384,-1.1247158101586305,-9.105588368465897,-1.353928037234003
1.5204381075653728,-4.945370786992077,1.5857167127807976,-1.1382550905309705,-8.086221792466604,-3.3252753151000634
1.470984399695452,-5.026233004916743,1.574334161875488,-1.1715078436819713,-6.946901466863151,-5.4963861675787875
1.4207220696462846,-5.095702019585374,1.5626190834386684,-1.2264717053577592,-5.7161963340935475,-7.813097864061817
1.3697650494504308,-5.15286398292631,1.5503543663850907,-1.3046026839983773,-4.426728344375053,-10.212199969522194
1.3182364096211676,-5.197131266370061,1.537308339545107,-1.4067246836935992,-3.1111410265864112,-12.627676318510423
1.266265096957467,-5.228242676635925,1.523241092708171,-1.5330014468787034,-1.7981002292603159,-14.997125123097934
1.2139826701911076,-5.246223678928528,1.5079110782393839,-1.6829726981096829,-0.5091920051823015,-17.267043915715053
1.1615204334018223,-5.2513155989803515,1.491081351258287,-1.8556431372668334,0.742719644640236,-19.396086384700716
1.1090072774120188,-5.243888402533949,1.4725249198856187,-2.0496040011138406,1.9535597729123602,-21.3560500146713
1.0565683933866792,-5.224352804804826,1.4520288798744803,-2.2631645012605537,3.126816241470471,-23.13095073690887
1.004324865338631,-5.193084642390121,1.4293972348618746,-2.494474008629642,4.271518111972568,-24.7148826345852
0.9523940189147297,-5.150369461270396,1.4044524947755783,-2.741622834975494,5.399931101123154,-26.10940711938133
0.9008903243020258,-5.0963701502591645,1.3770362664258233,-3.0027169061693075,6.525360500886672,-27.321053284041383
0.8499266227994341,-5.031116545250298,1.3470090973641302,-3.2759274390097213,7.6602822457433595,-28.35926644147497
0.7996154573469311,-4.954513722792864,1.314249822974033,-3.559520103424471,8.814871884984516,-29.234914346361393
0.7500703201190024,-4.866365003943019,1.2786546219397883,-3.851869246888085,9.995898180724721,-29.95929725012834
0.7014066700795722,-4.766406022135772,1.2401359294709073,-4.151462219389368,11.205892573007178,-30.543513006007693
0.6537426098582145,-4.654347096405701,1.1986213072770135,-4.456897349449445,12.442483174907032,-30.997984181734488
0.6071991388941576,-4.529922264656631,1.154052333782519,-4.76687719126679,13.697775291770743,-31.33193795412765
0.5618999162475913,-4.392944511738923,1.1063835618698512,-5.0801965708080665,14.957656643665734,-31.55262315555041
0.517970471130202,-4.243367945302266,1.0555815961617705,-5.39572280236357,16.200897602714633,-31.664041478146345
0.4755367916771793,-4.0813589692751195,1.0016243681381347,-5.712363217145034,17.39790499678378,-31.66495949036072
0.43472320198442815,-3.9073799193072816,0.9445007359666844,-6.0290128120486415,18.50898164561683,-31.54596400417443
0.39564940279135535,-3.722290102851113,0.884210607846198,-6.344472452090386,19.48196627811847,-31.28535274224353
0.35842650176284424,-3.527470440069928,0.8207658833252941,-6.657325979512821,20.24922714944422,-30.84377391772899
0.32315179736214494,-3.324978168575486,0.7541926235301659,-6.965763718690111,20.72424217282371,-30.157852111223576
0.28990201567639007,-3.1177357468472486,0.6845349863432648,-7.267342239802347,20.79855018740455,-29.133741002263868
0.25872465820791757,-2.9097502449732033,0.6118615639452414,-7.5586796498249855,20.340858278755903,-27.642847384596248
0.22962715575818554,-2.706341662185644,0.5362747674469915,-7.835108123670948,19.2015985664532,-25.523986821276655
0.2025637391363291,-2.5143256765211124,0.45792368621028207,-8.090347991883714,17.227877841102256,-22.598524424187747
0.177420482371118,-2.3420468981100897,0.37702020629144495,-8.316333236125592,14.294179096129994,-18.70585429543251
0.1540000133900171,-2.1991051071487897,0.293856873930189,-8.503391779079918,10.350551380797217,-13.76217201744143
0.1320089623185292,-2.0955995933408174,0.20882295613938984,-8.641013499254331,5.479345909748904,-7.831812621729203
0.11105296638512104,-2.0408061342433284,0.12241282114684653,-8.719331625471623,-0.06464131280873249,-1.1793261787461238
0.09064490504268775,-2.041452547371416,0.035219504892130285,-8.731124887259085,-5.865229227602217,5.742011506305983
0.0702303795689736,-2.1001048396474378,-0.05209174398046057,-8.673704772196025,-11.425608518859468,12.388654358101464
0.049229331172499224,-2.2143609248360323,-0.13882879170242082,-8.54981822861501,-16.293850367630267,18.279429013319245
0.0270857219241389,-2.377299428512335,-0.22432697398857093,-8.367023938481818,-20.17151133976449,23.123321583664364
0.0033127276390155537,-2.5790145419099795,-0.30799721337338914,-8.135790722645174,-22.953556141766963,26.85846494562559
-0.022477417780084243,-2.808550103327649,-0.3893551205998409,-7.867206073188918,-24.696569215532612,29.60248921122685
-0.05056291881336074,-3.0555157954829752,-0.4680271813317301,-7.57118118107665,-25.5518054362805,31.56375042960617
-0.0811180767681905,-3.31103384984578,-0.5437389931424966,-7.255543676780588,-25.702179851774876,32.96315153450787
-0.11422841526664829,-3.568055648363529,-0.6162944299103025,-6.92591216143551,-25.32188086270115,33.988108434443106
-0.14990897175028356,-3.8212744569905404,-0.6855535515246576,-6.586031077091079,-24.55844997599503,34.77604959068502
-0.18812171632018898,-4.06685895675049,-0.7514138622955684,-6.238270581184229,-23.52941226071638,35.415906655271804
-0.2287903058876939,-4.302153079357654,-0.8137965681074106,-5.884111514631511,-22.325730228911326,35.957261299721125
-0.27181183668127046,-4.5254103816467675,-0.8726376832537257,-5.524538901634299,-21.017166234778255,36.420934729234936
-0.3170659404977381,-4.73558204399455,-0.9278830722700687,-5.16032955434195,-19.65718175203915,36.8082089679837
-0.36442176093768364,-4.932153861514942,-0.9794863678134882,-4.792247464662113,-18.286555493534333,37.10781903945307
-0.41374329955283307,-5.115019416450285,-1.0274088424601093,-4.421169274267582,-16.935649638127586,37.30072474940494
-0.4648934937173359,-5.284375912831561,-1.0716205352027852,-4.048162026773532,-15.625530278311277,37.362955258821955
-0.5177372528456515,-5.440631215614674,-1.1121021554705206,-3.674532474185313,-14.368201948399767,37.266855085591445
-0.5721435650017983,-5.584313235098672,-1.1488474802123738,-3.3018639233293987,-13.166189094805686,36.98102712219559
-0.627986697352785,-5.715975126046729,-1.1818661194456679,-2.932053652107443,-12.01166596587534,36.46925595820676
-0.6851464486132522,-5.836091785705483,-1.2111866559667424,-2.5673610925253754,-10.88534693177443,35.68875393242373
-0.7435073664703071,-5.944945255023227,-1.2368602668919961,-2.210473553201138,-9.755439308453639,34.58824480496984
-0.8029568190205394,-6.042499648107763,-1.2589650024240076,-1.8645911051514397,-8.577165009571699,33.106725763316554
-0.8633818155016171,-6.12827129820348,-1.277610913475522,-1.5335238475182742,-7.293692490325837,31.174242845965434
-0.9246645284836519,-6.201208223106739,-1.2929461519507048,-1.2217814190586198,-5.839737192322741,28.716597884515092
-0.9866766107147192,-6.259605595029966,-1.305163966141291,-0.9346154402134689,-4.1493809636390795,25.666271340116094
-1.049272666665019,-6.301099404666357,-1.3145101205434258,-0.677952726812308,-2.1693626724565913,21.981319324414866
-1.1122836607116826,-6.322793031390923,-1.3212896478115488,-0.45813953356815934,0.12249409329664421,17.671588654279706
-1.1755115910255918,-6.321568090457956,-1.3258710431472305,-0.28142364702536227,2.697399865065984,12.826640270830659
-1.2387272719301714,-6.294594091807296,-1.3286852796174842,-0.15315724431705569,5.462244973814288,7.6335180028159595
-1.3016732128482444,-6.239971642069153,-1.3302168520606548,-0.07682206428889608,8.262897076744153,2.369489217894999
-1.364072929268936,-6.157342671301712,-1.3309850727035437,-0.053127172109946094,10.910043004749346,-2.638746371861095
-1.425646355981953,-6.0482422412542185,-1.3315163444246432,-0.07951463582855704,13.222125748492466,-7.081114224090572
-1.4861287783944952,-5.916020983769294,-1.3323114907829288,-0.15032577806946276,15.068324860431481,-10.730083245722723
-1.545288988232188,-5.765337735164979,-1.3338147485636234,-0.25762661052669,16.39293553481495,-13.478584093028413
-1.602942365583838,-5.60140837981683,-1.3363910146688902,-0.3924124514569741,17.21345304311978,-15.338136851954197
-1.6589564493820061,-5.429273849385632,-1.34031513918346,-0.5457938199765161,17.59902350938153,-16.406725844136936
-1.7132491878758624,-5.253283614291817,-1.3457730773832253,-0.7098610784178855,17.64281953180782,-16.826528539574333
-1.7657820240187807,-5.0768554189737385,-1.352871688167404,-0.8781263638136289,17.439279447248577,-16.74810697784051
-1.816550578208518,-4.902462624501252,-1.3616529518055405,-1.045607433592034,17.0705091273256,-16.30798002633092
-1.8655752044535305,-4.731757533227996,-1.3721090261414608,-1.2086872338553432,16.6009696168727,-15.618715479525868
-1.9128927797858104,-4.565747837059269,-1.3841958984800142,-1.3648743886506018,16.077535877470083,-14.767441369341993
-1.9585502581564032,-4.404972478284568,-1.3978446423665203,-1.5125488023440217,15.532151556799834,-13.818694259054872
-2.0025999829392487,-4.24965096271657,-1.4129701303899604,-1.6507357449345703,14.985230589191492,-12.818789460288047
-2.0450964925664143,-4.099798656824656,-1.4294774878393062,-1.7789236395374508,14.448845253162556,-11.800182271479782
-2.086094479134661,-3.9553102042930304,-1.4472667242346806,-1.8969254622522487,13.929332033878392,-10.785173887406863
-2.1256475811775912,-3.8160168839542465,-1.466235978857203,-2.004777201126317,13.42926191842777,-9.78880563170477
-2.1638077500171335,-3.6817242647699686,-1.486283750868466,-2.102665257443365,12.948856258089917,-8.821008214246426
-2.2006249926648334,-3.5522357021890696,-1.5073104034428997,-2.190875339585829,12.486967033106712,-7.888147667758348
-2.236147349686724,-3.4273660318580026,-1.5292191568387579,-2.2697568162634125,12.041734685275564,-6.994114688243179
-2.270421010005304,-3.306948685005247,-1.5519167250013919,-2.339697963145844,11.611016114033662,-6.141082367593512
-2.3034904968553565,-3.1908385238649104,-1.5753137046328503,-2.401108786821779,11.19265303918293,-5.33002945280823
-2.3353988820940055,-3.0789119934730813,-1.599324792501068,-2.4544090813498616,10.784631669860982,-4.561100796258551
-2.3661880020287365,-2.9710656767744714,-1.6238688833145667,-2.500020089312447,10.385169656408506,-3.8338561765370915
-2.3958986587964812,-2.867213980210386,-1.6488690842076912,-2.538358651077818,9.99275529729638,-3.1474432460827466
-2.424570798598585,-2.7672864272374222,-1.6742526707184693,-2.5698330835386454,9.606156133152368,-2.500719191494113
-2.452243662870959,-2.6712248659058986,-1.6999510015538557,-2.5948402754535866,9.224408578669044,-1.8923378009950436
-2.478955911530018,-2.578980780119208,-1.7258994043083915,-2.613763653463537,8.846796452514678,-1.3208131534429428
-2.5047457193312104,-2.490512815594061,-1.7520370408430268,-2.6269717849979664,8.472823658734407,-0.7845673870571352
-2.529650847487151,-2.405784579006717,-1.7783067586930064,-2.634817458868538,8.102184484934188,-0.2819674599779179
-2.553708693277218,-2.324762734157375,-1.8046549332816917,-2.637637133468317,7.734733756503154,0.18864589235201548
-2.576956320618792,-2.2474153965923436,-1.8310313046163749,-2.6357506745447967,7.370458245703138,0.6289349290083411
-2.5994304745847154,-2.1737108141353123,-1.8573888113618229,-2.6294613252547134,7.009450159208427,1.0405460693035522
-2.6211675827260685,-2.103616312543228,-1.88368342461437,-2.6190558645616777,6.651883135809901,1.4250945907921186
-2.642203745851501,-2.037097481185129,-1.909873983259987,-2.6048049186537567,6.297990921904002,1.784152294388655
-2.6625747206633523,-1.9741175719660888,-1.9359220324465245,-2.58696339570987,5.948048718088924,2.1192377506827644
-2.682315896383013,-1.9146370847851997,-1.9617916664036232,-2.5657710182030424,5.6023570794995114,2.4318088445248383
-2.7014622672308652,-1.8586135139902045,-1.9874493765856536,-2.541452929757794,5.2612281871262425,2.72325738936411
-2.720048402370767,-1.806001232118942,-2.0128639058832314,-2.5142203558641527,4.9249742742635165,2.994905607240332
-2.7381084146919568,-1.7567514893763068,-2.038006109441873,-2.4842712997917493,4.593897981968474,3.2480042771530604
-2.7556759295857196,-1.710812509556622,-2.0628488224397907,-2.4517912570202185,4.268284422972409,3.4837323519407084
-2.772784054681286,-1.668129665326898,-2.0873667350099927,-2.4169539335008112,3.9483947495598395,3.7031978371529335
-2.7894653513345546,-1.6286457178312996,-2.111536274345001,-2.379921955129282,3.634461043421114,3.907439718171863
-2.8057518085128677,-1.5923011073970885,-2.1353354938962936,-2.3408475579475634,3.326682371201553,4.097430716266848
-2.8216748195868386,-1.559034283685073,-2.1587439694757693,-2.299873250784895,3.025221875926686,4.274080651767167
-2.8372651624236895,-1.5287820649258062,-2.181742701983618,-2.2571324442672234,2.7302047997639662,4.438240193968078
-2.8525529830729477,-1.5014800169281666,-2.2043140264262906,-2.2127500423275426,2.4417173562604098,4.5907047832160925
-2.8675677832422295,-1.4770628433655624,-2.226441526849566,-2.1668429944953815,2.1598063892765063,4.732218521021811
-2.8823384116758852,-1.4554647794727973,-2.24810995679452,-2.1195208092851634,1.8844797707073124,4.863477838951318
-2.8968930594706133,-1.4366199817657241,-2.2693051648873714,-2.0708860308956503,1.6157074994725362,4.985134776169179
-2.9112592592882707,-1.4204629067709988,-2.290014025196328,-2.0210346831339585,1.3534234701976662,5.097799718381645
-2.9254638883559805,-1.4069286720690222,-2.3102243720276676,-1.970056685950142,1.0975278817750476,5.202043476940796
-2.939533175076671,-1.3959533932512718,-2.329924938887169,-1.918036251180734,0.8478902540560901,5.298398615287726
-2.9534927090091836,-1.3874744907107108,-2.349105301398976,-1.8650522650278567,0.6043530158817068,5.387359959940201
-2.9673674539162906,-1.3814309605518937,-2.367755824049255,-1.8111786654284547,0.3667356201701517,5.469384264063353
-2.9811817635218096,-1.3777636043501922,-2.3858676107035395,-1.7564848227878211,0.13483913251537963,5.54488902254439
-2.9949593995653117,-1.3764152130250384,-2.4034324589314178,-1.7010359325623772,-0.09154877068248952,5.614250467768279
-3.008723551695562,-1.3773307007318634,-2.4204428182570417,-1.6448934278846943,-0.31264846961166504,5.67780080444527
-3.0224968587028807,-1.3804571854279801,-2.4368917525358884,-1.5881154198402416,-0.528682820353468,5.735824769518869
-3.0363014305571605,-1.385744013631515,-2.4527729067342907,-1.530757172145053,-0.7398714237899886,5.7885556291923335
-3.0501588706934757,-1.3931427278694148,-2.4680804784557413,-1.4728716158531296,-0.9464248529341792,5.836170749393162
-3.06409029797217,-1.4026069763987565,-2.4828091946142727,-1.414509908359198,-1.1485389583660497,5.878786898571575
-3.078116367736157,-1.414092365982417,-2.496954293697865,-1.3557220393734823,-1.3463893819994819,5.916455462628468
-3.092257291395981,-1.4275562598024119,-2.5105115140915997,-1.2965574847471977,-1.5401264195165714,5.949157770932235
-3.1065328539940054,-1.4429575239975776,-2.523477088939072,-1.2370659070378753,-1.7298703812647442,5.976800749563143
-3.1209624292339813,-1.4602562278102251,-2.535847748009451,-1.1772978995422438,-1.9157076097944683,5.999213132577025
-3.1355649915120836,-1.4794133039081698,-2.5476207270048734,-1.1173057682164735,-2.0976873188380387,6.016142473284374
