th1 (rad),w1 (rad/s),th2 (rad),w2 (rad/s)
4.4714451102415875,3.0933582534384594,4.31773399058592,-0.5025017492624562
4.502378692775972,3.177460476451623,4.312708973093295,-0.48049515329570386
4.534153297540488,3.258487903857022,4.307904021560337,-0.45075836647397227
4.566738176579058,3.3360186315260587,4.303396437895597,-0.4124031397370093
4.600098362894318,3.4097182948953884,4.299272406498227,-0.3646751035799501
4.634195545843272,3.479349019841639,4.295625655462428,-0.3069737635734955
4.668989036041689,3.5447701066384365,4.292555917826693,-0.23886109487212118
4.704436737108073,3.605930574460539,4.290167306877972,-0.16005872211967936
4.740496042852678,3.662854775620823,4.288566719656775,-0.0704352502358029
4.777124590608886,3.7156230545682836,4.287862367154418,0.030013543227669456
4.8142808211545685,3.7643497546293583,4.288162502586695,0.14118841915761704
4.851924318700862,3.809160775915725,4.289574386778271,0.262911151356535
4.890015926460019,3.8501724742632657,4.292203498291836,0.3949471869908209
4.928517651202651,3.887473122653259,4.296152970161744,0.5370247242311597
4.967392382429184,3.9211075818424592,4.301523217404055,0.6888492817420669
5.006603458247608,3.9510653488597822,4.308411710221476,0.8501135628834504
5.046114111736205,3.9772718187457246,4.31691284585031,1.0205029565388715
5.085886829923663,3.9995824091569623,4.3271178754156985,1.1996973564915283
5.125882654015232,4.017779133955066,4.339114848980614,1.387370152450969
5.166060445354782,4.031569234049137,4.352988550505124,1.5831852949814036
5.2063761376952735,4.040585545385993,4.368820403454938,1.7867933101824411
5.246781993149133,4.044388375424802,4.386688336556762,1.9978270751642933
5.287225876903381,4.042468749376503,4.406666607308405,2.215898087056249
5.327650564397146,4.034252962261032,4.4288255881789675,2.4405938800210243
5.367993094019757,4.019108424748874,4.453231526979177,2.671477171155948
5.408184178267246,3.996350816418124,4.479946298690737,2.908087245789785
5.448147686431427,3.9652525591524914,4.5090271711486345,3.149944020424859
5.487800212022952,3.925052598047664,4.540526611352883,3.3965551405099563
5.527050738003429,3.8749674318944347,4.574492162757982,3.6474263728308984
5.565800412322373,3.814203277431917,4.610966426486291,3.9020754309949655
5.603942445096692,3.74196919224083,4.6499871807962405,4.160049219494609
5.6413621370191,3.6574909366370334,4.6915876729911865,4.420944288154436
5.677937046385471,3.5600253485898796,4.735797115872731,4.684430041768932
5.713537299871369,3.4488750708739064,4.78264141629042,4.950273928817333
5.748026050580108,3.323403654115667,4.832144155578593,5.218367402264182
5.781260087121265,3.1830514322518226,4.884327829601235,5.488750841071045
5.8130906014437835,3.027353229747364,4.9392153380119455,5.761634733089867
5.843364133741257,2.8559600638477125,4.996831685342844,6.03741306312479
5.871923734379735,2.668668775516848,5.057205815974092,6.316662722327634
5.898610422134903,2.465466290018899,5.120372443197368,6.600119385861231
5.923265085035092,2.2465994325060614,5.186373637055981,6.888615005641392
5.9457310793601525,2.0126874695545887,5.2552597871123945,7.1829539362105255
5.965857954055698,1.7649032805874054,5.3270893264745,7.483692882603939
5.983506986861572,1.5052599604386288,5.401926255300539,7.790774365110998
5.998559586465959,1.237049733012812,5.47983399895165,8.102947655362149
6.010930083796087,0.9654813921321748,5.560863475505271,8.416907750489704
6.020584897717408,0.6985262858231819,5.645032553010168,8.726124665689364
6.02757016057564,0.4478623539794393,5.732293799667062,9.019488161709704
6.032048784115434,0.22953620202519256,5.822488681284159,9.280247050888791
6.034344146135687,0.06354327965290205,5.915291151793046,9.486286147726696
6.034979578932216,-0.028766990735210954,6.010154013270314,9.613193627924487
6.034691909024864,-0.029973636246743304,6.106285949549559,9.640825971643215
6.034392172662397,0.06702064023183657,6.2026942092659905,9.561325389128863
6.0350623790647155,0.25537137826460476,6.298307463157279,9.383508020494206
6.037616092847362,0.5165367686767481,6.392142543362221,9.129687996822902
6.042781460534129,0.8269867424820044,6.4834394233304495,8.826961684827213
6.051051327958949,1.1648000981127062,6.571709040178722,8.499008127083343
6.062699328940076,1.5130762885324462,6.656699121449555,8.162247388324438
6.077830091825401,1.8603010300397098,6.738321595332799,7.82592676087376
6.096433102125798,2.199227946285923,6.816580862941537,7.493968302003924
6.118425381588657,2.5255112962966653,6.891520545961576,7.166972115163659
6.1436804945516235,2.836615147904047,6.963190267113212,6.8437490569601325
6.1720466460306636,3.1310864305517345,7.031627757682814,6.522322991834128
6.203357510336181,3.4081192531608604,7.0968509876011545,6.200529808833506
6.23743870286779,3.667314430337871,7.15885628568949,5.876352630591005
6.274111847171168,3.908557906177074,7.2176198119954,5.548095894822637
6.313197426232939,4.1319664715129925,7.273100770943627,5.2144635620715585
6.354517090948069,4.337868287342142,7.325245406564342,4.874580137885943
6.3978957738214906,4.526798524366012,7.3739912079432015,4.52797684918699
6.4431637590651505,4.699498542426924,7.4192709764350715,4.174556074303979
6.4901587444894195,4.856912097634359,7.461016537178112,3.8145422759738365
6.538727865465763,5.000175212480974,7.49916195993785,3.4484253730554575
6.588729617590572,5.130598253943277,7.533646213668405,3.076901570343752
6.640035600130005,5.249639803667213,7.564415229371843,2.7008164988606738
6.692531998166677,5.358872248344517,7.59142339436045,2.321115778886074
6.746120720650122,5.459938729637058,7.614634552149311,1.93880870179768
6.800720107946493,5.55450016757471,7.634022639167288,1.554951682790894
6.85626510962224,5.644169471298758,7.649572155995196,1.170659606770449
6.912706804335228,5.730427747036654,7.661278752062901,0.7871553291051587
6.970011081805595,5.814514380334081,7.669150305353953,0.40587040836470545
7.028156225608935,5.897279713842996,7.6732090094376,0.0286131519332416
7.087129022747365,5.978986888954488,7.673495140956932,-0.3421784460597428
7.1469188916369095,6.059051235276252,7.670073356496335,-0.7030855090062726
7.207509403989672,6.1357174768852785,7.663042501406272,-1.049264051297489
7.268866578758525,6.2057073678615655,7.652549860893297,-1.3739605856199042
7.33092365243714,6.263935771476758,7.6388102550370975,-1.6681346343388284
7.393563010151908,6.303493893465449,7.62212890869371,-1.9204782373438447
7.456597949086563,6.31619434899192,7.602924126320271,-2.118255889292287
7.519759892576482,6.293942025506682,7.581741567427349,-2.2493368172187487
7.582699312831548,6.230863401745078,7.559248199255161,-2.3053075968905095
7.645007946848999,6.125490432685828,7.536195123286256,-2.284634057604606
7.7062628511758575,5.981816299697308,7.51334878271021,-2.1941549060208723
7.766081014172831,5.808421215772861,7.491407233650001,-2.047744214694465
7.824165226330559,5.616071360862074,7.470929791503057,-1.8627256302772897
7.88032593993918,5.41511711810445,7.452302535200284,-1.6559675243549223
7.934477111120224,5.213813390202273,7.435742859956735,-1.4413095864070125
7.986615245022247,5.017812269757553,7.421329764092665,-1.2287123185246056
8.036793367719824,4.830447377733075,7.409042640907419,-1.0245946515167565
8.085097841497154,4.653325146180226,7.398796694392251,-0.8326570531158626
8.131631092958957,4.486911840149621,7.390470123861093,-0.6547286243064232
8.176500211360453,4.330992471185525,7.383922837618028,-0.49144633538006766
8.219810136072308,4.184986892011606,7.379008374264227,-0.34273541294693577
8.261660004992423,4.048150378849471,7.375581020134758,-0.20812439802013258
8.302141508780918,3.919692976875744,7.373499776154557,-0.08694137059164934
8.341338438549675,3.7988460183817447,7.372630362448641,0.021568834727532127
8.379326898733492,3.6848960035048623,7.372846050795916,0.11817750341211447
8.41617585876854,3.577199107303619,7.374027825830037,0.20363564314166405
8.451947849841575,3.4751846315486326,7.376064182261453,0.2786559296717613
8.486699696157062,3.378352458655222,7.378850741558171,0.34390529972334766
8.520483220743614,3.28626750826814,7.382289794555405,0.40000350286491754
8.553345895826295,3.198552934400516,7.386289829584054,0.44752480579960197
8.5853314251703,3.1148830402914336,7.390765077642049,0.48700119983902224
8.616480255573215,3.0349764366146,7.3956350896404395,0.5189261660507081
8.646830019939362,2.95858970464953,7.400824351300947,0.543758476057728
8.676415916985857,2.8855116744621063,7.406261936061524,0.5619257583612621
8.705271033730478,2.8155583433951756,7.4118811936451365,0.573827707473572
8.73342661716443,2.7485684147394425,7.417619470719872,0.5798388972868417
8.760912301311825,2.6843994138740195,7.423417859692741,0.5803112061585854
8.787756295450565,2.622924329633904,7.429220971754327,0.5755758845489639
8.813985538746904,2.5640287263841155,7.434976730599816,0.5659453060770875
8.839625826010744,2.5076082738627155,7.440636183660587,0.5517144452766405
8.864701908749371,2.4535666453345586,7.446153328113353,0.5331621235812202
8.889237575202717,2.4018137388616907,7.451484949349165,0.5105520612329691
8.913255712591335,2.352264180933015,7.456590469961495,0.4841337681145184
8.936778354400666,2.304836075985685,7.46143180764264,0.45414330166487304
8.959826715160522,2.2594499693416106,7.465973240659289,0.4208039154477673
8.982421214853938,2.216027994716382,7.470181279813767,0.38432661779583854
9.004581494801101,2.1744931807272887,7.474024545991726,0.34491065633895435
9.026326426608374,2.1347688937499916,7.4774736525551155,0.3027439411548405
9.047674115545874,2.0967783970795626,7.480501091966664,0.2580034167305977
9.06864189951667,2.060444508674539,7.48308112613397,0.21085539085017788
9.089246344603415,2.02568934183614,7.485189680042472,0.16145582687184618
9.109503238021777,1.9924341150307177,7.486804238311191,0.10995060457555686
9.129427579172084,1.9605990187315887,7.487903744356946,0.05647575378977
9.1490335693594,1.9301031286639814,7.488468501894844,0.0011576643020798569
9.16833460064604,1.900864356209399,7.488480078537865,-0.055886724924109475
9.187343244208133,1.8727994279872648,7.487921211288624,-0.11454975449896121
9.206071238488006,1.8458238878053366,7.486775713743635,-0.17473288872810033
9.22452947736606,1.8198521152787577,7.485028384856354,-0.23634657250815053
9.242727998518848,1.7947973564836073,7.482664919131272,-0.2993100982646032
9.260675972083684,1.770571763058065,7.479671818148626,-0.36355147994606185
9.278381689714264,1.7470864372178627,7.476036303349165,-0.4290073307090767
9.295852554086443,1.7242514812397178,7.471746230042074,-0.4956227404117324
9.31309506889884,1.7019760511170137,7.466790002637956,-0.5633511483624236
9.33011482941001,1.6801684153399608,7.461156491154332,-0.6321542059145311
9.346916513563409,1.658736021136497,7.454834949095187,-0.7020016224201536
9.363503873774773,1.6375855720747114,7.447814932870986,-0.7728709867086195
9.37987972949552,1.616623122723997,7.4400862230039,-0.8447475545790673
9.39604596072276,1.5957541981597916,7.431638747458109,-0.9176239907199857
9.412003502704358,1.574883948543824,7.422462507550909,-0.9915000509087848
9.427752342189796,1.5539173518957,7.412547507041821,-1.0663821872050971
9.443291515708754,1.532759481578856,7.40188368516977,-1.1422830550244878
9.458619110524543,1.5113158590482534,7.3904608546195245,-1.2192208963467006
9.473732269115025,1.489492917146243,7.378268645656058,-1.2972187677515388
9.488627198286489,1.4671986047813763,7.365296457978542,-1.3763035753666135
9.503299184334303,1.4443431702622873,7.351533422224876,-1.4565048710532669
9.517742616036925,1.4208401679314364,7.336968373514344,-1.5378533551903613
9.531951017716239,1.3966077410353044,7.32158983996244,-1.620379021258403
9.545917095126592,1.3715702428569205,7.305386049749856,-1.7041088662284003
9.559632797555162,1.3456602677339558,7.288344961087573,-1.7890640788807537
9.5730894002325,1.3188211731461879,7.270454320298765,-1.8752566062996288
9.586277611963963,1.2910101826606923,7.251701754235769,-1.9626849880593389
9.59918771379057,1.2622021657216929,7.2320749043551755,-2.0513293398630563
9.611809735447787,1.2323941918889418,7.211561610956545,-2.1411453663522075
9.624133677366677,1.2016109510345965,7.190150157293022,-2.2320572904319076
9.636149786877024,1.1699111128830184,7.167829584388703,-2.3239496092317506
9.647848898005854,1.1373946634104077,7.144590088296385,-2.4166576320074484
9.659222844639958,1.104211194848347,7.120423511976311,-2.5099568320387338
9.670264956588442,1.0705690319711345,7.095323943655924,-2.603551163662332
9.680970646908152,1.0367449411472016,7.069288432019301,-2.6970606684404843
9.691338096319624,1.003093982624651,7.042317825334896,-2.790008931185271
9.70136903614587,0.9700588270608936,7.014417736023043,-2.8818112522210204
9.71106962441648,0.9381775692233523,6.985599623500833,-2.9717647713107516
9.720451400108713,0.9080887543974352,6.955881975787725,-3.059042187159835
9.729532287652688,0.8805320271066216,6.925291553916127,-3.1426911130097457
9.738337607923754,0.856342585547868,6.8938646427860295,-3.221641406864741
9.746901033779233,0.8364375760638625,6.861648228717382,-3.294722889918014
9.755265409539872,0.8217928085322119,6.828700999818201,-3.360695566375439
9.763483337625194,0.8134088321724882,6.795094044154447,-3.4182936311065872
9.77161742594692,0.8122665547562488,6.7609111078433815,-3.4662831016937488
9.779740091494482,0.8192741902512247,6.7262482768264436,-3.5035308673440464
9.787932833396994,0.8352092021627743,6.691212968153003,-3.5290805317357252
9.796284925418622,0.8606607203811063,6.655922162835646,-3.542228086040156
9.804891532622433,0.8959791656108883,6.6204998819752445,-3.5425887978118076
9.813851324278541,0.9412400275737461,6.585073993997127,-3.530146370407685
9.823263724554279,0.9962275956286986,6.54977253029305,-3.505276827339711
9.833226000510566,1.060441962940781,6.514719762019653,-3.468742680890475
9.843830420139973,1.133129260996297,6.4800323352107485,-3.4216572027382073
9.855161712749936,1.2133315906559607,6.445815763183367,-3.3654230677607506
9.867295028656496,1.2999503342587968,6.41216153250576,-3.3016532313116826
9.880294531999084,1.3918150830569092,6.379145000192643,-3.232083828544626
9.894212682829654,1.4877505060885805,6.346824161907197,-3.158488871413604
9.90909018789054,1.5866348932793526,6.315239273193061,-3.0826048360413907
9.924956536823332,1.6874463007748504,6.284413224832647,-3.0060705312968485
9.941830999831081,1.7892946021385012,6.254352519519679,-2.930384678210324
9.959723945852467,1.891439807568104,6.225048672737575,-2.856881036107542
9.978638343928148,1.9932984700466163,6.1964798623765,-2.7867190497058107
9.998571328628614,2.0944407851698394,6.168612671879442,-2.720886956462913
10.019515736480313,2.194581200856056,6.141403802314813,-2.660213982189948
10.041461548488874,2.293565152654919,6.114801662492914,-2.605388462986295
10.064397200015422,2.3913541087578527,6.088747777863051,-2.5569792447637005
10.088310741103001,2.488010594199651,6.063177985415414,-2.5154583454675508
10.113190847044997,2.5836843678813906,6.038023401960738,-2.481223492946994
10.139027690723811,2.678600506010277,6.013211167031268,-2.454619701319111
10.165813695783914,2.773049823942921,5.9886649700180765,-2.435959491449819
10.193544194023342,2.8673818455039397,5.964305375103578,-2.425541695955446
10.222218012478383,2.9620003930286027,5.940049958144024,-2.4236690306756574
10.25183801640867,3.0573618066483403,5.915813267837267,-2.430664784130194
10.282411634475153,3.1539757918591422,5.891506619995965,-2.4468890960626597
10.313951392393744,3.2524089267401126,5.867037729035339,-2.4727553854668822
10.346475481661145,3.3532909238853663,5.842310175180669,-2.5087475633181873
10.380008390899999,3.4573238292074717,5.817222699547488,-2.55543873671737
10.414581629192073,3.565294443219484,5.791668312180314,-2.6135121845027944
10.450234573624268,3.678090361225577,5.765533190335286,-2.683785456149011
10.487015477236524,3.7967201309548995,5.738695335773795,-2.76723849777599
10.524982678546072,3.9223380866455613,5.7110229507960355,-2.865046695710744
10.564206059412529,4.056274368961338,5.682372483838928,-2.9786195503934607
10.604768803102141,4.200070339679527,5.6525862883349935,-3.1096451479016873
10.646769506498936,4.355518763369246,5.621489836855977,-3.2601392724943237
10.690324694132629,4.524706181854417,5.588888444131034,-3.4324950819694875
10.735571755951174,4.710050708278209,5.554563493311339,-3.6295231235274557
10.782672263033955,4.914319760791875,5.518268262076065,-3.8544589073215585
10.831815460641874,5.140594669957419,5.479723673002849,-4.110890105740099
10.883221407341448,5.3921144652549895,5.438614771945448,-4.402506210633248
10.937142551993999,5.6718654334353555,5.394589709839116,-4.732480432925332
10.993861206328353,5.981666728252817,5.347264905509863,-5.102129472104852
11.05367787361088,6.320326367305812,5.296243610788814,-5.508249341473951
11.116881137283938,6.680282755383604,5.241161117374074,-5.9383036563534155
11.183683964837774,7.042398062031266,5.18177808081054,-6.363002223378775
11.254107945458086,7.37035165702356,5.118148058576752,-6.728336123899948
11.327811462028322,7.610828726344282,5.050864697337753,-6.955856301518253
11.403919749291765,7.710300731804973,4.98130613432257,-6.966500339651477
11.481022756609814,7.648550385926628,4.911641130926055,-6.728251377851318
11.557508260469081,7.458655995588673,4.844358617147542,-6.284870438702413
11.632094820424967,7.204870765062111,4.781509912760518,-5.7251430774346606
11.704143528075589,6.943972212198497,4.724258481986171,-5.128374509827503
11.773583250197573,6.708514181737238,4.6729747368878956,-4.5403786559442265
11.840668392014946,6.511191289139079,4.627570950328454,-3.9792117750756852
11.905780304906337,6.353863110088619,4.587778832577697,-3.447667453205006
11.969318936007223,6.233778261578194,4.553302158045646,-2.9419998227800597
12.031656718623005,6.146709202968804,4.523882159817846,-2.4563890330031435
12.093123810652692,6.088273371324435,4.499318269487814,-1.9848929678671328
12.154006544365936,6.054389178905361,4.4794693398091425,-1.5221966994170437
12.21455043615499,6.0413621089169425,4.464247372814972,-1.0638474287165218
12.27496405724416,6.045828185997317,4.453608898527807,-0.6062906400160838
12.335422339104133,6.064652833981717,4.447545992127646,-0.1468419751269487
12.39606886744395,6.094825773223726,4.446077572376376,0.31635251244521645
12.457017125176186,6.133368380274848,4.4492410975008285,0.7843508694107547
12.518350808978935,6.177260168954906,4.457084606194936,1.2574430178117249
12.580123410668484,6.223387310115813,4.469659036373053,1.7351765853961707
12.642357283769643,6.268514638402972,4.487010802227015,2.216387698898494
12.705042430153673,6.309281753076999,4.509174679216001,2.6992436120556285
12.768135247684443,6.342222932768701,4.536167115336557,3.1813027118074984
12.83155747701213,6.363809464485328,4.567980142454632,3.6595952811470287
12.895195571656982,6.370511716111535,4.6045760952661015,4.130725785040593
12.958900688818098,6.358877076194586,4.645883353116507,4.590994818471456
13.022489459580044,6.325618986564107,4.691793301301222,5.036536657719758
13.085745649445684,6.267711864117168,4.742158667878419,5.463466939723553
13.148422768086856,6.182486754218869,4.796793337275655,5.8680345020023275
13.210247635629045,6.067722913481508,4.855473682295678,6.246771715188338
13.27092486476386,5.921730903917914,4.917941399447561,6.59663836002337
13.330142173803038,5.743422920169945,4.983907783047795,6.915154766777037
13.387576403004738,5.532365840333218,5.053059330715565,7.200520168003131
13.44290006140807,5.2888120093430455,5.125064532395597,7.451711910425676
13.4957881815015,5.013702405893659,5.199581651499853,7.668560582307211
13.545925205560437,4.708637127879318,5.2762672573229255,7.851795791489215
13.59301157683923,4.375809518991476,5.3547852152378175,8.003057929062194
13.636769672029144,4.017902929775804,5.434815794528439,8.124873253907097
13.676948701326902,3.6379528021419714,5.51606452706751,8.220593099601553
13.713328229348322,3.2391807893190703,5.598270458063525,8.294302488449985
