th1 (rad),w1 (rad/s),th2 (rad),w2 (rad/s),a1 (rad/s^2),a2 (rad/s^2)
2.646233694859124,1.4888916630075857,4.78479554560048,2.2226373327577233,-0.5264644482842996,7.622222883484818
2.6611226114892,1.4836270185247427,4.807021918928058,2.2988595615925713,-0.18923944513186944,7.806155842029348
2.6759588816744473,1.481734624073424,4.830010514543984,2.376921120012865,0.1569204942709167,7.9861519110597525
2.6907762279151815,1.4833038290161331,4.853779725744113,2.456782639123462,0.5122758965049182,8.162633347902357
2.7056092662053426,1.4884265879811822,4.878347552135348,2.5384089726024857,0.8770231832094032,8.335934564399851
2.7204935320851544,1.4971968198132763,4.903731641861373,2.621768318246484,1.2512871556575624,8.506291138916172
2.7354655002832873,1.509709691369852,4.929949325043838,2.706831229635646,1.635112154782038,8.673827750305335
2.7505625971969856,1.5260608129176725,4.957017637340194,2.7935695071386992,2.0284518411183217,8.838545111205134
2.7658232053261624,1.5463453313288558,4.984953332411582,2.8819549582507507,2.4311575792056077,9.000306024397336
2.781286658639451,1.5706569071209118,5.01377288199409,2.971958018494724,2.8429654640414173,9.158820745114827
2.79699322771066,1.599086561761326,5.043492462179037,3.0635462259458723,3.2634820954552177,9.313631906076377
2.8129840933282733,1.631721382715878,5.074127924438495,3.1566825450066363,3.692169291847803,9.464099352358575
2.829301307155432,1.6686430756343562,5.105694749888562,3.251323538530222,4.128328039363176,9.609385341000253
2.8459877379117753,1.709926356027988,5.138207985273864,3.3474173919402244,4.571082097216893,9.748440685464875
2.863087001472055,1.7556371770001569,5.171682159193266,3.444901798794873,5.019361824409982,9.879992566198997
2.8806433732420564,1.8058307952442567,5.206131177181215,3.543701724456863,5.4718889554528625,10.002534881801346
2.898701681194499,1.8605496847987852,5.241568194425783,3.6437270732748765,5.927163228598293,10.11432217419566
2.917307178042487,1.9198213170847682,5.2780054651585315,3.7448702950168333,6.3834519518197945,10.213368315569863
2.9365053912133345,1.9836558366029662,5.3154541681087,3.847003978172532,6.838783767800408,10.297451280401674
2.956341949579364,2.0520436742809705,5.353924207890426,3.9499784909765485,7.290948033361191,10.364125423709808
2.976862386322174,2.1249531546145826,5.393423992800192,4.053619745213647,7.737501339983364,10.410742723164459
2.9981119178683198,2.202328168014416,5.4339601902523285,4.157727172445291,8.17578274454357,10.434484390215415
3.0201351995484638,2.284085995459852,5.475537461976781,4.262072016347446,8.602939223477746,10.43240408374784
3.0429760595030624,2.3701153876946295,5.518158182140255,4.366396057184924,9.015962677918104,10.4014836388474
3.0666772133800086,2.4602750144738104,5.561822142712105,4.470410893573399,9.411739471999786,10.338701727016044
3.0912799635247468,2.554392409193808,5.606526251647838,4.573797910843559,9.787112957725936,10.241115175966636
3.1168238876166847,2.6522635387710674,5.652264230756274,4.676209062603225,10.138958715721266,10.105951795987105
3.1433465230043955,2.75365312592828,5.6990263213823065,4.777268580563096,10.464271328692455,9.930712507251458
3.1708830542636783,2.858295839215205,5.746799007187938,4.87657570563561,10.760260435257681,9.713279388158586
3.1994660126558303,2.9658984435677818,5.795564764244293,4.973708499517196,11.024452647724516,9.45202505057629
3.229124997091508,3.076142970045027,5.8453018492394655,5.068228750022959,11.25479475171212,9.145917607085638
3.2598864267919585,3.1886909175621483,5.8959841367396955,5.159687926093815,11.449752559963231,8.794614566651632
3.29177333596758,3.3031884431617806,5.947581016000633,5.247634071760332,11.608399007963309,8.398538429637744
3.324805220399198,3.4192724332414137,6.000057356718236,5.331619456056709,11.730484698659021,7.958926694434743
3.358997944731612,3.5365772802280038,6.053373551278804,5.411208723001057,11.816484252480498,7.477849547970489
3.394363717533892,3.654742122752809,6.107485638508814,5.485987218480761,11.867612578740163,6.958189745122995
3.43091113876142,3.7734182485402106,6.162345510693622,5.555569115931991,11.885806571232388,6.403581062353648
3.4686453212468225,3.8922763142525345,6.217901201852942,5.619604926555528,11.873669679027511,5.8183041224039
3.507568084389348,4.0110130110428095,6.274097251118497,5.677787967779567,11.834379162704888,5.2071411253832185
3.547678214499776,4.129356802669858,6.330875130796293,5.7298593790334,11.77155839330375,4.575193815202837
3.5889717825264746,4.247072386602896,6.388173724586626,5.775611317185428,11.689119017190034,3.92767155603919
3.6314425063925038,4.363963576774796,6.445929837758481,5.814888032745819,11.591079919476195,3.2696584037174015
3.6750821421602518,4.479874375969558,6.504078718085939,5.847584616782993,11.48137143357408,2.6058693074722092
3.7198808859199475,4.594688090305299,6.562554564253769,5.873643309857715,11.363634003870168,1.9404059473391957
3.7658277668230005,4.708324430344001,6.621290997352346,5.893047369331107,11.24102045535468,1.276522205560187
3.8129110111264404,4.820734634897548,6.680221471045657,5.905812591386709,11.116010214069847,0.6164080165167709
3.8611183574754158,4.931894737038246,6.739279596959524,5.911976671551877,10.99024241325703,-0.03900142707670286
3.9104373048457983,5.041797161170816,6.798399363675043,5.91158665728111,10.864373044846081,-0.6901861123041922
3.9608552764575067,5.150440891619277,6.857515230247854,5.904684796158068,10.737959445588473,-1.339168154732985
4.012359685373699,5.257820486075161,6.916562078209434,5.891293114610738,10.609373713240409,-1.9896035723084966
4.064937890234451,5.363914223207566,6.9754750093555415,5.871397078887653,10.475745370731019,-2.6468379784490894
4.1185770324665265,5.468671676914876,7.034188980144418,5.844928699103162,10.33293292237398,-3.317925219179233
4.173263749235676,5.572001006138615,7.09263826713545,5.81174944691137,10.17552400101926,-4.011606961624768
4.228983759297062,5.673756246148808,7.150755761604564,5.771633377295123,9.99686465225905,-4.738249253537308
4.28572132175855,5.773724892671399,7.208472095377515,5.7242508847597495,9.789119949181472,-5.509729169115614
4.343458570685264,5.8716160921632135,7.265714604225113,5.669153593068593,9.543370534688078,-6.339260967693208
4.402174731606896,5.967049797510095,7.322406140155799,5.605760983391661,9.249752747712966,-7.241146949397487
4.461845229581997,6.059547324987224,7.378463749989716,5.533349513897686,8.89765352803228,-8.230433765799448
4.52244070283187,6.148523860267547,7.433797245128693,5.451045176239691,8.475975016973711,-9.322450912402807
4.583925941434545,6.233283610437284,7.4883076968910895,5.3578206671156625,7.973487199051888,-10.532205376169328
4.646258777538918,6.313018482427803,7.541885903562246,5.2524986133539695,7.379289309545932,-11.873606233966532
4.709388962363196,6.386811375523262,7.594410889695785,5.133762551014304,6.6834009396102525,-13.358497212286666
4.773257076118429,6.453645384919365,7.645748515205929,5.000177578891438,5.8775002277993735,-14.995486187937189
4.837793529967622,6.512420387197358,7.695750290994843,4.850222717012066,4.955817214936377,-16.788581107621724
4.902917733839596,6.561978559346722,7.744252518164964,4.682336905935849,3.9161730831412043,-18.735674566640057
4.968537519433063,6.601140290178134,7.791075887224323,4.494980160269448,2.7611285759805986,-20.826966074207395
5.034548922334845,6.62875157593794,7.836025688827017,4.286710499527374,1.4991665912572576,-23.043471074903373
5.100836438094224,6.643743241850513,7.878892793822291,4.056275788778341,0.14578660558011164,-25.355833659110157
5.167273870512729,6.645201107906314,7.919455551710074,3.802717452187239,-1.275661480141336,-27.72372322700316
5.233725881591792,6.6324444931049005,7.957482726231946,3.5254802199172075,-2.7336171224522174,-30.096133611725925
5.300050326522841,6.605108321880378,7.992737528431118,3.224518883799948,-4.188648791597722,-32.41288902437135
5.3661014097416455,6.563221833964401,8.024982717269118,2.9003899935562347,-5.594684719978869,-34.6075668621591
5.43173362808129,6.507274986764612,8.05398661720468,2.554314324934644,-6.90122625474805,-36.61185652939339
5.496806377948936,6.4382627242171315,8.079529760454026,2.18819575964071,-8.056469312157137,-38.36109636152265
5.561189005191107,6.35769803109556,8.101411718050432,1.8045847960254833,-9.011050285483467,-39.80041685694108
5.624765985502062,6.267587528240726,8.119457566010688,1.4065806274560724,-9.72193128593059,-40.890654754245126
5.687441860784469,6.17036821538142,8.133523372285248,0.9976740799136211,-10.155813427924128,-41.61309118346196
5.749145542938283,6.068810081102179,8.143500113084384,0.5815431680790015,-10.291475379716815,-41.97218377784359
5.809833643749305,5.965895327305011,8.149315544765175,0.1618213303005656,-10.120598640730059,-41.995813122664345
5.869492597022355,5.86468934089771,8.15093375806818,-0.2581368009260778,-9.646925561494346,-41.73306582397779
5.928139490431333,5.768220085282767,8.14835239005892,-0.6754674591658557,-8.883916992268205,-41.2500831496216
5.98582169128416,5.679380915360085,8.141597715467261,-1.0879682906620718,-7.851334617919067,-40.624864449750824
6.042615500437761,5.6008675691808945,8.13071803256064,-1.49421693515958,-6.571296394111379,-39.942036677888716
6.09862417612957,5.53515460523978,8.115775863209045,-1.8936373019384671,-5.0643238465829254,-39.28848569581721
6.1539757221819675,5.484511366773951,8.09683949018966,-2.286522158896639,-3.345752241199562,-38.750470492103155
6.208820835849707,5.451053844361955,8.073974268600693,-2.6740268638176707,-1.4226733459071077,-38.412518887592576
6.263331374293327,5.436827110902884,8.047233999962517,-3.0581520526935964,0.7086088660585371,-38.35812525558329
6.317699645402356,5.44391319956347,8.016652479435582,-3.4417333052494294,3.064757665403366,-38.672078561429984
6.37213877739799,5.474560776217504,7.982235146383087,-3.8284540908637292,5.677398556428972,-39.444119737506846
6.426884385160165,5.531334761781793,7.94395060547445,-4.222895288238798,8.59499980864125,-40.773463380836326
6.482197732777983,5.617284759868206,7.901721652592062,-4.630629922047161,11.884342785571333,-42.77330577409799
6.538370580376665,5.73612818772392,7.8554153533715905,-5.058362979788141,15.6303726621845,-45.573317424929925
6.5957318622539045,5.892431914345765,7.8048317235737095,-5.51409615403744,19.93103435247416,-49.31523660053436
6.654656181397362,6.091742257870506,7.749690762033335,-6.007248520042784,24.87852047310017,-54.1296206657175
6.715573603976067,6.340527462601508,7.689618276832907,-6.548544726699959,30.506312300977108,-60.06514743868774
6.778978878602082,6.645590585611279,7.624132829565908,-7.149196201086836,36.65478552308164,-66.90478953734211
6.845434784458195,7.0121384408420955,7.55264086755504,-7.818244096460257,42.65736513907438,-73.73210128992231
6.915556168866616,7.438712092232839,7.474458426590437,-8.55556510935948,46.69404528701012,-78.03302482559383
6.989943289788945,7.9056525451029405,7.388902775496843,-9.335895357615417,44.81102746353307,-74.32940825675729
7.068999815239975,8.353762819738272,7.295543821920688,-10.07918944018299,30.773587696888605,-53.97306832340802
7.152537443437358,8.661498696707158,7.194751927518858,-10.61892012341707,0.6877563045763472,-11.599749387450863
7.239152430404429,8.668376259752922,7.088562726284688,-10.734917617291579,-36.632829960662,40.42424900655547
7.325836193001958,8.302047960146302,6.9812135501117725,-10.330675127226025,-61.90697776095266,75.25388157530887
7.408856672603421,7.682978182536775,6.877906798839512,-9.578136311472935,-67.79932073942257,82.86348823418902
7.485686454428789,7.004984975142549,6.782125435724783,-8.749501429131046,-62.34802551461795,74.59890402258634
7.555736304180215,6.38150471999637,6.694630421433473,-8.003512388905182,-53.890703511658174,62.0872152404462
7.619551351380179,5.842597684879788,6.6145952975444215,-7.382640236500721,-46.01940351557693,50.298940735978604
7.677977328228977,5.382403649724019,6.540768895179414,-6.879650829140934,-39.618093983563405,40.437710737316756
7.731801364726217,4.986222709888384,6.471972386888004,-6.475273721767767,-34.64784849671481,32.43236263498108
7.781663591825101,4.639744224921236,6.407219649670327,-6.150950095417956,-30.856489341926782,25.921041202000684
7.828061034074313,4.331179331501968,6.345710148716147,-5.891739683397949,-27.992582251648905,20.54603511669502
7.871372827389333,4.051253508985479,6.286792751882168,-5.686279332230999,-25.853468401200164,16.0193965752788
7.911885362479188,3.792718824973477,6.229929958559858,-5.526085366478211,-24.285713537627245,12.123570632742839
7.949812550728923,3.5498616895972046,6.174669104895076,-5.4048496601507825,-23.174811978292027,8.697883575084536
7.985311167624895,3.3181135698142845,6.120620608293568,-5.317870824399937,-22.434467965076607,5.6250797588769315
8.018492303323038,3.0937688901635183,6.067441900049569,-5.261620026811167,-21.99773222600325,2.821046465235034
8.049429992224674,2.8737915679034858,6.014825699781457,-5.233409562158817,-21.810022366384068,0.22779837511719095
8.078167907903708,2.6556913442396453,5.962491604159869,-5.231131578407646,-21.82356340940605,-2.190893344442894
8.104724821346105,2.437455710145585,5.910180288375792,-5.253040511852075,-21.992800693153917,-4.451886053127617
8.129099378447561,2.2175277032140457,5.857649883257271,-5.297559372383351,-22.270491329647967,-6.553656331290166
8.151274655479702,1.9948227899175661,5.804674289533438,-5.363095935696253,-22.604376869069068,-8.476468587606467
8.171222883378878,1.7687790212268755,5.751043330176475,-5.4478606215723175,-22.934563576885242,-10.182363463987041
8.188910673591147,1.539433385458023,5.696564723960751,-5.5496842562121875,-23.19198462582111,-11.615760689479632
8.204305007445727,1.307513539199812,5.641067881398629,-5.665841863106984,-23.29856544273443,-12.705659763472543
8.217380142837726,1.0745278847724677,5.584409462767559,-5.792898460741709,-23.16988734181882,-13.370541311368662
8.228125421685451,0.8428290113542796,5.526480478160142,-5.926603873855395,-22.721111625849083,-13.52694583433633
8.236553711798994,0.6156178950957887,5.467214439421588,-6.061873332198759,-21.87650828804653,-13.102112874655846
8.242709890749952,0.39685281221532337,5.4065957060996,-6.192894460945317,-20.581989374174604,-12.049840342815457
8.246678418872104,0.1910329184735773,5.3446667614901475,-6.313392864373472,-18.818633229863533,-10.366968013580808
8.24858874805684,0.0028465861749419896,5.281532832846413,-6.41706254450928,-16.613731196492086,-8.106164702925787
8.248617213918589,-0.16329072578997889,5.21736220740132,-6.498124191538538,-14.045209325845658,-5.380027209327577
8.24698430666069,-0.3037428190484355,5.152380965485935,-6.5519244636318135,-11.236229456216869,-2.352893586783217
8.243946878470204,-0.41610511361060415,5.086861720849616,-6.575453399499645,-8.339569405788676,0.7796150875150671
8.239785827334098,-0.4995008076684909,5.0211071868546195,-6.567657248624495,-5.515062812988277,3.81879435517423
8.234790819257412,-0.5546514357983737,4.955430614368375,-6.529469305072753,-2.906104569686908,6.591164689117928
8.229244304899428,-0.5837124814952428,4.890135921317647,-6.463557658181573,-0.621454894576476,8.969363783718249
8.223407180084475,-0.5899270304410076,4.825500344735831,-6.37386402034439,1.2737808873111756,10.881315622817304
8.217507909780066,-0.5771892215678959,4.761761704532387,-6.265050864116217,2.7576376683834503,12.30778560925624
8.211736017564387,-0.5496128448840614,4.699111195891225,-6.141973008023655,3.843738744648898,13.271796955294835
8.206239889115547,-0.5111754574375724,4.637691465810989,-6.009255038470706,4.570373402160559,13.824560813861881
8.201128134541172,-0.4654717234159668,4.577598915426282,-5.871009430332087,4.9894625421287,14.03184460476154
8.196473417307011,-0.41557709799467984,4.518888821122961,-5.730690984284472,5.157453926881832,13.96309067147961
8.192317646327064,-0.3640025587258615,4.461581911280116,-5.591060077569676,5.128927859940333,13.68403806099669
8.188677620739805,-0.31271328012645816,4.405671310504419,-5.454219696959709,4.9528069684088205,13.252561324809397
8.18555048793854,-0.26318521044237,4.351129113534823,-5.3216940837116145,4.670623787363045,12.71696628297397
8.182918635834117,-0.21647897256873952,4.297912172697707,-5.194524420881875,4.316195575433688,12.115909535594488
8.180753846108429,-0.17331701681440265,4.245966928488889,-5.07336532552593,3.916135731885549,11.479241454110332
8.179020675940285,-0.13415565949554714,4.19523327523363,-4.958572910984826,3.4907776434138262,10.829269109209664
8.17767911934533,-0.09924788306140889,4.145647546123781,-4.8502802198927295,3.055232104700283,10.182118905711723
8.176686640514715,-0.06869556201440606,4.097144743924854,-4.748459030835612,2.620415269326854,9.5490193425234
8.17599968489457,-0.04249140932113752,4.0496601536164984,-4.652968837410378,2.1939650649489826,8.937419619018343
8.17557477080136,-0.020551758671647696,4.0031304652423945,-4.563594641220194,1.7810151742175686,8.351918125474729
8.175369253214644,-0.0027416069294720104,3.9574945188301927,-4.480075459965447,1.384824974737983,7.7950069214256885
8.17534183714535,0.011106642817907821,3.9126937642305384,-4.40212539075119,1.0072786165172112,7.267653470918599
8.175452903573529,0.021179428983079934,3.8686725103230266,-4.329448856042005,0.6492723463219897,6.76974607048864
8.17566469786336,0.02767215244629983,3.8253780217626066,-4.261751395337118,0.3110101510078757,6.3004291803941666
8.175941419387822,0.030782253956378586,3.7827605078092352,-4.198747103533177,-0.0077737450209976935,5.858352098353047
8.176249241927385,0.030704516506168608,3.7407730367739034,-4.140163582549646,-0.3076495650082241,5.441850735102344
8.176556287092447,0.027628020856086368,3.699371400948407,-4.085745075198623,-0.589370683805252,5.0490785306548585
8.176832567301009,0.021734314018033846,3.658513950196421,-4.035254289892074,-0.8537858092514446,4.6780991969723145
8.17704991044119,0.0131964559255194,3.6181614072975,-3.9884732979223507,-1.1017763752417296,4.326951135795916
8.177181875000445,0.002178692173102105,3.5782766743182766,-3.9452037865643916,-1.3342127664669499,3.993691073153461
8.177203661922176,-0.011163435491567394,3.538824636452633,-3.905266875832857,-1.5519245109659148,3.6764226250228957
8.17709202756726,-0.02668268060122654,3.499771967694304,-3.868502649582628,-1.7556807704342923,3.3733140889115254
8.176825200761249,-0.044239488305569466,3.461086941198478,-3.8347695086935127,-1.9461783842360854,3.082608668134014
8.176382805878193,-0.06370127214793032,3.422739246111543,-3.8039434220121726,-2.1240354334497487,2.8026295106006853
8.175745793156713,-0.08494162648242781,3.3846998118914216,-3.7759171269061658,-2.2897888317697666,2.531781323585329
8.174896376891889,-0.10783951480012548,3.34694064062236,-3.7505993136703126,-2.443894858746503,2.268549862682588
8.173817981743888,-0.1322784633875905,3.309434647485657,-3.727913815043487,-2.586731858394801,2.0115002493257412
8.172495197110011,-0.1581457819715385,3.272155509335222,-3.7077988125502297,-2.718604556896453,1.7592748175691126
8.170913739290295,-0.18533182754050304,3.23507752120972,-3.6902060643745385,-2.8397496258689934,1.5105910049847144
8.16906042101489,-0.21372932379919296,3.1981754605659742,-3.6751001543246913,-2.9503422470775287,1.2642396676102057
8.166923127776899,-0.24323274626996824,3.161424459022727,-3.662457757648589,-3.050503531768559,1.019084102357814
8.1644908003142,-0.27373778158765383,3.124799881446241,-3.652266916625011,-3.1403087216540513,0.7740599929454247
8.161753422498323,-0.30514086880419433,3.088277212279991,-3.644526316695557,-3.219796155656798,0.5281764506268805
8.15870201381028,-0.3373388303607623,3.0518319491130357,-3.639244552189288,-3.2889770320498015,0.2805182941565856
8.155328625506673,-0.3702286006812603,3.0154395035911428,-3.6364393692477224,-3.347846033676555,0.030249701425303498
8.15162633949986,-0.40370706101802584,2.9790751098986656,-3.6361368722334695,-3.3963929177682926,-0.22338063390198892
