th1 (rad),w1 (rad/s),th2 (rad),w2 (rad/s)
2.82393005214181,-0.7713688988012067,3.492994064109495,0.6762862117443655
2.8162163631537975,-0.830549797654685,3.499756926226939,0.7527502623706578
2.807910865177251,-0.8894087451974314,3.5072844288506455,0.8283840393716456
2.7990167777252766,-0.9478773330894886,3.515568269244362,0.9030789398742233
2.7895380043943816,-1.0058845233745684,3.524599058643104,0.9767209422342003
2.779479159160636,-1.0633579981444208,3.534366268065446,1.0491923480569723
2.768845579179192,-1.1202257029279075,3.544858191546016,1.1203737663772384
2.757643322149913,-1.1764175246599122,3.5560619292097884,1.190146254686008
2.7458791469033135,-1.2318670372623983,3.5679633917566482,1.2583935204786982
2.7335604765306893,-1.286513244139118,3.5805473269614354,1.3250040816920963
2.720695344089298,-1.3403022477715154,3.5937973677783566,1.3898732855042915
2.707292321611583,-1.3931887821853293,3.6076961006333996,1.4529050925661466
2.6933604337897297,-1.4451375539338773,3.622225151559061,1.5140135472174903
2.6789090582503907,-1.4961243505710569,3.637365287031236,1.573123872401002
2.66394781474468,-1.5461368911844577,3.653096525755246,1.6301731491414364
2.648486445832835,-1.5951754100652618,3.6693982572466606,1.6851105626815706
2.632534691732183,-1.6432529806403964,3.6862493628734763,1.7378972187353208
2.6161021619257787,-1.690395601177618,3.7036283350608294,1.788505552142722
2.5991982059140026,-1.7366420755777858,3.7215133905822566,1.8369183652121932
2.581831785158225,-1.782043731233617,3.7398825742343784,1.8831275434463648
2.564011347845889,-1.8266640212784224,3.758713849668842,1.9271325019324952
2.5457447076331046,-1.8705780607250069,3.777985174688167,1.9689384166763604
2.5270389270258544,-1.913872145416079,3.797674558854931,2.008554292178295
2.5079002055716937,-1.956643299947604,3.817760101776714,2.0459909104400342
2.4883337725722177,-1.9989988964242122,3.8382200108811144,2.081258698309431
2.4683437836079754,-2.041056380677139,3.859032597864209,2.1143655405764252
2.447933219801204,-2.0829431369460343,3.880176253269973,2.1453145564120266
2.4271037884317437,-2.1247965163852514,3.9016293988340935,2.174101847362522
2.405855823267891,-2.166764049326947,3.923370417307719,2.2007142168262397
2.3841881827746216,-2.209003856061676,3.9453775594759812,2.225126854314364
2.3620981442140048,-2.2516852658372484,3.9676288280191248,2.247300973361681
2.3395812915556324,-2.2949896484837256,3.9901018377527415,2.267181390283251
2.3166313950707953,-2.3391114569824967,4.012773651655574,2.2846940327857226
2.2932402805009704,-2.384259471592706,4.035620591983431,2.299743373712227
2.2693976857850435,-2.430658225703165,4.058618025720553,2.3122097972991904
2.245091103528012,-2.478549578881417,4.081740123693545,2.3219469251838185
2.220305607739198,-2.528194381646806,4.1049595929453835,2.32877895970362
2.1950236639227296,-2.57987414669925,4.12824738254242,2.332498146414509
2.169224922455737,-2.6338925993612885,4.151572364006565,2.3328625210319416
2.142885996462124,-2.6905769216925686,4.1749009892168845,2.329594194314842
2.115980227245198,-2.7502784251601136,4.198196931160033,2.322378549266947
2.088477442993597,-2.8133722803614454,4.221420716652703,2.3108648869889477
2.060343720189983,-2.880255793638832,4.244529365522592,2.2946692692875397
2.0315411622535944,-2.9513445454974248,4.267476058215467,2.2733805745650244
2.00202771679862,-3.027065494638413,4.290209863961118,2.246571109669595
1.971757061852236,-3.1078459127799207,4.312675575057813,2.2138134929747655
1.9406786027244367,-3.194096773451468,4.334813709987561,2.1747059086947416
1.908737634989922,-3.2861890223409813,4.356560769074508,2.128908156784147
1.8758757447665122,-3.3844210953496936,4.37784985064235,2.076191056375876
1.8420315338130153,-3.488976261622882,4.398611761206109,2.0165014953260973
1.8071417711967865,-3.5998690471623735,4.41877677615937,1.950044456887679
1.771143080725163,-3.7168813776103464,4.438277220728247,1.8773813279128764
1.7339742669490594,-3.8394913943161044,4.4570510340073755,1.7995403356693789
1.6955793530058985,-3.966801252145431,4.475046437364069,1.7181298768327813
1.655911340484444,-4.097474405281891,4.4922277361323975,1.6354390422894702
1.6149365964316251,-4.229697216019062,4.508582126555292,1.5545028406085881
1.5726396242714344,-4.361182806039051,4.524127154961378,1.4791045546960258
1.529027796211044,-4.4892349780832035,4.538918200508339,1.4136873260260594
1.484135446430212,-4.6108848236357325,4.553055073768599,1.3631545811455612
1.4380265981938545,-4.723101340132706,4.566686619580055,1.332556037651087
1.3907955847925275,-4.8230611436981174,4.580012179956565,1.3266813119049417
1.3425649733555463,-4.908444923506537,4.593278993075614,1.349610992064171
1.293480524120481,-4.977715237584541,4.606775102996256,1.4042966178956788
1.2437033717446355,-5.030326982221917,4.620818069175213,1.492247421199181
1.1934001019224163,-5.066831076789631,4.635740543387205,1.6133880089550805
1.14273179115452,-5.088852077672287,4.651874423476755,1.7661193086559939
1.0918432703777972,-5.098946142356658,4.669535616563315,1.9475736601866105
1.0408538089542305,-5.100369642298662,4.689011353165181,2.1540161906291058
0.9898501125312439,-5.096804166106267,4.710551515071472,2.381319798259896
0.9388820708701813,-5.0920871211704855,4.734364713054071,2.6254362892268404
0.8879611996584764,-5.089989193252609,4.760619075946339,2.882800489940659
0.8370613077259503,-5.094064621483272,4.789447080845746,3.1506305948257554
0.7861206615111176,-5.107583229310125,4.820953386794003,3.427117195328311
0.7350448292180164,-5.133539363518267,4.855224558747286,3.711517382267316
0.6837094355828337,-5.1747250594859855,4.89233973256996,4.004184941708772
0.6319621849879739,-5.233853143213081,4.932381581987047,4.3065730636569555
0.579623653555843,-5.313719202126065,4.975447312623617,4.62124497516457
0.5264864615345823,-5.417397436027017,5.021659762375262,4.951924122517026
0.4723124871743122,-5.548472557879811,5.071179003600433,5.303611884516817
0.41682776159551405,-5.711316660853919,5.124215122445601,5.6827985816307045
0.35971459498697483,-5.911424289351204,5.181043108261908,6.097791378482045
0.3006003520934628,-6.15581588457589,5.242021022046728,6.559173821192081
0.2390421932477039,-6.453494992703436,5.307612760258649,7.080375893600986
0.17450724332066953,-6.815857033438455,5.3784165191946585,7.678212997193803
0.10634867298628498,-7.256681638058234,5.455198649166596,8.37288609245712
0.033781856605702626,-7.790583055221505,5.538927510091168,9.185885356771973
-0.044123973946512435,-8.426766485275888,5.6307863636588875,10.131416752092807
-0.12839163879927132,-9.150259526221644,5.732100531179816,11.190426529308798
-0.21989423406148778,-9.876657445149528,5.844004796472904,12.247670567812868
-0.31866080851298306,-10.383998273464458,5.966481502151033,12.996731400712553
-0.4225007912476276,-10.347697395562701,6.0964488161581585,12.988841134557667
-0.5259777652032547,-9.683958714073656,6.226337227503735,12.111545997708017
-0.6228173523439913,-8.74173836327045,6.347452687480815,10.852704612361347
-0.7102347359766957,-7.856779203759843,6.455979733604429,9.677541543620467
-0.7888025280142942,-7.1273489552635825,6.5527551490406335,8.72068119037477
-0.86007601756693,-6.540995287836965,6.639961960944381,7.964354070634453
-0.9254859704452996,-6.06516432687402,6.719605501650726,7.363878795983184
-0.9861376137140397,-5.671559354161931,6.793244289610557,6.880965365902346
-1.042853207255659,-5.339097097129252,6.862053943269581,6.487569138253729
-1.0962441782269516,-5.052509458504103,6.926929634652119,6.163853864452092
-1.1467692728119927,-4.800653123349725,6.98856817329664,5.895810482844053
-1.1947758040454899,-4.575231289694453,7.047526278125081,5.673463982269655
-1.2405281169424345,-4.369921497631829,7.104260917947777,5.48963710774813
-1.2842273319187527,-4.179800592779738,7.159157289025258,5.339104624501339
-1.32602533784655,-4.000975195183954,7.212548335270272,5.217997659040472
-1.3660350897983897,-3.8303562278704844,7.264728311860677,5.12335956386252
-1.4043386520770946,-3.665538792007945,7.315961907499302,5.052787595934403
-1.4409940399971741,-3.5047620707808607,7.366489783458646,5.004118906794196
-1.4760416607049827,-3.346928893409699,7.416530972526588,4.975139723618576
-1.5095109496390797,-3.1916618940300587,7.466282369762774,4.963317455814651
-1.5414275685793803,-3.0393641405292526,7.5159155443209205,4.965578646751525
-1.571821209984673,-2.8912402614222508,7.565571330788436,4.978178509504354
-1.6007336125988954,-2.7492270840292,7.6153531158834795,4.996721143245337
-1.6282258834391874,-2.6157917144625267,7.665320327315933,5.016379212881806
-1.6543838005838127,-2.4935888283153345,7.715484119444751,5.032316621823959
-1.6793196888669661,-2.3850243554516393,7.765807285662991,5.040243281097
-1.7031699324214826,-2.291826977277811,7.816209718473961,5.0369595199981845
-1.7260882021942607,-2.2147479201360323,7.866579313673943,5.020725344416199
-1.748235681395621,-2.1534731403075655,7.916786567118105,4.991342885713069
-1.7697704127986966,-2.106755022230235,7.966699995975235,4.949946804706846
-1.790837963020999,-2.07269602414689,8.016199464022304,4.898597899519644
-1.8115649232624678,-2.0490824431555192,8.0651854430175,4.839818844220661
-1.832055747694023,-2.033679801436749,8.113583631459706,4.776190102388338
-1.8523925457083903,-2.0244415255799,8.161345532483589,4.710068205530973
-1.8726369609641893,-2.0196229847735263,8.208446214538899,4.643434010542701
-1.8928331908119245,-2.0178183006229733,8.254880554644325,4.577845249757698
-1.9130113738181542,-2.017946085842407,8.300659007141903,4.514456987253622
-1.9331908346765783,-2.0192081096231274,8.345803577014438,4.454077342976085
-1.9533829157728095,-2.021038269269722,8.390344350444199,4.397235232722148
-1.9735932984655067,-2.023052387735092,8.43431670277142,4.344246287849465
-1.9938238223428577,-2.0250040707880745,8.477759165649916,4.295270240473603
-2.0140738630507387,-2.0267484443878026,8.520711868054653,4.25035758495082
-2.0343413474946166,-2.028213694764116,8.563215443904161,4.209485795246262
-2.0546234844422577,-2.029379452457147,8.605310301856624,4.172586488100262
-2.0749172789668293,-2.0302607774527464,8.647036166737626,4.1395652465416894
-2.095219886741357,-2.0308965264733883,8.688431819203043,4.1103157451362415
-2.115528852006091,-2.0313410400045186,8.729534976654405,4.084729579063593
-2.135842262406136,-2.0316582799151712,8.77038227244504,4.062702917762303
-2.156158845205288,-2.0319177319440493,8.811009301622663,4.04414083886226
-2.1764780225247287,-2.032191541913914,8.851450710011285,4.028959971310687
-2.196799937943868,-2.032552475516896,8.891740309724392,4.0170898913250195
-2.2171254626990367,-2.0330723804812556,8.931911208637642,4.008473566065685
-2.237456186503849,-2.0338208907331987,8.971995944298298,4.003067019701883
-2.257794395411181,-2.0348641488845236,9.012026614495317,4.000838296398827
-2.2781430369000266,-2.0362633394951213,9.052034997459305,4.001765706933252
-2.2985056702949778,-2.03807282382027,9.092052654528638,4.005835263568896
-2.3188863985331807,-2.0403376494263026,9.132111007164328,4.013037126444503
-2.3392897750274435,-2.0430901775965795,9.172241378428772,4.023360801103424
-2.359720676803409,-2.0463455316173875,9.212474986439807,4.036788741266649
-2.380184132119583,-2.0500955267357606,9.252842873852472,4.053287929298659
-2.4006850873869405,-2.0543007107010034,9.293375753145458,4.072798943872137
-2.4212280944939506,-2.0588801453528247,9.33410374258418,4.095222009519198
-2.4418168959474786,-2.063698633362422,9.375055962679372,4.1203996075778
-2.462453882281103,-2.0685513003346303,9.41625995875515,4.148095494515295
-2.483139395284449,-2.0731458668388614,9.457740913700302,4.177970539588136
-2.503870853952838,-2.077083693353577,9.499520619096185,4.209556805804863
-2.524641690886374,-2.079841851834259,9.541616187154233,4.242232893757855
-2.5454401094047165,-2.080760092525452,9.58403851609181,4.2752057808437325
-2.566247710329971,-2.0790384517113667,9.626790573900248,4.30750697220895
-2.5870380948470846,-2.0737528233565796,9.669865643622337,4.338012963272895
-2.6077756230806504,-2.063896015882637,9.713245773255066,4.365500309674159
-2.6284145832394765,-2.048449153488329,9.756900776351808,4.3887419637865674
-2.6488990747743597,-2.026481537736723,9.800788195989673,4.406642280659764
-2.6691638901517267,-1.997266594377216,9.84485461879627,4.418393689437548
-2.689136556095499,-1.9603904931766083,9.889038555690647,4.423622904836388
-2.708740461027265,-1.915824320069071,9.93327478473901,4.422486839711302
-2.7278987042279557,-1.8639358553949188,9.977499653136123,4.4156857106663105
-2.7465380627819047,-1.8054336157986448,10.021656510242787,4.4043838604948045
-2.7645923989398913,-1.7412571159050108,10.065700348847734,4.390058134676764
-2.7820049700989413,-1.6724428210750555,10.109600930194501,4.374314737296629
-2.7987293983096917,-1.5999979907822406,10.153344077567468,4.35871879401088
-2.814729378217514,-1.5248054621968181,10.196931265507576,4.344667823163169
-2.829977432839482,-1.4475682054074746,10.240377943739208,4.333320520167922
-2.8444531148935566,-1.368790324067607,10.283711148940887,4.325575557047549
-2.8581410181342326,-1.2887846092086606,10.326966904511362,4.3220862680146785
-2.8710288642263193,-1.2076955132824816,10.37018776719151,4.3232956405526375
-2.883105819359144,-1.125528373299739,10.413420723597037,4.329478942760618
-2.8943611030921415,-1.042178744709774,10.456715513024642,4.3407856199660975
-2.904782890539239,-0.9574584893018045,10.500123369224303,4.35727597208201
-2.9143574754322574,-0.8711172763829894,10.543696128945124,4.37895089345748
-2.9230686481960872,-0.7828593882474844,10.587485637879698,4.405774618187395
-2.930897242078562,-0.6923563527447573,10.631543384061573,4.437691237606305
-2.9378208056060093,-0.5992561707702688,10.675920296437635,4.474636046798706
-2.943813367313712,-0.5031899352289724,10.720666656905623,4.516542772722632
-2.9488452666660017,-0.40377656441326004,10.76583208463285,4.563347596045888
-2.952883032310134,-0.30062626384006785,10.811465560593309,4.6149906939468535
-2.955889294948535,-0.1933432213137086,10.857615467532778,4.671415849146765
-2.957822727161672,-0.0815279456806112,10.904329626024246,4.732568511808499
-2.958638006618478,0.035220415027434726,10.951655311142332,4.798392571802975
-2.9582858024682035,0.157301496481339,10.999639236860363,4.868825998593447
-2.95671278750339,0.2851106431605265,11.048327496846298,4.943795431506969
-2.9538616810717846,0.41903512648771646,11.097765451161367,5.023209751039327
-2.9496713298069075,0.559449469729615,11.14799754867176,5.106952629381201
-2.944076835109611,0.7067097140825287,11.199067074965573,5.194874043960022
-2.937009737968786,0.8611464832459136,11.251015815405173,5.286780740994081
-2.9283982731363265,1.023056733336727,11.303883622815114,5.3824256573550295
-2.918167705802959,1.1926941156755457,11.357707879388665,5.48149634960965
-2.9062407646462036,1.370257936102725,11.41252284288476,5.5836025403821905
-2.8925381852851766,1.5558807699195272,11.468358868288583,5.688262975215919
-2.876979377585981,1.7496148891477175,11.525241498040742,5.794891887863405
-2.8594832286945038,1.9514177796073704,11.583190416919376,5.9027854962619
-2.83996905089843,2.161137167530609,11.642218271881994,6.0111090900365465
-2.8183576792231237,2.3784961332400476,11.70232936278236,6.118885413629144
-2.7945727178907234,2.603079051850798,11.763518216918651,6.224985182353936
-2.7685419273722154,2.834319251114905,11.82576806874219,6.328120671745314
-2.740198734861066,3.0714893916795853,11.889049275459644,6.426843368870571
-2.7094838409442703,3.3136956280118586,11.953317709148351,6.519546641115089
-2.676346884664152,3.559876570713694,12.018513175559502,6.604474238830528
-2.640748118957015,3.808807918691853,12.084557917947807,6.679735187168599
-2.6026600397700963,4.059113349556704,12.151355269819494,6.74332523931712
-2.562068906274529,4.3092818543572875,12.218788522212664,6.793154581148709
-2.518976087730956,4.5576912090328205,12.28672006802415,6.827080946403855
-2.473399175640628,4.802636748023221,12.35499087748819,6.842946798956958
-2.425372808160396,5.042364127274276,12.423420345477759,6.838618859530738
-2.374949166887653,5.275104428464635,12.491806534073065,6.8120280948056235
-2.3221981226030066,5.4991098512050005,12.559926815021122,6.761208421673546
-2.2672070240909568,5.712688423646029,12.627538899237857,6.684332835900592
-2.2100801398544965,5.914236642583473,12.694382227596863,6.579746412866542
-2.150937773428662,6.102269676146362,12.76017969172553,6.445996532183824
-2.0899150766671983,6.275449604848397,12.824639657047367,6.281861562222126
-2.0271605806187143,6.43261296768728,12.887458272669589,6.086379873487878
-1.9628344509418414,6.572799421051266,12.948322071404467,5.85888119246632
-1.8971064567313287,6.695283421612895,13.00691088332913,5.599021761532337
-1.8301536225151998,6.7996103735134925,13.062901100944453,5.3068234312655775
-1.7621575187800649,6.885637591611707,13.115969335257109,4.982714721161809
-1.6933011428639477,6.953578814694127,13.165796482468727,4.627569276962079
-1.6237653547170066,7.004049101460682,13.212072175238347,4.242734473933223
-1.5537248637023997,7.038105161127129,13.25449951997768,3.8300407985253333
-1.4833438120911284,7.057275023820464,13.292799927962934,3.3917818063992033
-1.412771061852924,7.063570962641881,13.326717746026926,2.930655525318668
-1.3421353522265052,7.059481104413183,13.356024301280113,2.4496614247401602
-1.2715405411823733,7.047938250768499,13.380520915527516,1.9519522139588523
-1.2010611586746882,7.0322686857912995,13.400040437667105,1.4406457926230554
-1.1307384718167752,7.016128385437716,13.414446895593336,0.9186081719759004
-1.060577187962398,7.003438094863415,13.423632977313096,0.3882214948252397
-0.9905428070137638,6.998331370104461,13.427515192261348,-0.14884881222850288
-0.9205594933127192,7.005130509415327,13.426026704139062,-0.6918776052600342
-0.850508188218566,7.028364536722813,13.419107928086461,-1.2412912407249421
-0.7802245428513379,7.072841714379427,13.406695015679212,-1.7988722596887186
-0.7094961257075436,7.143787161699748,13.388706293082324,-2.36797212106953
-0.6380582540905462,7.247054037645109,13.365026571871628,-2.9537526949352455
-0.5655877137140951,7.389412326906298,13.335489044922275,-3.563476302781839
-0.49169359044503214,7.578905287614873,13.299854281894456,-4.20684560660022
-0.4159045375688834,7.825219692212659,13.257785825828455,-4.896330578181491
-0.3376523406467568,8.139887631735741,13.20882252004664,-5.647234706528793
-0.2562534643293994,8.535782586374651,13.152350172981352,-6.4767480705549385
-0.17089563846565287,9.024438866282274,13.087582692275802,-7.399918637891309
-0.08065124980283012,9.607481402322238,13.01358350589689,-8.417323701399193
0.01542356422039226,10.254296305816275,12.929410268882897,-9.48340171506147
0.11796652727855501,10.857178619643694,12.834576251732283,-10.44322895786069
0.22653831347499195,11.190015027858783,12.730143962153676,-10.974720091975131
0.3384384637535798,11.00871914308648,12.620396761233925,-10.731218867325998
0.4485256551844446,10.350984806847025,12.513084572560665,-9.765143368813145
0.5520355032529148,9.538812257601236,12.415433138872533,-8.532508946240666
0.6474236258289272,8.809960519561596,12.330108049410127,-7.3734818012127485
0.7355232310245432,8.225555266305266,12.256373231398,-6.37982032330346
0.8177787836875958,7.772497714853703,12.192575028164965,-5.537355826855206
0.8955037608361328,7.424208400248576,12.137201469896413,-4.811438571788037
0.9697458448386186,7.157445782319705,12.089087084178532,-4.171085399909431
1.0413203026618156,6.9545926397241296,12.047376230179438,-3.5926532619086515
1.110866229059057,6.802681659764772,12.011449697560352,-3.0588152905575194
1.1788930456567046,6.692093096526054,11.980861544654775,-2.556992016799739
1.2458139766219651,6.61551237525404,11.955291624486778,-2.0780948863516158
1.3119691003745055,6.567181105609183,11.934510675623262,-1.615646021856413
1.3776409114305974,6.542374729987298,11.918354215404698,-1.1651850368056826
