th1 (rad),w1 (rad/s),th2 (rad),w2 (rad/s)
5.18728598865753,1.8817515531461892,5.05958566539178,2.4208686963181054
5.2061035041889925,1.9515908909898005,5.083794352354961,2.448259974034453
5.22561941309889,2.020596158928626,5.108276952095306,2.475735183112247
5.2458253746881764,2.0886896981416805,5.133034303926428,2.503309927476724
5.2667122716695935,2.1557877434535055,5.158067403201196,2.5310053691673553
5.288270149104129,2.2218004754666207,5.183377456892869,2.5588483141317724
5.310488153858795,2.286632184019477,5.2089659400341874,2.5868711418455828
5.33335447569899,2.3501815505376893,5.234834651452643,2.6151115668859357
5.356856291204367,2.4123420557721653,5.260985767121502,2.643612222177488
5.380979711762088,2.4730025180172617,5.287421889343277,2.67242005584113
5.405709736942261,2.53204776514456,5.314146089901689,2.70158553646829
5.431030214593706,2.589359441656,5.3411619452663714,2.7311616652487056
5.4569238090102665,2.644816949454266,5.368473561918859,2.7612027976929485
5.48337197850481,2.698298518169985,5.3960855898957885,2.7917632826647467
5.51035496368651,2.7496823977200395,5.424003222722436,2.82289593197473
5.53785178766371,2.7988481623701778,5.4522321820421835,2.8546503397362146
5.565840269287412,2.8456781120343497,5.480778685439546,2.8870710768425387
5.594297050407755,2.8900587529812705,5.509649396207971,2.9201957920447574
5.623197637937568,2.9318823366711095,5.538851354128418,2.954053256902304
5.652516461304279,2.971048432256467,5.568391886697442,2.988661397041021
5.6822269456268435,3.0074655054956,5.598278500667852,3.024025356375984
5.7123016006817995,3.041052474573804,5.628518754231612,3.060135643957265
5.742712125427538,3.071740211719305,5.659120110671185,3.0969664146396645
5.773429527544731,3.099472958608218,5.690089774817581,3.134473934697706
5.804424257130813,3.124209623414728,5.721434514164558,3.1725952817292877
5.83566635336496,3.145924927970956,5.753160466981852,3.2112473247399365
5.86712560264467,3.1646103748102017,5.785272940229251,3.2503260253009034
5.898771706392772,3.180275005800545,5.8177762004822595,3.289706094346974
5.930574456450778,3.192945926538924,5.8506732614257295,3.329241031815173
5.962503915716167,3.202668573573593,5.883965671743881,3.3687635682587795
5.994530601451903,3.2095067047776875,5.917653307426469,3.408086519146993
6.02662566849968,3.2135420967649777,5.951734172617939,3.4470040540970457
6.058761089467329,3.2148739371240596,5.986204213158909,3.485293375039971
6.09090982883857,3.2136179035051162,6.021057146909309,3.5227167894642473
6.123046007873621,3.209904926329096,6.056284314803951,3.5590241574827335
6.155145057136912,3.203879637243812,6.091874556378778,3.5939556844956946
6.18718385350935,3.195698511578413,6.127814113223735,3.6272450245590218
6.219140838625134,3.1855277200798064,6.164086563469326,3.658622653040744
6.250996115825933,3.17354071322544,6.200672789999733,3.6878194605805086
6.282731522958187,3.159915570368838,6.237550984605538,3.7145705136205796
6.314330678661875,3.144832155720694,6.274696689741744,3.7386189198188036
6.345779000219082,3.128469133363908,6.312082878939933,3.7597197296010947
6.377063691552721,3.111000903629179,6.349680076235943,3.7776437982673654
6.408173700589012,3.09259453253026,6.387456514218616,3.792181526933007
6.439099645914315,3.0734067537514425,6.4253783294879465,3.803146395848775
6.469833713451829,3.0535811280017326,6.463409793446434,3.810378201098615
6.500369524731846,3.033245446530698,6.5015135754574205,3.813745906163209
6.530701979197152,3.0125094635031187,6.539651034519053,3.8131500241077214
6.560827073832184,2.9914630352642475,6.5777825347601295,3.808524454742284
6.590741704184826,2.970174733155664,6.615867779307552,3.799837714214876
6.620443451516383,2.9486909807453974,6.653866156449701,3.7870935119042928
6.649930361323837,2.9270357468409522,6.6917370915687435,3.7703306504966125
6.679200718792247,2.905210803593588,6.729440398073709,3.7496222486237247
6.708252826828183,2.883196535822473,6.766936620559947,3.72507430994428
6.737084792186407,2.8609532650010774,6.8041873636593895,3.6968236863908612
6.765694324836418,2.838423030760786,6.841155600523298,3.66503550482385
6.794078555144026,2.8155317556983452,6.877805955571537,3.629900144044594
6.822233872701009,2.7921917068061948,6.914104957011983,3.5916298619094684
6.850155789769071,2.7683041596163767,6.950021255631078,3.55045517950751
6.877838831365234,2.743762169311262,6.985525807426153,3.50662113089297
6.905276453058347,2.718453356294194,7.0205920187350825,3.46038348306965
6.932460986621289,2.692262621327985,7.055195853565779,3.4120050225823193
6.95938361283457,2.665074716363425,7.0893159037916025,3.3617519932356226
6.986034359998204,2.636776610476551,7.122933423723959,3.3098907553189094
7.01240212610297,2.6072596047828545,7.156032331277148,3.2566847214460206
7.038474722150799,2.576421164764455,7.188599178491608,3.2023916087820146
7.0642389337984435,2.54416645227086,7.2206230945794285,3.1472610328861683
7.089680598321152,2.5104095518893397,7.252095704908291,3.0915324552779597
7.114784693840045,2.475074397007936,7.28301102946107,3.0354334855155347
7.139535437810125,2.438095409505573,7.313365364316225,2.979178529232986
7.163916391905181,2.39941787357211,7.3431571496085555,2.922967766206043
7.187910570640902,2.358998068796971,7.372386827270616,2.8669864369700533
7.2115005513288715,2.316803190572772,7.401056691640316,2.8114044125841517
7.234668583234599,2.27281108729829,7.429170735766157,2.7563760195684277
7.257396694107582,2.22700984411076,7.456734495961841,2.7020400905795796
7.2796667925486895,2.179397242201931,7.483754896867637,2.64852021079698
7.301460764970709,2.129980121422353,7.510240098975607,2.595925130060282
7.322760566184932,2.0787736720662777,7.53619935027621,2.544349311365746
7.343548302905595,2.02580067962855,7.561642843389867,2.4938735872645177
7.36380630970188,1.9710907440696035,7.586581579262512,2.444565896920398
7.383517217142576,1.9146794928142552,7.611027238231716,2.396482078014297
7.402664012070719,1.8566078044130505,7.634992059011859,2.3496666892865834
7.421230090114849,1.7969210575552699,7.658488725904725,2.3041538412610105
7.439199300690402,1.7356684179650947,7.681530264317335,2.259968014578351
7.456555984870053,1.6729021736474752,7.704129944463118,2.2171248473725877
7.4732850066065275,1.6086771269790348,7.726301192936845,2.1756318752375874
7.489371777876318,1.5430500502567217,7.74805751168922,2.1354892095475733
7.504802278378885,1.4760792095142465,7.769412403784695,2.096690142199357
7.519563070474027,1.4078239596834266,7.790379305206689,2.059221667226101
7.533641310070862,1.338344412504039,7.81097152187895,2.0230649121783904
7.547024754195902,1.267701176962294,7.831202171000734,1.9881954746650186
7.559701765965524,1.1959551704571125,7.851084125747384,1.9545836619791233
7.571661317670095,1.123167497350476,7.870629962367175,1.9221946342900744
7.5828929926436,1.049399390052656,7.889851908710076,1.8909884544409195
7.593386986544127,0.9747122063298801,7.908761793254485,1.8609200499346803
7.603134108607426,0.8991674751124576,7.927370993753832,1.8319390951941226
7.61212578335855,0.8228269817453794,7.945690384705773,1.803989824604214
7.620354053176004,0.7457528823904397,7.963730282951815,1.777010789148866
7.627811581999908,0.6680078361993125,7.981500390843303,1.7509345715749896
7.634491660361901,0.5896551429822539,7.999009736559053,1.7256874768840336
7.6403882117917234,0.5107588734592486,8.016266611327893,1.7011892164758893
7.645495800526316,0.4313839788700592,8.033278503492651,1.6773526053514876
7.649809640315016,0.3515963668121366,8.050052029546165,1.6540832923093116
7.653325603983138,0.27146293074525646,8.066592862469259,1.631279542937047
7.65604023329059,0.1910515217152628,8.082905657898628,1.6088320943012457
7.657950748507743,0.11043085255528728,8.09899397884164,1.5866240984953257
7.659055057033296,0.02967032714283381,8.114860219826594,1.5645311695752864
7.659351760304724,-0.05116020979031784,8.130505531522347,1.5424215448991627
7.658840158206821,-0.13199080334210334,8.145929746971339,1.5201563675591943
7.657520250173399,-0.21275179678192824,8.161131310646931,1.497590091595193
7.65539273220558,-0.2933743105669331,8.176107211562883,1.4745710062179158
7.652458989099911,-0.37379078084604067,8.190852921625062,1.4509418696350624
7.64872108129145,-0.4539355422470076,8.205362340321413,1.4265406375962109
7.64418172586898,-0.5337454361667455,8.219627746697375,1.4012012668229308
7.638844271507312,-0.6131604229040085,8.233639759365605,1.3747545694317787
7.632712667278272,-0.6921241740046171,8.247387305059924,1.3470290916199195
7.625791425538226,-0.7705846202943551,8.260857595976123,1.3178519885234579
7.618085579335283,-0.8484944313380733,8.274036115861358,1.2870498674335782
7.609600635021902,-0.9258114034799949,8.286906614535694,1.254449573499993
7.600342520987102,-1.0024987360914537,8.299451110270693,1.2198788955706776
7.590317533626187,-1.0785251789949157,8.311649899226401,1.1831671746955754
7.579532281836238,-1.153865037996438,8.323481570973357,1.1441458037437622
7.5679936314562735,-1.2284980297502437,8.334923029010794,1.1026486131644708
7.555708651158771,-1.3024089814944366,8.345949515142438,1.058512144749285
7.542684561343827,-1.3755873752496615,8.356534636589931,1.011575821923198
7.52892868759133,-1.4480267396208155,8.366650394809163,0.9616820312494979
7.514448420195122,-1.5197238952079442,8.376267215121658,0.908676135193495
7.499251181243043,-1.5906780617138927,8.385353976473592,0.8524064405567969
7.483344400625904,-1.6608898361088937,8.39387804087916,0.7927241502622286
7.4667355022648145,-1.7303600517245168,8.401805282381783,0.7294833283184733
7.44943190174757,-1.7990885280114006,8.409100115664968,0.6625409088697616
7.431441016467455,-1.867072720063675,8.415725524753665,0.5917567803327279
7.412770289266819,-1.9343062760753542,8.421643092556993,0.5169939748565303
7.393427226506065,-2.0007775098527785,8.426813032305558,0.43811899183119435
7.373419451407537,-2.066467794566816,8.431194222223871,0.35500228201255135
7.352754773461869,-2.1313498832848525,8.434744245043996,0.2675189160971996
7.33144127462902,-2.1953861616552217,8.437419434204967,0.17554945829295496
7.309487413012468,-2.258526838584202,8.439174928787898,0.07898106156894254
7.286902144626626,-2.320708081981854,8.439964739403587,-0.022291203230004372
7.263695063806807,-2.3818501087647053,8.439741827371288,-0.1283627774612826
7.23987656271916,-2.4418552413675294,8.438458199596674,-0.23931780312741907
7.215458010305484,-2.5006059470766737,8.4360650215654,-0.355227075996127
7.190451950834718,-2.5579628815579714,8.432512750805438,-0.47614577802165503
7.164872322019138,-2.6137629639712747,8.427751293025223,-0.6021110133055356
7.138734692379425,-2.6678175179431505,8.421730182892167,-0.7331391828400048
7.112056517199994,-2.7199105202442064,8.414398791063768,-0.8692232456991172
7.084857411997552,-2.769797007043263,8.405706558606777,-1.0103299281181948
7.057159441927119,-2.817201695750765,8.395603259325595,-1.1563969568566008
7.028987424969611,-2.8618178882795644,8.384039289757029,-1.307330409061938
7.000369246086816,-2.9033067284938694,8.370965985666409,-1.463002287082259
6.971336178801877,-2.941296892026741,8.356335962795587,-1.623248442678265
6.94192320988161,-2.975384789758105,8.340103478368805,-1.7878669900740394
6.912169361984029,-3.005135366205823,8.322224808468064,-1.9566173603007821
6.882118008321971,-3.030083569980581,8.302658634865056,-2.1292201592524047
6.851817172622165,-3.0497365643657446,8.281366433272531,-2.3053579976208485
6.821319806978508,-3.063576731126551,8.258312853296323,-2.4846774612325104
6.7906840396672425,-3.0710654990721165,8.233466078683998,-2.666792384157018
6.759973384676521,-3.0716480001457445,8.206798154842428,-2.8512885733783104
6.729256904675064,-3.064758519678517,8.178285269108645,-3.0377301121852227
6.698609319478279,-3.0498266641119804,8.147907967986793,-3.225667339579943
6.668111052837159,-3.0262841197223613,8.115651294590993,-3.414646565331335
6.637848211639936,-2.9935718210479396,8.08150482893768,-3.604221535949802
6.607912493429456,-2.9511472899408924,8.045462613578183,-3.793966617788547
6.578401020530047,-2.89849184830646,8.007522947400297,-3.983491612511398
6.549416102046983,-2.8351173532844527,7.967688031275182,-4.17245807096566
6.521064928514138,-2.7605720571994197,7.925963450565526,-4.360596928359077
6.493459207942144,-2.674445160990974,7.882357481281935,-4.547727251120385
6.466714756332235,-2.576369614497019,7.836880208770731,-4.733775868067953
6.440951060187264,-2.4660227259358223,7.789542450090051,-4.918797658177739
6.416290832927906,-2.343124183201943,7.740354473508274,-5.102996283831389
6.3928595910958865,-2.207431170142649,7.689324510669961,-5.2867451856971375
6.37078527939446,-2.058730395126346,7.636457058812989,-5.470608677270478
6.350197975443197,-1.8968270591512533,7.581750972040284,-5.6553629609453475
6.331229704851684,-1.7215311159982156,7.525197342430831,-5.842016772731251
6.314014393691702,-1.532641689458482,7.466777174703518,-6.031831041073544
6.298687976797117,-1.3299313433358653,7.406458864292782,-6.226336225718777
6.285388663363759,-1.1131332843858552,7.3441955020355945,-6.427344549974326
6.2742573305199,-0.8819369350717114,7.279922056535852,-6.636951567266515
6.265437961169183,-0.6360013716193362,7.213552540863186,-6.857516391505767
6.259077947452989,-0.3750031206015133,7.144977376948129,-7.091600734826659
6.255327916246975,-0.09874674051340593,7.074061369599862,-7.34183080363259
6.25434044884184,0.19261360903647923,7.000643061563537,-7.6106188931863015
6.256266584932205,0.49816255353109284,6.924536872631673,-7.899638261407486
6.261248210467516,0.8155006404967566,6.845540490017599,-8.208884267385548
6.269403216872483,1.139549887012738,6.763451647343743,-8.53509469736478
6.280798715742611,1.4607506836390682,6.678100700370095,-8.869321681165271
6.295406222579001,1.7627618958022975,6.589407483558443,-9.193768598988692
6.313033841537024,2.020553296739876,6.497469797568556,-9.479046198046044
6.333239374504423,2.201254761025461,6.402679335588095,-9.685009705762983
6.355251922114677,2.271201801191441,6.305829238530465,-9.769832766299642
6.377963940126591,2.209755324474371,6.208130910867468,-9.708131873547007
6.400061493371335,2.0219002500239163,6.111049592131998,-9.50737787281812
6.420280495871574,1.7372882408231098,6.015975813403817,-9.20613251496646
6.437653378279805,1.3953152070045907,5.923914488254153,-8.853981782085365
6.451606530349851,1.0298341292578137,5.835374670433299,-8.491655703400662
6.461904871642429,0.6630956155022061,5.750458113399293,-8.14381133301785
6.468535827797451,0.3071088771195437,5.669020000069114,-7.821536968600752
6.471606916568646,-0.03276284494924603,5.590804630383107,-7.527476675837192
6.471279288119153,-0.35477412784017603,5.515529863624735,-7.259937319086419
6.467731546840752,-0.6588941105014827,5.442930490433871,-7.015376943662274
6.461142605735737,-0.94576864542946,5.372776720997249,-6.789710003301682
6.451684919281442,-1.2162053107339803,5.304879620964232,-6.578925497505662
6.439522866174102,-1.4709424101619673,5.239090365989175,-6.379348347460993
6.424813442072483,-1.7105635527863066,5.175296882514565,-6.1877286621784675
6.40770780654462,-1.9354837237424716,5.11341959589278,-6.001253773813482
6.388352969307195,-2.145968645241676,5.0534070581546455,-5.817529195352455
6.366893282854778,-2.342168076383629,4.995231766201121,-5.634549733985726
6.343471602090942,-2.524153311256954,4.938886268861263,-5.45066968999239
6.318230068978372,-2.6919539610770062,4.88437957196134,-5.264575192620487
6.291310529367602,-2.8455915170521497,4.831733820035135,-5.0752590593769185
6.262854614197081,-2.985108407706027,4.780981229441365,-4.881997491972947
6.233003530120021,-3.110591906110089,4.732161254521635,-4.684327629357102
6.20189761105892,-3.2221926163338033,4.685317978228064,-4.482025057818379
6.169675684895582,-3.3201375219262457,4.640497727649881,-4.275080621546959
6.136474309676319,-3.404737778062136,4.597746921434411,-4.063676174720856
6.102426931895698,-3.476391597606802,4.557110159687203,-3.8481592086760035
6.06766301591963,-3.5355827247045797,4.518628567600443,-3.629016542220755
6.032307188672584,-3.582875104568386,4.482338402178235,-3.406847462338951
5.9964784376269,-3.6189044402049055,4.448269927554845,-3.1823368389832862
5.96028939322485,-3.644367372470811,4.416446559165013,-2.9562288109120605
5.923845719500142,-3.6600090283649367,4.386884271055892,-2.729301654075232
5.887245629216493,-3.666609655876904,4.35959125451514,-2.502344407924082
5.850579532657724,-3.6649710065058647,4.334567810435899,-2.2761357584730177
5.813929822592665,-3.6559030449481775,4.311806452851169,-2.0514255714250713
5.777370792143183,-3.640211466641376,4.291292197136918,-1.828919345866712
5.740968677476769,-3.618686395344265,4.273003003678251,-1.6092657300749482
5.704781813523327,-3.5920925219062254,4.256910346377501,-1.3930471157947897
5.668860888304264,-3.561160838193463,4.242979875219554,-1.1807732141754643
5.63324927992233,-3.526582021980919,4.231172143077799,-0.9728774216032654
5.597983459702521,-3.4890014432733385,4.221443368861767,-0.7697157109507573
5.5630934452697876,-3.4490156922948105,4.213746211752259,-0.5715677351280551
5.528603288346839,-3.407170475157235,4.2080305344009785,-0.3786398051667462
5.494531583595267,-3.3639596845862223,4.2042441363493115,-0.1910694026752747
5.460891986749404,-3.319825428621091,4.2023334423225585,-0.008930903488057557
5.427693732463193,-3.275158787754049,4.202244133287678,0.16775777790497778
5.394942144585652,-3.230301067952098,4.2039217110667275,0.3390278688818439
5.362639133906131,-3.185545320715568,4.207311989755546,0.5049519370895081
5.330783680698976,-3.1411379092303964,4.212361509126441,0.6656357421903624
5.299372301606672,-3.097279909636652,4.219017866548344,0.8212098174165658
5.268399502510306,-3.0541281469772916,4.22722996472251,0.9718207996482495
5.237858221040533,-3.011795675917442,4.236948172718993,1.1176224730335491
5.207740264281358,-2.970351527443553,4.248124397449328,1.2587664447617946
5.178036749006923,-2.9298195566735705,4.260712061896946,1.3953923368749177
5.148738553440187,-2.8901762479872923,4.274665985265695,1.5276173614198023
5.1198367909603135,-2.8513473691071027,4.289942158879893,1.6555251574915653
5.091323317269243,-2.8132034263188954,4.306497410454809,1.7791538219590368
5.063191283006054,-2.7755539737703967,4.3242889486744,1.8984831805949502
5.03543574326835,-2.7381409900386866,4.343273780480349,2.0134215483365647
5.008054333367963,-2.7006317769470423,4.363407995963715,2.123792545484974
4.981048015598493,-2.6626121789514836,4.3846459214185645,2.2293229969975528
4.954421893808978,-2.6235813742679857,4.40693915138854,2.3296335541502877
4.928186080066298,-2.5829500295501786,4.4302354869300435,2.4242344102652122
4.902356579770796,-2.5400441612233613,4.454477831032696,2.512529226949078
4.876956138158563,-2.494117446893737,4.479603123302186,2.5938309199171266
4.8520149636896255,-2.444374716188192,4.505541432501357,2.6673929097543936
4.827571216527743,-2.3900085809701643,4.532215361598901,2.7324583534835116
4.803671130718041,-2.3302493256670327,4.559539945133736,2.788327308722428
4.780368637461371,-2.26442518680668,4.58742321822096,2.8344376411111973
4.7577243855933045,-2.1920264168026367,4.6157675946320715,2.8704503524977865
4.735804121425278,-2.1127631122077855,4.644472098157049,2.8963253699366827
4.7146764903032,-2.0266052269155814,4.673435351856416,2.912371828103606
4.694410438034044,-1.9337948481637552,4.702559070137451,2.9192593696418316
4.675072489552407,-1.8348259723561984,4.73175166383387,2.917984325082072
4.6567242298288445,-1.7303943324450037,4.76093150708469,2.9097948830639897
4.639420286504395,-1.6213267096274078,4.79002945591533,2.8960888785280225
4.62320701940812,-1.5085030628187184,4.818990344700611,2.878303071931454
4.608121988779933,-1.3927845797475713,4.8477733754199255,2.8578122196187805
4.594194142982458,-1.2749571043814616,4.876351497616113,2.8358509117857915
4.581444571938643,-1.1556942403090786,4.904710006733971,2.813463809231898
