th1 (rad),w1 (rad/s),th2 (rad),w2 (rad/s),a1 (rad/s^2),a2 (rad/s^2)
2.31231682100203,-2.4651067052494113,6.127163101675077,1.6653402463061406,-8.662442855659213,-1.4603961161725445
2.2876657539495358,-2.5517311338060034,6.1438165041381385,1.6507362851444152,-8.611997709520443,-0.8771892368159113
2.2621484426114757,-2.6378511109012077,6.160323866989582,1.6419643927762562,-8.566813067208273,-0.25222067310111473
2.2357699315024635,-2.7235192415732903,6.176743510917345,1.639442186045245,-8.532236091146542,0.41073626600152247
2.2085347390867307,-2.8088416024847556,6.193137932777797,1.6435495487052603,-8.51341939596847,1.1087487727486862
2.1804463230618834,-2.8939757964444404,6.20957342826485,1.6546370364327472,-8.51537257365347,1.839802601285905
2.151506565097439,-2.9791295221809753,6.226119798629178,1.6730350624456063,-8.543037640426952,2.602871220400703
2.1217152698756294,-3.064559898585245,6.242850149253634,1.6990637746496133,-8.60138571134222,3.397985243010859
2.091069670889777,-3.1505737556986673,6.2598407870001305,1.7330436270797218,-8.695533780182773,4.226311082930126
2.0595639333327904,-3.237529093500495,6.277171223270928,1.775306737909023,-8.830882225589448,5.090247730520908
2.0271886423977854,-3.3258379157563893,6.294924290650019,1.8262092152142322,-9.013275540148403,5.993550824255964
1.9939302632402216,-3.4159706711578735,6.313186382802161,1.8861447234567918,-9.249190794189998,6.941493948220536
1.959770556528643,-3.508462579099773,6.332047830036728,1.9555596629389973,-9.545960534248657,7.941078385275366
1.9246859307376452,-3.60392218444226,6.351603426666118,2.034970446791751,-9.912039210989722,9.001304422010577
1.8886467088932226,-3.703042576552157,6.371953131134036,2.124983491011857,-10.357324817055225,10.133519645621107
1.851616283127701,-3.8066158247227095,6.3932029660441545,2.226318687468068,-10.893550032124944,11.351862175044282
1.813550124880474,-3.915551325043959,6.415466152918835,2.3398373092185105,-11.534759325789057,12.673818615052019
1.7743946116300344,-4.030898918301849,6.43886452601102,2.466575495369031,-12.297888933804003,14.120915846620468
1.734085622447016,-4.15387780763989,6.463530280964711,2.6077846538352354,-13.203462625648184,15.719558491613459
1.692546844370617,-4.285912433896372,6.489608127503063,2.76498023875137,-14.27640169015,17.502001309470213
1.6496877200316533,-4.428676450797872,6.517257929890577,2.940000251846072,-15.546909725357859,19.507389528881568
1.6054009555236746,-4.584145548051451,6.546657932409038,3.1350741471348877,-17.05130446749341,21.78267161652588
1.5595595000431601,-4.7546585927263845,6.578008673880387,3.3529008633001465,-18.83247289728493,24.382907424123786
1.5120129141158962,-4.942983321699233,6.611537682513388,3.5967299375413844,-20.939202588062866,27.369891285693985
1.462583080898904,-5.152375347579862,6.647504981888802,3.870428850398324,-23.42274385271214,30.806735541263297
1.4110593274231054,-5.386602786106983,6.686209270392785,4.178496205810957,-26.327083518544885,34.74341212388951
1.3571932995620355,-5.649873621292432,6.727994232450895,4.525930327049852,-29.665614790525513,39.182898865564475
1.3006945633491112,-5.946529769197687,6.773253535721393,4.917759315705497,-33.36964922436734,44.00739605609949
1.2412292656571342,-6.28022626144136,6.822431128878448,5.357833276266492,-37.18230613192361,48.82736684535104
1.1784270030427206,-6.652049322760596,6.876009461641114,5.8461069447200025,-40.45951516289253,52.699723849828395
1.1119065098151146,-7.056644474389521,6.934470531088314,6.373104183218286,-41.86136607138422,53.692239650594786
1.0413400650712195,-7.475258135103363,6.998201572920497,6.910026579724234,-39.0876126579467,48.51257404049077
0.9665874837201858,-7.866134261682831,7.067301838717739,7.395152320129142,-29.3237941948401,33.144245076895125
0.8879261411033574,-8.159372203631232,7.141253361919031,7.726594770898093,-11.552409940135993,6.120287528880543
0.8063324190670451,-8.274896303032593,7.218519309628012,7.787797646186899,10.046652658262795,-26.658950959558897
0.7235834560367191,-8.174429776449966,7.2963972860898805,7.52120813659131,27.217484011349214,-53.48344019054842
0.6418391582722195,-7.902254936336473,7.371609367455793,6.986373734685826,34.97699603723922,-67.19801041645144
0.5628166089088548,-7.552484975964081,7.441473104802651,6.314393630521312,34.858858732924595,-69.8307485295493
0.48729175914921397,-7.203896388634835,7.504617041107864,5.616086145225819,30.78410226841288,-66.83007653757613
0.4152527952628656,-6.896055365950706,7.5607779025601225,4.947785379850058,25.550480236663823,-62.11864350470258
0.3462922416033586,-6.640550563584068,7.610255756358623,4.326598944803032,20.456064677662777,-57.53310506296952
0.2798867359675179,-6.43598991680744,7.653521745806653,3.7512678941733366,15.940528966482395,-53.704102276550884
0.2155268367994435,-6.276584627142616,7.691034424748387,3.2142268714078277,12.078633159898017,-50.74075102880012
0.15276099052801734,-6.155798295543636,7.723176693462465,2.7068193611198264,8.819579869407667,-48.56434979941367
0.09120300757258099,-6.067602496849559,7.750244887073663,2.2211758631256897,6.08395323285236,-47.0443083461271
0.030526982604085394,-6.006762964521035,7.77245664570492,1.7507327796644185,3.7982420722212016,-46.04708835148363
-0.029540647041124954,-5.968780543798823,7.789963973501564,1.2902618961495822,1.9046973007624295,-45.4507500393728
-0.08922845247911318,-5.9497335707911985,7.80286659246306,0.8357543957558542,0.3621227828479317,-45.14702350591848
-0.14872578818702517,-5.946112342962719,7.811224136420618,0.3842841606966694,-0.8563496166757646,-45.03954441838481
-0.20818691161665237,-5.954675839129477,7.815066978027585,-0.06611128348717871,-1.7662811255874493,-45.04152031108851
-0.2677336700079471,-5.9723386503853515,7.814405865192713,-0.5165264865980639,-2.3749967644350307,-45.07397216157191
-0.3274570565118006,-5.9960886180297015,7.809240600326732,-0.9672662082137831,-2.6844904164694,-45.064859997222456
-0.3874179426920976,-6.022933522194395,7.799567938244595,-1.4179148081860076,-2.6941100621710383,-44.94906159768804
-0.4476472779140416,-6.049874622816105,7.7853887901627346,-1.8674054241628881,-2.4029905191893985,-44.669022870118
-0.5081460241422027,-6.073904528008,7.766714735921106,-2.314095652864068,-1.812179717986149,-44.175825289241665
-0.5688850694222827,-6.092026325187861,7.743573779392465,-2.755853905756485,-0.9263836150700155,-43.43038643159061
-0.6298053326741613,-6.101290161338562,7.7160152403349,-3.1901577700723913,0.24474603808568174,-42.404519362604944
-0.6908182342875469,-6.098842700957705,7.684113662634176,-3.6142029636984407,1.6858317380766648,-41.081626198998705
-0.7518066612971239,-6.081984383576938,7.647971632997192,-4.025019225688427,3.3755022089191256,-39.45688536141939
-0.8126265051328933,-6.0482293614877465,7.607721440740307,-4.419588079302621,5.28658507406593,-37.53689578623499
-0.8731087987477707,-5.9953635107470875,7.563525559947281,-4.794957037164972,7.386661340744776,-35.33884193157091
-0.9330624338552416,-5.921496897339639,7.515575989575631,-5.148345456480681,9.638857886434858,-32.88931690715346
-0.992277402828638,-5.825108318475291,7.464092535010825,-5.477238625552215,12.0027600005195,-30.222970419208202
-1.0505284860133908,-5.705080718470096,7.409320148755302,-5.779468329744297,14.435360820814836,-27.381129181058274
-1.1075792931980917,-5.560727110261947,7.3515254654578595,-6.05327962155488,16.8920167712218,-24.410480065612578
-1.163186564300711,-5.391806942549729,7.290992669242311,-6.297384422211006,19.327430473210217,-21.3618316449463
-1.2171046337262084,-5.198532637817626,7.2280188250202,-6.511002738660469,21.696717270557073,-18.288903217063005
-1.2690899601043846,-4.981565465112055,7.1629087976335954,-6.693891770831099,23.95661581301523,-15.24705385849739
-1.3189056147555052,-4.741999306981903,7.095969879925285,-6.846362309416073,26.066873566378842,-12.291869594838717
-1.366325607825324,-4.481330571318114,7.027506256831124,-6.9692810053644605,27.991781674370632,-9.47757349141826
-1.4111389135385053,-4.201412754574408,6.95781344677748,-7.064056740278643,29.701766270844107,-6.855297690738039
-1.4531530410842495,-3.9043950918659664,6.887172879374694,-7.132609717186023,31.17488572971211,-4.471335856950615
-1.4921969920029092,-3.5926462345688455,6.815846782202834,-7.177323075755529,32.39805458107099,-2.365554827710552
-1.5281234543485978,-3.2686656887581353,6.744073551445278,-7.200978624032635,33.36782650878733,-0.5701666728388691
-1.5608101112361792,-2.934987423670262,6.6720637652049515,-7.206680290761024,34.090621071294926,0.8909607242670041
-1.5901599854728818,-2.5940812129573128,6.599996962297341,-7.197770683518353,34.58235993764934,2.002339120740841
-1.616100797602455,-2.248257613580819,6.528019255462158,-7.177747292310944,34.86756896851616,2.7562113313086773
-1.6385833737382633,-1.8995819238956577,6.456241782539048,-7.150185178997858,34.97808129180838,3.151274706302839
-1.65757919297722,-1.5498011109775738,6.3847399307490695,-7.118672431934829,34.951527326466135,3.190900016249027
-1.6730772040869957,-1.2002858377129124,6.313553206429721,-7.086763431772339,34.8298129615114,2.881005516698006
-1.685080062464125,-0.8519877080977984,6.242685572111998,-7.057953376605359,34.65776833482039,2.2277500183853434
-1.693599939545103,-0.5054100247495945,6.172106038345944,-7.0356758764215055,34.48210442145199,1.235188681058065
-1.6986540397925989,-0.1605889805350746,6.101749279581728,-7.023323989610925,34.35075134863265,-0.09699304968874053
-1.7002599295979497,0.18291853295125193,6.031516039685619,-7.024293920107812,34.31257425447044,-1.775565701822778
-1.6984307442684372,0.5260442754959563,5.961273100484541,-7.04204957712604,34.41736080956591,-3.8155272432483947
-1.6931703015134776,0.8702178835916154,5.890852604713281,-7.080204849558524,34.71581870236084,-6.241291074141767
-1.6844681226775615,1.217376070615224,5.820050556217696,-7.142617760299942,35.25904184207489,-9.086688765004013
-1.6722943619714092,1.5699664890359728,5.748624378614696,-7.2334846479499815,36.09635815068841,-12.39245800824407
-1.6565946970810494,1.930930070542857,5.676289532135197,-7.357409228032422,37.26938030578258,-16.198378795498687
-1.6372853963756209,2.303623873600683,5.602715439854872,-7.519393015987409,38.79792567333237,-20.524209183472102
-1.614249157639614,2.6916031303340064,5.527521509694998,-7.72463510782213,40.649407571486265,-25.327854829534765
-1.587333126336274,3.098097206048869,5.450275158616777,-7.977913656117478,42.67643118272105,-30.419464225046617
-1.5563521542757852,3.52486151787608,5.370496022055602,-8.282108298367945,44.49884622858068,-35.297870697941555
-1.5211035390970244,3.9698499801618867,5.287674939071922,-8.63508700534736,45.30849525000647,-38.877547037744144
-1.4814050392954057,4.422934932661952,5.201324069018449,-9.023862475724801,43.63507889121071,-39.156266799649316
-1.4371756899687862,4.859285721574059,5.111085444261201,-9.415425143721293,37.341293074766526,-33.19179733245049
-1.3885828327530456,5.232698652321725,5.016931192823988,-9.747343117045798,24.540688178813735,-18.34940497238155
-1.3362558462298284,5.478105534109862,4.91945776165353,-9.930837166769614,5.938902810729901,4.4783001829204645
-1.2814747908887298,5.537494562217161,4.820149389985834,-9.88605416494041,-13.452228081252409,28.51109393134971
-1.2260998452665581,5.4029722814046375,4.72128884833643,-9.600943225626912,-27.297892469793855,45.19229006615341
-1.1720701224525119,5.129993356706699,4.6252794160801605,-9.149020324965377,-33.2689284192341,51.47063717178399
-1.1207701888854449,4.797304072514358,4.533789212830507,-8.634313953247538,-33.390769227675115,50.1848675798216
-1.0727971481603014,4.463396380237606,4.447446073298031,-8.132465277449322,-30.639809264121364,45.37174506429428
-1.0281631843579253,4.156998287596393,4.3661214205235375,-7.678747826806379,-26.990323057413104,39.645738890847696
-0.9865932014819614,3.8870950570222615,4.289333942255474,-7.2822904378979025,-23.37426326155628,34.19523024014012
-0.9477222509117388,3.6533524244066986,4.2165110378764945,-6.940338135496502,-20.13071931396817,29.41671372076429
-0.9111887266676718,3.452045231267017,4.14710765652153,-6.646170998288859,-17.333005207878212,25.36302889627629
-0.8766682743550016,3.278715179188235,4.080645946538641,-6.392540709326096,-14.95300921367822,21.96360157104621
-0.8438811225631193,3.129185087051453,4.01672053944538,-6.172904693615634,-12.932163594948218,19.116878380271373
-0.8125892716926048,2.999863451101971,3.9549914925092238,-5.981735909812921,-11.209154487390764,16.72475655763598
-0.7825906371815851,2.887771906228063,3.8951741334110945,-5.814488344236561,-9.729350567196745,14.703122763514578
-0.7537129181193044,2.7904784005560956,3.837029249968729,-5.667457116601415,-8.446975580173934,12.983274290560233
-0.7258081341137435,2.7060086447543563,3.780354678802715,-5.537624373695813,-7.324636692963482,11.51025622588126
-0.6987480476661999,2.6327622778247215,3.724978435065757,-5.422521811437001,-6.332066734594449,10.240459010272506
-0.6724204248879527,2.569441610478777,3.670753216951387,-5.320117221334276,-5.444791209512157,9.13931509896069
-0.646726008783165,2.5149936983836554,3.6175520447380443,-5.228724070344669,-4.6429642834047415,8.17933687968232
-0.6215760717993284,2.468564055549608,3.5652648040345976,-5.146930701547846,-3.9104353219483063,7.338512929682135
-0.5968904312438323,2.4294597023301248,3.513795497019119,-5.0735455722510245,-3.2340420727638763,6.599003503701974
-0.5725958342205311,2.397119281602486,3.463060041296609,-5.007555537214005,-2.6031080176731116,5.946057868458802
-0.5486246414045062,2.371088201425755,3.412984485924469,-4.948094958529417,-2.0091198615511368,5.367079724723553
-0.5249137593902486,2.3509970028102436,3.3635035363391745,-4.894424161282181,-1.4455630713775462,4.850779900938252
-0.5014037893621462,2.3365413720964683,3.3145592947263527,-4.845916362272798,-0.9078916409621294,4.386375680635823
-0.47803837564118157,2.327462455686847,3.2661001311036246,-4.80205260546644,-0.39359784456362845,3.9628263505484163
-0.4547637510843131,2.3235264772412108,3.21807960504896,-4.762424341960956,0.09767498438844614,3.5681389918641346
-0.431528486311901,2.324503227085095,3.1704553616293505,-4.726742952042314,0.5640692114034106,3.1888383151750204
-0.40828345404105004,2.3301439191991293,3.1231879321089275,-4.694854568890564,1.0016334641821505,2.8097608207011953
-0.38498201484905875,2.340160253840951,3.076239386420022,-4.666756960683553,1.404789570845885,2.4143803439839493
-0.36158041231064925,2.3542081495494096,3.029571816813186,-4.642613157243713,1.767289120607411,1.9858519050061065
-0.33803833081515516,2.3718810407554836,2.983145685240749,-4.622754638193652,2.083697226515687,1.5088196404461143
-0.3143195204076003,2.3927180130206405,2.9369181388588124,-4.607666441789191,2.35123545336488,0.9717527626511823
-0.2903923402773939,2.4162303675542893,2.8908414744409203,-4.5979489141626795,2.5715623910795165,0.3692225300051149
-0.266230036601851,2.4419459914650843,2.8448619852992936,-4.594256688862628,2.7519016580204267,-0.2967025450560964
-0.24181057668720018,2.4694650080452885,2.798919418410667,-4.597223714313189,2.9049988884447338,-1.0166691497033995
-0.2171159266067473,2.4985149969297358,2.7529471812675355,-4.607390405810222,3.0477544920461197,-1.7760805547253447
-0.19213077663744996,2.528992541850197,2.706873277209433,-4.625151211357476,3.1988935471717705,-2.558475505540802
-0.16684085121894798,2.5609814773219144,2.660621765095858,-4.650735966412884,3.3764162985919146,-3.349224684650513
-0.14123103644572885,2.5947456403078335,2.6141144054317293,-4.684228213259389,3.595604780180413,-4.138483534727307
-0.11528358004265052,2.6307016881096374,2.5672721232991353,-4.725613048606662,3.868054943116651,-4.922769191520242
-0.08897656316155414,2.669382237540804,2.5200159928130685,-4.7748407405218645,4.20177143630031,-5.705132460793378
-0.062282740786146096,2.711399951903807,2.4722675854078497,-4.831892065129798,4.60203760113351,-6.494347933346979
-0.03516874126710803,2.757420327915142,2.423948664756552,-4.8968355444632685,5.072662391994452,-7.303700333960993
-0.007594537987956607,2.8081469518350866,2.374980309311919,-4.969872547802878,5.617272620088041,-8.149855635723256
0.02048693153039426,2.864319678035967,2.32528158383389,-5.05137110416011,6.240463518086731,-9.052111757032257
0.04913012831075393,2.9267243132168344,2.274767872792289,-5.141892221730433,6.948758659173572,-10.032144155026577
0.07839737144292228,2.99621189980857,2.2233489505749846,-5.242213663280698,7.7514229904420935,-11.114250289506204
0.10835949044100798,3.073726129712991,2.170926813942178,-5.35335616617576,8.66121857433793,-12.326055548211917
0.1390967517381379,3.1603383154563707,2.1173932522804204,-5.476616721657879,9.695206405060398,-13.69965000817508
0.1707001348927016,3.2572903795069745,2.0626270850638417,-5.61361322173963,10.875694687322062,-15.273155534322976
0.20327303868777136,3.3660473263801953,2.0064909528464456,-5.7663447770828595,12.231422010951166,-17.09275523503403
0.2369335119515733,3.488361546489707,1.948827505075617,-5.9372723294332,13.799038998119293,-19.215231077291303
0.27181712741647035,3.6263519364709,1.889454781781285,-6.129424640206113,15.624891972743548,-21.711015566606125
0.30808064678117936,3.7826008561983357,1.8281605353792238,-6.3465347958721745,17.76695885745647,-24.667591980511414
0.34590665534316273,3.9602704447729002,1.7646951874205021,-6.593210715677289,20.29640260022649,-28.192589537052825
0.38550935979089174,4.163234470775165,1.6987630802637292,-6.875136611047817,23.297266326619223,-32.41467327276472
0.4271417044986434,4.396207134041357,1.630011714153251,-7.199283343775464,26.860577284444396,-37.47727698779252
0.471103775839057,4.6648129068858015,1.5580188807154964,-7.5740561136533895,31.063801429011473,-43.51293823256658
0.517751904907915,4.975450921175916,1.4822783195789626,-8.009185495979056,35.914347560874006,-50.56908151030091
0.5675064141196742,5.334594396784657,1.402186464619172,-8.514876311082064,41.20932468131914,-58.419205607665134
0.6208523580875207,5.7466876435978484,1.3170377015083514,-9.099068367158715,46.21520456885269,-66.12522261767239
0.6783192345234992,6.208839689286376,1.2260470178367642,-9.76032059333544,49.0268247868889,-71.15276302046728
0.7404076314163629,6.699107937155265,1.1284438119034097,-10.471848223540112,45.650891456807095,-68.09421381423631
0.8073987107879156,7.155616851723336,1.0237253296680087,-11.152790361682476,30.061368500922203,-48.720771091601826
0.8789548793051489,7.456230536732558,0.9121974260511839,-11.639998072598495,-0.9963096981172103,-8.602367027580637
0.9535171846724745,7.446267439751385,0.795797445325199,-11.726021742874302,-38.320512111092604,39.55240338074703
1.0279798590699882,7.063062318640459,0.678537227896456,-11.330497709066831,-63.55519942523133,70.64310810349251
1.098610482256393,6.427510324388146,0.5652322508057877,-10.624066628031906,-70.25065098483411,76.24878151075443
1.1628855855002744,5.7250038145398054,0.45899158452546857,-9.861578812924362,-66.1041927483227,67.26335129684816
1.2201356236456724,5.063961887056578,0.36037579639622497,-9.188945299955881,-58.96036973299016,54.45282686798297
1.2707752425162382,4.474358189726677,0.26848634339666616,-8.64441703127605,-52.264162506151436,42.40890552154787
1.315518824413505,3.9517165646651624,0.18204217308390563,-8.220327976060572,-46.91713717589762,32.24227428944704
1.3550359900601565,3.482545192906186,0.09983889332329991,-7.897905233166101,-42.926244905126275,23.876035741445154
1.3898614419892183,3.0532827438549233,0.0208598409916389,-7.659144875751649,-40.075854165214814,16.961276855283824
1.4203942694277676,2.652524202202775,-0.0557316077658776,-7.489532107198811,-38.137576749963195,11.155376483675795
1.4469195114497952,2.271148434703143,-0.1306269288378657,-7.377978342362053,-36.920689937520244,6.185287153212597
1.4696309957968268,1.9019415353279405,-0.2044067122614862,-7.3161254708299275,-36.274961971775404,1.8489578895858214
