th1 (rad),w1 (rad/s),th2 (rad),w2 (rad/s)
2.0286789071668863,-0.8337186370487915,3.5696762412908223,-2.378005305917377
2.0203417207963983,-0.8938909785057605,3.5458961882316484,-2.3424777255681017
2.0114028110113407,-0.9555004970243295,3.5224714109759674,-2.3091224847770127
2.0018478060410976,-1.018455589179169,3.4993801861281972,-2.278047920581699
1.991663250149306,-1.0826628061186896,3.4765997069223804,-2.249372878441419
1.980836622088119,-1.1480267505386912,3.4541059781379664,-2.223226008817947
1.9693563545827322,-1.214449987004711,3.4318737180497867,-2.199745023915685
1.957211854712685,-1.2818329561566815,3.40987626781063,-2.1790759151957366
1.9443935251511182,-1.3500738826112857,3.3880855086586723,-2.1613721324295163
1.9308927863250054,-1.4190686658318623,3.366471787334377,-2.146793725059072
1.9167020996666868,-1.4887107428718085,3.345003850083786,-2.1355064464766826
1.9018149922379688,-1.558890911724543,3.3236487856190196,-2.1276808215299408
1.8862260831207234,-1.629497104041295,3.30237197740372,-2.123491177115679
1.8699311120803104,-1.7004140962184902,3.281137065632563,-2.1231146351723633
1.8529269711181255,-1.7715231483223834,3.2599059192808393,-2.1267300667515103
1.8352117396349017,-1.842701561025248,3.238638618613324,-2.134517005189718
1.8167847240246493,-1.913822141693228,3.217293448561427,-2.1466545157694172
1.797646502607717,-1.984752572012412,3.1958269034037325,-2.1633200187141344
1.777798976887593,-2.0553546710913664,3.174193703216591,-2.184688061989353
1.7572454301766793,-2.125483549862637,3.1523468225966975,-2.210929040260471
1.735990594678053,-2.1949866548516677,3.130237532194093,-2.242207856593807
1.7140407281295362,-2.263702702018757,3.107815453628155,-2.2786825241849726
1.6914037011093486,-2.3314605044359435,3.085028628386305,-2.320502706681109
1.6680890960649892,-2.398077701059486,3.061823601319494,-2.36780819765739
1.6441083190543944,-2.46335939781513,3.0381455193429203,-2.420727342646322
1.6194747250762431,-2.5270967366298653,3.013938245916457,-2.47937541093316
1.5942037577099444,-2.5890654129036195,2.9891444918071253,-2.5438529292478185
1.5683131035809081,-2.6490241671742925,2.963705962514647,-2.6142439956134242
1.5418228619091652,-2.7067132823117466,2.937563522558513,-2.690614599038995
1.5147557290860476,-2.7618531233580987,2.910657376568123,-2.7730109795154307
1.4871371978524666,-2.8141427629348574,2.8829272667729686,-2.8614580728850756
1.458995770223118,-2.8632587407177366,2.8543126860441177,-2.95595809653332
1.4303631828159407,-2.908854010516601,2.8247531050787846,-3.0564893443413035
1.4012746427107747,-2.9505571325858595,2.7941882116353716,-3.163005272689404
1.3717690713849162,-2.987971771436199,2.7625581589084773,-3.2754339731496223
1.3418893536705543,-3.020676560042417,2.729803819176981,-3.3936781413708683
1.3116825880701302,-3.0482253892903515,2.6958670377632723,-3.517615664944607
1.2812003341772267,-3.0701481760745137,2.660690881113826,-3.6471009650278337
1.2504988524164815,-3.0859521539331785,2.6242198714635476,-3.7819672363920867
1.2196393308771498,-3.095123715826451,2.586400199099627,-3.922029737497843
1.1886880937188853,-3.0971308190981053,2.5471799017246486,-4.067090285285514
1.1577167855279042,-3.0914259375358726,2.5065089988717935,-4.216943107789889
1.1268025261525456,-3.0774495148754295,2.4643395677938944,-4.37138220068027
1.0960280310037913,-3.0546338387813217,2.420625745787092,-4.530210320786725
1.065481692615978,-3.022407215804741,2.375323642579225,-4.693249730083125
1.0352576204579307,-2.98019828871547,2.3283911452783936,-4.860354776923437
1.005455637570776,-2.9274403021403366,2.2797875975091593,-5.031426366669357
0.9761812345493726,-2.863575096992707,2.2294733338424657,-5.206428329248994
0.9475454835794455,-2.7880566082585316,2.1774090505499757,-5.3854056323384585
0.9196649174968602,-2.7003536685289555,2.123554994226591,-5.568504306795197
0.8926613808115706,-2.599952002811939,2.0678699511586394,-5.755992828087072
0.8666618607834513,-2.4863554721138157,2.0103100228777686,-5.948284500712831
0.8417983060623131,-2.359086937340416,1.9508271778706403,-6.145960062008058
0.8182074366889089,-2.217689657760425,1.8893675772505598,-6.349789150910898
0.7960305401113047,-2.0617310521376266,1.825869685741451,-6.560748290912534
0.7754132295899284,-1.8908121717925641,1.7602622028323256,-6.780031296443214
0.7565051078720028,-1.70458875264726,1.6924618898678934,-7.009044991141324
0.7394592203455301,-1.5028138580374302,1.6223714399564801,-7.249377938621745
0.7244310817651558,-1.2854188752190097,1.5498776605702627,-7.502721127478329
0.7115768930129657,-1.0526603822332354,1.4748504492954795,-7.770705165848584
0.7010502891906333,-0.8053767685462065,1.3971433976369936,-8.054596013954932
0.6929965215051712,-0.5454211359744181,1.3165974374974443,-8.354759093070832
0.687542310145427,-0.2763617460276209,1.2330498465667359,-8.669764344829087
0.6847786926851508,-0.004548695084624466,1.146352203118445,-8.994987203334956
0.6847332057343045,0.259421083293979,1.0564023310850954,-9.320637627569317
0.6873274165672443,0.4990719842701792,0.9631959548094022,-9.629488089520164
0.6923181364099461,0.6911103141326104,0.8669010739142006,-9.895403678687797
0.6992292395512723,0.8069754497070605,0.7679470371273226,-10.08504523921765
0.7072989940483428,0.8189665207653436,0.6670965847351461,-10.165531827332215
0.7154886592559963,0.7105659615936462,0.5654412664618239,-10.117582635351415
0.7225943188719327,0.48517907747817157,0.4642654401083098,-9.946480712154724
0.7274461096467144,0.16552479542591186,0.3648006329867625,-9.680712838681963
0.7291013576009735,-0.21658068026011434,0.26799350459994287,-9.358324469002115
0.7269355507983724,-0.6316097523051187,0.1744102599099217,-9.012382390674928
0.7206194532753212,-1.0580103208865714,0.08428643600317243,-8.664341370386055
0.7100393500664555,-1.4823244458762497,-0.002356977700688115,-8.324672235101874
0.695216105607693,-1.8969585925690855,-0.08560370005170685,-7.996284545560875
0.6762465196820021,-2.297878800990321,-0.1655665455073156,-7.677789133306798
0.653267731672099,-2.6829797386375587,-0.2423444368403836,-7.365734591440834
0.6264379342857234,-3.0511152424586254,-0.31600178275479196,-7.055926845538961
0.5959267818611371,-3.4015871205965125,-0.3865610512101816,-6.74414673491517
0.561910910655172,-3.7339104943803374,-0.45400251855933327,-6.426520590525812
0.5245718057113686,-4.047734221788816,-0.5182677244645914,-6.099702570954591
0.48409446349348045,-4.342843209090815,-0.5792647501741373,-5.760956274787976
0.4406660314025723,-4.619199979320004,-0.636874312922017,-5.408180160813429
0.3944740316093723,-4.877000634976878,-0.6909561145301513,-5.039897863838079
0.3457040252596035,-5.116730486888322,-0.7413550931685321,-4.655222755769174
0.29453672039072026,-5.339210577520974,-0.7879073207262238,-4.25380099799074
0.2411446146155105,-5.545630070011741,-0.8304453307061312,-3.83573590647507
0.1856883139153931,-5.737561979626094,-0.8688026897708819,-3.401497047676747
0.12831269411913215,-5.916961357952025,-0.9028176602476494,-2.9518192115219457
0.0691430805396119,-6.086145781068426,-0.9323358523628689,-2.4875988877030806
0.008281622728927643,-6.247757535810354,-0.9572118412398997,-2.009799163638645
-0.054195952629175904,-6.404704655705192,-0.9773098328762861,-1.519378633077685
-0.11824299918622783,-6.560072970200351,-0.992503619207063,-1.0172671951380958
-0.18384372888823133,-6.716992094822496,-1.002676291158444,-0.5044236910777512
-0.2510136498364563,-6.878422606271558,-1.0077205280692214,0.01796959615374405
-0.31979787589917186,-7.046806872099563,-1.007540832107684,0.5480886336712131
-0.3902659446201675,-7.223490980005591,-1.0020599457709718,1.0826932925010646
-0.46250085442022343,-7.4077872965545515,-0.9912330128459611,1.61581708272648
-0.536578727385769,-7.595541864768393,-0.9750748420186963,2.136742540985243
-0.6125341460334529,-7.777203150132666,-0.9537074166088438,2.6272847959821717
-0.6903061775347796,-7.935878470887531,-0.9274345686490221,3.0591182043715444
-0.769664962243655,-8.0469430982283,-0.8968433866053066,3.3934265449301018
-0.850134393225938,-8.082011199226512,-0.8629091211560056,3.586915185774119
-0.9309545052182031,-8.01918824700528,-0.8270399692982644,3.6068957076460184
-1.0111463876882558,-7.855611757925298,-0.7909710122218042,3.4496182645519187
-1.089702505267509,-7.6116377218444935,-0.756474829576285,3.1464390280456973
-1.165818882485954,-7.321070269080938,-0.725010439295828,2.749609688317832
-1.2390295851767632,-7.0161296882930095,-0.6975143424126496,2.3101200301820546
-1.3091908820596934,-6.718813606013577,-0.6744131421108291,1.864559744103122
-1.3763790181198292,-6.440470890848222,-0.6557675446697979,1.4339381199066172
-1.4407837270283115,-6.185047712574883,-0.6414281634707317,1.0280685838493937
-1.5026342041540603,-5.952384084681225,-0.6311474776322378,0.6502486713611162
-1.5621580450008725,-5.740426785418626,-0.6246449909186266,0.300493189657126
-1.6195623128550587,-5.5464612550397785,-0.6216400590220553,-0.022609659889914036
-1.6750269254054564,-5.367720238835752,-0.6218661556209545,-0.3209417233982246
-1.728704127793814,-5.201651392228464,-0.6250755728549368,-0.5964043687941685
-1.7807206417160986,-5.046013534381047,-0.6310396165428784,-0.8507310941424321
-1.8311807770599091,-4.898892536971331,-0.6395469274843028,-1.0854295976291761
-1.8801697024296224,-4.758682672565338,-0.6504012234605945,-1.3017837800583116
-1.9277565291552758,-4.624055446943033,-0.6634190612611776,-1.5008807211598245
-1.9739970836247063,-4.493925952956977,-0.6784278684727758,-1.683645562971286
-2.018936343154276,-4.36742093746908,-0.6952643241024886,-1.850876296643348
-2.062610552528967,-4.243850019936409,-0.7137730870689221,-2.0032749734691246
-2.1050490527283308,-4.122680274607672,-0.7338058368036133,-2.141474085750761
-2.1462758554744075,-4.0035138992566965,-0.7552205776611209,-2.2660579325861585
-2.1863109944669743,-3.8860685492272595,-0.7778811569869826,-2.3775792787724277
-2.2251716799592467,-3.770159922676757,-0.8016569497747068,-2.4765718229425744
-2.262873279186014,-3.6556862472470013,-0.8264226680041326,-2.5635590593024915
-2.299430141658484,-3.5426143956555713,-0.8520582585971574,-2.6390601180644917
-2.33485628561504,-3.4309674283682683,-0.8784488597778024,-2.7035931382945972
-2.3691659598987225,-3.3208134183119964,-0.9054847911607484,-2.7576766806354316
-2.4023740940818423,-3.2122554541771944,-0.9330615579671028,-2.801829634636225
-2.434496648623614,-3.1054227466210844,-0.961079854313465,-2.836570020444087
-2.465550876089825,-3.000462778086333,-0.9894455545179058,-2.8624130297048467
-2.4955555038706883,-2.8975344447214124,-1.0180696848149542,-2.8798685971499953
-2.5245308483179025,-2.7968021406025287,-1.0468683707864541,-2.889438743569502
-2.552498869723928,-2.6984307323417682,-1.0757627582221492,-2.8916148835177857
-2.5794831770473454,-2.6025813680361556,-1.104678907057327,-2.886875247816431
-2.605508990727707,-2.5094080597609505,-1.1335476595354914,-2.8756825321651522
-2.6306030713253166,-2.4190549744406806,-1.1623044848571429,-2.8584818492288635
-2.6547936210697234,-2.3316543646044936,-1.1908893033494314,-2.8356990325275433
-2.6781101647157683,-2.247325068625153,-1.2192462936747068,-2.807739316242093
-2.70058341540202,-2.166171509703791,-1.2473236868371278,-2.774986395443402
-2.722245130499058,-2.0882831240751147,-1.2750735507915618,-2.737801855917427
-2.743127961739809,-2.01373415152959,-1.3024515693507361,-2.696524951276899
-2.763265303255105,-1.9425837251627371,-1.3294168188635052,-2.6514726969493334
-2.7826911405067323,-1.8748762020088607,-1.3559315458329986,-2.602940245417928
-2.801439902526821,-1.8106416816266218,-1.3819609482871777,-2.5512015042759733
-2.8195463193430874,-1.7498966655150145,-1.4074729633299374,-2.4965099577681467
-2.8370452859982374,-1.692644816212273,-1.432438062907619,-2.4390996531025193
-2.85397173416036,-1.638877780861459,-1.4568290594386442,-2.3791863145409673
-2.8703605119689746,-1.588576049746761,-1.4806209225840539,-2.3169685507809135
-2.886246272466442,-1.5417098256839545,-1.503790608091863,-2.252629124149341
-2.9016633707232815,-1.498239885093908,-1.5263168993333565,-2.186336253414378
-2.9166457695742207,-1.458118416039646,-1.5481802618675002,-2.11824492540235
-2.931226953734617,-1.4212898224345276,-1.5693627111215238,-2.0484981939542446
-2.9454398519589624,-1.3876914870248307,-1.5898476930610663,-1.977228447967727
-2.9593167668292106,-1.357254488626912,-1.6096199775407436,-1.9045586332831175
-2.9728893117154795,-1.329904271484066,-1.6286655638735748,-1.8306034159435256
-2.98618835443032,-1.305561266538399,-1.64697159803301,-1.7554702768698995
-2.999243967095704,-1.2841414659321035,-1.664526300801709,-1.6792605302355306
-3.012085381755025,-1.2655569532074695,-1.6813189061040643,-1.6020702598069891
-3.0247409512870993,-1.2497163925135004,-1.6973396087021342,-1.5239911692527779
-3.0372381152122343,-1.2365254806954737,-1.7125795203946619,-1.445111343925564
-3.049603370019189,-1.2258873664856216,-1.7270306338339174,-1.365515922920388
-3.061862243684045,-1.217703041167615,-1.7406857930631212,-1.2852876813232976
-3.074039274095721,-1.2118717050892158,-1.7535386698763542,-1.2045075235169527
-3.0861579911466133,-1.2082911142756225,-1.7655837451115237,-1.1232548892265308
-3.0982409022893695,-1.206857911174817,-1.776816294003789,-1.0416080746950975
-3.1103094814011176,-1.2074679432648514,-1.78723237475074,-0.9596444719958012
-3.122384160833766,-1.2100165728865218,-1.7968288194706978,-0.8774407300407202
-3.134484326562631,-1.214398981244791,-1.805603226771105,-0.795072841352564
-3.1466283163750792,-1.2205104690578283,-1.8135539551846307,-0.7126161591424781
-3.1588334210656575,-1.2282467558314545,-1.8206801167760556,-0.6301453496979774
-3.171115888623972,-1.2375042792068418,-1.8269815702730354,-0.5477342855381216
-3.1834909314160407,-1.248180495279023,-1.8324589131284166,-0.46545588524201886
-3.195972736368831,-1.2601741802234114,-1.8371134719808369,-0.38338190629969326
-3.208574478171065,-1.273385733009637,-1.8409472910438338,-0.3015826977639543
-3.2213083355011616,-1.2877174784416276,-1.8439631180214733,-0.22012691988570673
-3.234185510285578,-1.303073969257413,-1.8461643872203304,-0.13908123827649882
-3.247216249978152,-1.3193622855708056,-1.8475551996030954,-0.058510000441414856
-3.26040987283386,-1.336492329560072,-1.8481402996075096,0.021525097258118395
-3.2737747961294605,-1.3543771130258244,-1.8479250486349283,0.10096534403845815
-3.2873185672597187,-1.372933035270029,-1.8469153951945438,0.17975534235805132
-3.301047897612419,-1.3920801487057282,-1.8451178417709633,0.2578433207836495
-3.3149686990994764,-1.4117424097043105,-1.8425394085631268,0.3351814243059729
-3.3290861231965194,-1.4318479124304642,-1.839187594320067,0.411725974762447
-3.343404602320824,-1.4523291038054456,-1.8350703345724426,0.48743769455678954
-3.3579278933588785,-1.47312297827263,-1.8301959576268747,0.5622818874978514
-3.372659123141605,-1.4941712517061343,-1.8245731387518962,0.6362285712826803
-3.387600835658666,-1.515420514590232,-1.8182108530390695,0.7092525568828697
-3.4027550408045686,-1.5368223654882336,-1.8111183274702407,0.7813334708141346
-3.418123264459451,-1.5583335267973524,-1.8033049927620994,0.852455716927587
-3.4337065997274245,-1.5799159458344456,-1.7947804355928236,0.9226083749058509
-3.449505759185769,-1.6015368854025522,-1.785554351843765,0.9917850330261543
-3.4655211280397946,-1.623169009140086,-1.7756365015135036,1.059983552915566
-3.4817528181311954,-1.644790468149004,-1.765036665984348,1.1272057639234276
-3.4982007228126855,-1.6663849966369704,-1.7537646083451137,1.1934570843300238
-3.514864572779055,-1.6879420255994244,-1.7418300375018134,1.2587460658613754
-3.5317439930350494,-1.7094568249239532,-1.7292425768431996,1.323083856857271
-3.5488385612842888,-1.730930685738642,-1.716011738274627,1.3864835779211155
-3.5661478681416754,-1.7523711563658761,-1.702146902495416,1.448959601954882
-3.5836715797053342,-1.7737923468967653,-1.687657306475867,1.5105267281551817
-3.601409503174302,-1.795215319170462,-1.6725520391943152,1.571199236845685
-3.6193616563660065,-1.8166685808056648,-1.6568400468258584,1.630989809011616
-3.637528342174063,-1.8381887038279399,-1.6405301487357422,1.689908291204867
-3.6559102292123424,-1.8598210902432106,-1.6236310658236934,1.7479602833107106
-3.6745084401147747,-1.881620908406468,-1.6061514629905864,1.8051455238468832
-3.6933246491988396,-1.9036542248651869,-1.5881000077521177,1.8614560455347253
-3.7123611914474917,-1.9259993559532615,-1.5694854472967705,1.9168740736542926
-3.7316211850070244,-1.9487484609166064,-1.5503167065602277,1.9713696423876512
-3.7511086696161904,-1.9720093925079658,-1.5306030101363512,2.0248979117422077
-3.77082876354127,-1.9959078100025047,-1.5103540310189292,2.077396182255039
-3.7907878416412952,-2.02058954097892,-1.4895800691963788,2.1287806300037215
-3.8109937370510845,-2.046223148680242,-1.4682922628963415,2.1789428251579896
-3.831455968537887,-2.07300261711403,-1.4465028346447617,2.22774615936368
-3.852185994709027,-2.101150001276289,-1.424225373051125,2.2750223978004707
-3.87319749472179,-2.1309177996506232,-1.4014751490731203,2.3205686985163765
-3.8945066727182964,-2.1625906858713257,-1.3782694620879565,2.364145611401475
-3.9161325795770097,-2.1964860844911955,-1.3546280059739417,2.405476784795343
-3.9380974404219216,-2.232952897105618,-1.3305732381259883,2.4442513630451916
-3.960426969392978,-2.2723674967846095,-1.3061307244955362,2.480130330228258
-3.983150644360824,-2.315125947548356,-1.2813294211932538,2.5127582931649415
-4.006301903836308,-2.361631335554244,-1.2562018382616043,2.5417823114653735
-4.02991821719185,-2.4122752157658858,-1.2307840151469505,2.5668792385285935
-4.054040969349509,-2.467412604561987,-1.2051152227616646,2.5877924610554106
-4.078715095395129,-2.5273308081579664,-1.1792372981511106,2.6043777376868715
-4.103988403476708,-2.592213737503399,-1.1531935207742419,2.616655934743875
-4.129910540851742,-2.6621051518162235,-1.1270269614268031,2.6248679264862025
-4.156531592369904,-2.7368761937384956,-1.1007782821619412,2.629524181252719
-4.18390035430729,-2.81620405547555,-1.0744830403494139,2.631439395629827
-4.212062394862045,-2.8995688879739614,-1.0481686463931157,2.6317420452793447
-4.241058083741785,-2.9862744577437863,-1.0218512259403223,2.6318508779314036
-4.270920828319222,-3.0754943738686866,-0.9955327171610082,2.633415507592134
-4.3016757720579095,-3.1663405711193553,-0.9691985620850869,2.63822556194223
-4.333339177769103,-3.2579455728098794,-0.9428163064656646,2.6481003053142618
-4.365918633497202,-3.3495466208998423,-0.916335303412522,2.6647758191862287
-4.399414099706201,-3.440559334612131,-0.8896875452206597,2.6898077865963126
-4.433819693052322,-3.530631314369432,-0.8627894673546966,2.7245043526496167
-4.469126006196016,-3.619671024005995,-0.8355444238282005,2.7698967813526663
-4.505322716436076,-3.7078526765855835,-0.8078454560146738,2.8267480592903
-4.542401243201932,-3.7956021567565164,-0.7795779754217709,2.8955934667390366
-4.580357264769497,-3.883571377169247,-0.7506220407543805,2.976803758343641
-4.619192978541189,-3.9726088616544395,-0.7208540031709442,3.0706611116996285
-4.658919067157734,-4.063733331308547,-0.6901473920539479,3.177439707819774
-4.6995564004708195,-4.158115401990101,-0.6583729949757502,3.297485680510724
-4.74113755449072,-4.257070844926917,-0.6253981381706429,3.431294313127693
-4.78370826293999,-4.362067642194813,-0.591085195039366,3.5795852114416378
-4.827328939361938,-4.474748478214843,-0.5552893429249496,3.7433785376503255
-4.872076424144087,-4.5969703790012595,-0.5178555575484464,3.9240773151097397
-4.918046127934099,-4.730863895319683,-0.47861478439734895,4.123562512903195
-4.965354766887296,-4.878915448046241,-0.437379159268317,4.344309332979663
-5.014143921367759,-5.044078101085853,-0.3939360659385204,4.5895350042012675
-5.0645847023786175,-5.229917838462181,-0.3480407158965077,4.863390307788935
-5.116883880763239,-5.440803653669408,-0.29940681281861836,5.171208133991669
