th1 (rad),w1 (rad/s),th2 (rad),w2 (rad/s),a1 (rad/s^2),a2 (rad/s^2)
0.9362820101823031,2.5489872550713124,1.9057075294180068,-3.032686344312968,0.039413100102077846,-14.635254722779
0.9617718827330162,2.549381386072333,1.875380665974877,-3.179038891540758,0.4793711344122613,-14.787386184358985
0.9872656965937395,2.5541750974164557,1.8435902770594694,-3.326912753384348,0.9025759234872037,-14.957342905517258
1.012807447567904,2.563200856651328,1.810321149525626,-3.4764861824395203,1.2933289071394265,-15.125226161677503
1.0384394561344175,2.576134145722722,1.7755562877012308,-3.627738444056295,1.629357321010054,-15.262409087546635
1.0642007975916448,2.5924277189328224,1.7392789032606677,-3.7803625349317613,1.8798719526295091,-15.328918427242298
1.090125074780973,2.6112264384591177,1.70147527791135,-3.9336517192041844,2.0036499779928527,-15.270819412641524
1.1162373391655642,2.6312629382390464,1.662138760719308,-4.0863599133305994,1.9477699300608124,-15.018452103534058
1.1425499685479548,2.6507406375396547,1.6212751615860022,-4.23654443436594,1.648168329232154,-14.487112318132505
1.1690573749233513,2.6672223208319763,1.5789097172423427,-4.381415557547265,1.033836499261239,-13.582664468890997
1.1957295981316711,2.677560685824589,1.53509556166687,-4.517242202236175,0.036863278120009564,-12.215109750459911
1.222505204989917,2.677929318605789,1.4899231396445083,-4.639393299740774,-1.390171604721781,-10.3221695587974
1.249284498175975,2.6640276025585714,1.4435292066471006,-4.742614995328748,-3.250863330600447,-7.900925713937809
1.2759247742015607,2.631518969252567,1.396103056693813,-4.821624252468126,-5.482592869349239,-5.038014352122965
1.3022399638940865,2.5766930405590744,1.3478868141691318,-4.8720043959893555,-7.947550837613322,-1.9212197685751757
1.3280068942996772,2.4972175321829413,1.2991667702092382,-4.891216593675107,-10.449334297733868,1.1841311651183901
1.3529790696215067,2.3927241892056026,1.2502546042724871,-4.879375282023924,-12.776108939940007,3.9950007356841697
1.3769063115135627,2.2649630998062027,1.2014608514522478,-4.839425274667082,-14.753952076996454,6.283736560188857
1.3995559425116246,2.117423579036238,1.153066598705577,-4.776587909065194,-16.285169511843428,7.929603477885797
1.420730178301987,1.954571883917804,1.1053007196149252,-4.697291874286336,-17.35585116420637,8.927464952894832
1.440275897141165,1.7810133722757402,1.0583278008720618,-4.608017224757387,-18.016308014857643,9.35929689827835
1.4580860308639225,1.6008502921271637,1.012247628624488,-4.514424255774603,-18.350400738344646,9.351075411029125
1.474094533785194,1.4173462847437173,0.9671033860667418,-4.420913501664312,-18.448592667590344,9.035539452606173
1.4882679966326313,1.232860358067814,0.9228942510500987,-4.330558107138251,-18.391285997898514,8.529624818001325
1.5005966002133095,1.0489474980888287,0.8795886699787162,-4.245261858958238,-18.2419320647341,7.92556267380648
1.511086075194198,0.8665281774414877,0.8371360513891338,-4.166006232220173,-18.04650667769752,7.2907286064646994
1.5197513569686127,0.6860631106645125,0.7954759890669321,-4.093098946155526,-17.836031511727004,6.671568291229832
1.5266119880752578,0.5077027955472425,0.7545449996053768,-4.026383263243227,-17.629969252357395,6.098586708744599
1.5316890160307302,0.3314031030236686,0.7142811669729445,-3.9653973961557814,-17.43940355972701,5.590918887043061
1.5350030470609668,0.1570090674263985,0.6746271930113867,-3.9094882072853507,-17.269609812654572,5.159967966097179
1.5365731377352307,-0.01568703070014721,0.6355323109385332,-3.857888527624379,-17.121975012264166,4.812079235209881
1.5364162674282293,-0.18690678082278886,0.5969534256622895,-3.80976773527228,-16.995365278416987,4.550405091783215
1.5345471996200015,-0.35686043360695874,0.5588557483095666,-3.764263684354448,-16.88707218950261,4.376154636722827
1.5309785952839319,-0.5257311555019848,0.5212131114660221,-3.7205021379872196,-16.79345747213793,4.2894005654576715
1.525721283728912,-0.6936657302233641,0.4840080900861499,-3.677608132332643,-16.71039052520368,4.289578343457582
1.5187846264266784,-0.8607696354754009,0.4472320087628235,-3.634712348898067,-16.633548251001613,4.37577637602428
1.5101769300719243,-1.027105117985417,0.4108848852738428,-3.590954585137824,-16.558626095171824,4.546886737728841
1.49990587889207,-1.1926913789371352,0.3749753394224646,-3.5454857177605357,-16.481493688012304,4.801664573376328
1.4879789651026987,-1.3575063158172582,0.3395204822448592,-3.4974690720267723,-16.398317298993856,5.138729283751032
1.474403901944526,-1.5214894888071968,0.3045457915245915,-3.446081779189262,-16.305663436719552,5.556530484948811
1.4591890070564542,-1.6845461231743923,0.27008497373269885,-3.390516474339774,-16.200592425074475,6.053295078715493
1.4423435458247102,-1.8465520474251371,0.2361798089893011,-3.329983523552619,-16.080746949612156,6.626967499947313
1.4238780253504588,-2.007359516921259,0.20287997375377492,-3.2637138485531456,-15.944437887863009,7.275152512310721
1.4038044301812462,-2.1668038957998887,0.17024283526824346,-3.1909623234300386,-15.790727870167238,7.995068227930809
1.3821363912232474,-2.324711174501561,0.13833321203394308,-3.1110116411507307,-15.619511743079492,8.783515923478017
1.3588892794782317,-2.4809062919323557,0.10722309562243577,-3.0231764819159506,-15.431592289902834,9.63687242207316
1.334080216558908,-2.635222214831384,0.07699133080327628,-2.9268077576952187,-15.228749122907905,10.551110100263363
1.3077279944105942,-2.787509706060463,0.04772325322632409,-2.821296656692585,-15.013798552528062,11.52184881226852
1.2798528973499896,-2.9376476915857435,0.019510286659398243,-2.7060781685699,-14.7906424276419,12.544443091638872
1.250476420434132,-3.0855541158621627,-0.0075504950263007575,-2.5806337376535113,-14.564304392974861,13.61410681379838
1.2196208792755105,-3.231197159791911,-0.03335683240283587,-2.4444926695155273,-14.340952671165061,14.726076017542706
1.1873089076775913,-3.3746066865035615,-0.057801759097991144,-2.2972319093401,-14.127909257799434,15.875808722972087
1.1535628408125558,-3.515885779081556,-0.08077407819139215,-2.138473822110379,-13.933646166799248,17.059218250022607
1.1184039830217403,-3.6552222407495485,-0.10215881641249594,-1.967881639610153,-13.767769834882179,18.272933557952385
1.0818517606142448,-3.7928999390983704,-0.12183763280859747,-1.7851523040306292,-13.640994591932484,19.514576149822407
1.043922761223261,-3.929309885017695,-0.13968915584890376,-1.590006542532405,-13.565104593743595,20.783037468267114
1.0046296623730842,-4.064960930955131,-0.1555892212742278,-1.382176167849734,-13.552899765865313,22.07873225341146
0.9639800530635328,-4.200489928613784,-0.16941098295272514,-1.1613888453156194,-13.618113433933878,23.40378989340006
0.921975153777395,-4.336671062953123,-0.18102487140588133,-0.9273509463816187,-13.77527461127025,24.76212359946826
0.8786084431478638,-4.474423809065825,-0.19029838086969753,-0.6797297103869362,-14.039461675807443,26.159279762598626
0.8338642050572056,-4.614818425823899,-0.1970956779735669,-0.41813691276094994,-14.425848500949261,27.60190601583626
0.7877160207989666,-4.759076910833392,-0.2012770471011764,-0.14211785260258736,-14.948865875900607,29.09656786355534
0.7401252516906327,-4.908565569592398,-0.20269822562720227,0.14884782603296604,-15.620668957756681,30.64746040791058
0.6910395959947088,-5.064772259169965,-0.2012097473668726,0.45532243011207185,-16.448382808453196,32.252258236092416
0.6403918734030091,-5.229256087254497,-0.1966565230657519,0.7778450124729961,-17.42924814913017,33.894861819250444
0.5880993125304641,-5.403548568745799,-0.18887807294102194,1.1167936306655006,-18.542265060903095,35.53307602069245
0.5340638268430061,-5.588971219354829,-0.17771013663436694,1.472124390872425,-19.734251013483664,37.078328970124296
0.4781741146494578,-5.786313729489666,-0.16298889272564268,1.842907680573668,-20.897657929186582,38.36380027104411
0.42031097735456113,-5.995290308781532,-0.144559815919906,2.226545683284109,-21.838037380372985,39.09822413733717
0.3603580742667458,-6.213670682585262,-0.1222943590870649,2.6175279246574807,-22.23346284104948,38.80909747189596
0.2982213674408932,-6.436005310995757,-0.09611907984049009,3.00561889937644,-21.602230774622587,36.79914854426703
0.23386131433093565,-6.6520276187419825,-0.06606289084672569,3.3736103848191106,-19.325527798650082,32.183169030287736
0.16734103814351584,-6.845282896728484,-0.032326786998534585,3.695442075121988,-14.810373120327343,24.126847578580243
0.09888820917623099,-6.993386627931757,0.004627633752685295,3.9367105509077907,-7.861702526475202,12.38467317140945
0.028954342896913413,-7.07200365319651,0.0439947392617632,4.060557282621885,0.8634235368098796,-2.0465257818196725
-0.041765693635051684,-7.063369417828411,0.08460031208798205,4.0400920248036885,9.779284318750866,-16.81718757173667
-0.11239938781333579,-6.965576574640902,0.12500123233601892,3.8719201490863218,17.05874919592066,-29.212730400986125
-0.18205515355974483,-6.794989082681695,0.16372043382688214,3.5797928450764607,21.63239965058661,-37.59821283712216
-0.2500050443865618,-6.578665086175829,0.19951836227764674,3.203810716705239,23.54999559023588,-41.95896424890864
-0.31579169524832007,-6.34316513027347,0.23155646944469913,2.7842210742161524,23.54536639672029,-43.2942686142493
-0.3792233465510548,-6.1077114663062675,0.25939868018686063,2.351278388073659,22.44767949763349,-42.77394792367966
-0.4403004612141175,-5.883234671329933,0.2829114640675972,1.9235389088368626,20.880657131277943,-41.29597019359834
-0.4991328079274168,-5.6744281000171535,0.30214685315596584,1.5105792069008792,19.22399700325295,-39.41895369484287
-0.5558770889275884,-5.482188129984624,0.31725264522497465,1.1163896699524505,17.676947190572726,-37.44538528452769
-0.6106989702274346,-5.305418658078897,0.32841654192449915,0.7419358171071736,16.328926153533395,-35.519224596467105
-0.6637531568082236,-5.142129396543563,0.3358359000955709,0.3867435711425026,15.209448774464718,-33.69650993994303
-0.7151744507736592,-4.990034908798916,0.3397033358069959,0.04977847174307232,14.317887260307003,-31.988338234606374
-0.7650747998616483,-4.846856036195846,0.34020112052442664,-0.2701049106029914,13.639696976173324,-30.38490964003391
-0.8135433602236067,-4.710459066434113,0.3375000714183967,-0.5739540070033305,13.154749092642234,-28.8683248805042
-0.8606479508879479,-4.57891157550769,0.3317605313483634,-0.8626372558083726,12.84137700809462,-27.419132363035693
-0.9064370666430248,-4.450497805426744,0.3231341587902797,-1.1368285794387294,12.678200848785389,-26.019518841082178
-0.9509420446972923,-4.323715796938891,0.31176587299589237,-1.3970237678495512,12.644849731903982,-24.65473108090667
-0.9941792026666811,-4.197267299619851,0.29779563531739683,-1.643571078658618,12.722170409399597,-23.31357528126859
-1.0361518756628796,-4.070045595525855,0.28135992453081066,-1.8767068314713038,12.89222379269948,-21.9884388818575
-1.0768523316181382,-3.94112335759886,0.2625928562160976,-2.096591220289879,13.138218433728445,-20.675066307500654
-1.1162635651941268,-3.8097411732615756,0.24162694401319884,-2.3033418833648853,13.444449821421879,-19.37220923470691
-1.1543609769267427,-3.675296675047357,0.21859352517955,-2.4970639757119546,13.796272421753963,-18.08121521859439
-1.1911139436772162,-3.5373339508298174,0.19362288542243045,-2.6778761278978984,14.180109765759198,-16.80559014506924
-1.2264872831855145,-3.3955328531722255,0.16684412414345146,-2.8459320293485906,14.583497142672948,-15.550556166976845
-1.2604426117172367,-3.249697881745496,0.13838480384996554,-3.001437591018359,14.995146639726519,-14.322620197114484
-1.2929395905346917,-3.099746415348231,0.10837042793978195,-3.144663792989504,15.405022770755904,-13.129164786858361
-1.323937054688174,-2.9456961876406718,0.07692379000988692,-3.2759554408580875,15.804417336618362,-11.97807131045005
-1.3533940165645806,-2.7876520142744883,0.04416423560130604,-3.395736153962588,16.186013659963248,-10.877383813734243
-1.3812705367073255,-2.625791877674856,0.010206874061680166,-3.5045099920999303,16.543932447994024,-9.835020239814536
-1.4075284554840741,-2.4603525531949155,-0.024838225859319135,-3.6028601944980756,16.873753934547395,-8.858535880158879
-1.4321319810160233,-2.2916150138494418,-0.06086682780429989,-3.691445553299664,17.172513398999534,-7.954941841406229
-1.4550481311545178,-2.1198898798594463,-0.09778128333729653,-3.7709949717137263,17.438669466978713,-7.130579160820009
-1.4762470299531123,-1.9455031851896591,-0.1354912330544338,-3.8423007633219264,17.672046614318315,-6.3910470636027075
-1.495702061805009,-1.768782719046476,-0.17391424068765307,-3.9062112339579533,17.873754897093285,-5.741181838044129
-1.5133898889954738,-1.5900451700755431,-0.2129763530272326,-3.9636230523383946,18.046091017585272,-5.185080979259024
-1.5292903406962293,-1.4095842598996904,-0.25261258355061655,-4.0154738621309845,18.192425329046365,-4.726165633847556
-1.5433861832952263,-1.2276600066092267,-0.2927673221719264,-4.06273551846946,18.31707921191446,-4.367272907771619
-1.5556627833613186,-1.0444892144900821,-0.33339467735662104,-4.106408247547177,18.425196344735003,-4.110768125898009
-1.5661076755062193,-0.8602372510427321,-0.3744587598320928,-4.147515928806157,18.522609634654597,-3.9586653812149644
-1.5747100480166467,-0.6750111546961861,-0.41593391912015437,-4.187102582618306,18.61570278086611,-3.9127422522976296
-1.5814601595636086,-0.48885412688752505,-0.45780494494633744,-4.226230005141282,18.71126130411321,-3.974630748092821
-1.586348700832484,-0.3017415138463929,-0.5000672449977502,-4.26597631262221,18.816301860554308,-4.145860400722179
-1.5893661159709478,-0.11357849524084984,-0.5427270081239723,-4.307434916629432,18.937859930079135,-4.427819575706771
-1.5905019009233563,0.0758001040599415,-0.5858013572902666,-4.351713112386499,19.082703250999486,-4.821585509875083
-1.5897438998827569,0.26662713656993636,-0.6293184884141316,-4.39992896748525,19.256919829465133,-5.327549552229042
-1.5870776285170576,0.45919633486458766,-0.6733177780889841,-4.45320446300754,19.465302555412432,-5.944727966969947
-1.5824856651684116,0.653849360418712,-0.7178498227190595,-4.51265174267724,19.710414671853965,-6.669596379667242
-1.5759471715642246,0.8509535071372516,-0.7629763401458319,-4.5793477064739125,19.99116968541776,-7.494214512311692
-1.5674376364928522,1.0508652039914292,-0.8087698172105711,-4.65428985159703,20.300698003980177,-8.4033198433956
-1.556928984452938,1.253872184031231,-0.8553127157265413,-4.738323050030986,20.62321485739581,-9.369983335113652
-1.5443902626126256,1.460104332605189,-0.9026959462268512,-4.832022883382122,20.929592955495785,-10.349396561434375
-1.5297892192865736,1.669400262160147,-0.9510161750606725,-4.935516848996466,21.17148234212272,-11.270541132821537
-1.5130952166649723,1.881115085581374,-1.0003713435506372,-5.048222260324681,21.27432019413802,-12.026173510480389
-1.4942840658091585,2.0938582875227545,-1.050853566153884,-5.168483995429485,21.130789641123233,-12.463240469184555
-1.473345482933931,2.305166183933987,-1.1025384061081789,-5.29311640012133,20.598627260652503,-12.37910434119473
-1.450293821094591,2.511152456540512,-1.1554695701093922,-5.416907443533278,19.510100760634657,-11.533766602579755
-1.4251822965291858,2.7062534641468585,-1.209638644544725,-5.532245109559075,17.70318135177231,-9.692153580665913
-1.3981197618877172,2.883285277664582,-1.2649610956403157,-5.629166645365735,15.081138889269587,-6.706117839341134
-1.3692869091110715,3.0340966665572777,-1.3212527620939731,-5.696227823759146,11.690434491617971,-2.62252310760232
-1.3389459424454988,3.1510010114734572,-1.3782150403315645,-5.722453054835169,7.77706901129544,2.2375536477506497
-1.3074359323307643,3.2287717015864117,-1.4354395708799161,-5.700077518357663,3.7644336595298653,7.307518673134079
-1.2751482153149,3.2664160381817102,-1.4924403460634927,-5.627002331626322,0.13110017112070552,11.942105280529715
-1.242484054933083,3.2677270398929172,-1.548710369379756,-5.507581278821025,-2.752237762365604,15.640838437033386
-1.2098067845341538,3.240204662269261,-1.6037861821679662,-5.351172894450691,-4.72478428455058,18.187661221965612
-1.1774047379114612,3.192956819423755,-1.657297911112473,-5.169296282231035,-5.827660989819627,19.639611941621634
-1.1454751697172236,3.134680209525559,-1.7089908739347834,-4.972900162814819,-6.223241283427801,20.21637798097536
-1.114128367621968,3.072447796691281,-1.7587198755629316,-4.770736383005065,-6.10852082602873,20.18247375436798
-1.083403889655055,3.0113625884309934,-1.8064272393929823,-4.568911645461386,-5.660286224475244,19.773416827138856
-1.053290263770745,2.954759726186241,-1.8521163558475962,-4.371177477189997,-5.014127097590857,19.168163997264845
-1.0237426665088827,2.9046184552103327,-1.8958281306194962,-4.179495837217349,-4.264186039267981,18.48956319633995
-0.9946964819567794,2.8619765948176528,-1.9376230889916697,-3.9946002052539495,-3.4712735216548287,17.815855703095437
-0.9660767160086029,2.8272638596011044,-1.9775690910442092,-3.816441648222995,-2.6722889883898073,17.19367128816062
-0.9378040774125919,2.8005409697172063,-2.015733507526439,-3.6445049353413888,-1.8881267553060883,16.648775618167964
-0.9097986677154198,2.7816597021641454,-2.052178556879853,-3.478017179159709,-1.1294708814853358,16.193844220542196
-0.8819820706937784,2.770364993349292,-2.08695872867145,-3.316078736954287,-0.4007484304170784,15.833685101722688
-0.8542784207602855,2.7663575090451213,-2.120119516040993,-3.1577418859370603,0.2972848974924191,15.56858507489025
-0.8266148456698342,2.7693303580200457,-2.1516969349003636,-3.002056035188158,0.9658971685227757,15.396377676798426
-0.7989215420896337,2.7789893297052735,-2.1817174952522453,-2.8480922584201736,1.6073473932335602,15.313676295356501
-0.771131648792581,2.795062803637609,-2.210198417836447,-2.6949554954666084,2.2242440472482214,15.316575479431746
-0.743181020756205,2.8173052441100914,-2.2371479727911128,-2.541789740672291,2.819147389934826,15.401018163166567
-0.715007968315104,2.8454967180094397,-2.2625658701978355,-2.3877795590406254,3.3943207391959453,15.56295444709712
-0.6865530011350096,2.879439925401399,-2.2864436657882417,-2.2321500145696542,3.951570853788433,15.798370519165614
-0.6577586018809957,2.9189556339392837,-2.3087651659339383,-2.0741663093779983,4.4921403119691705,16.103236524677992
-0.6285690455416029,2.9638770370589755,-2.3295068290277183,-1.9131339441312183,5.016629462851332,16.473403856613018
-0.5989302751710132,3.014043331687489,-2.3486381684690305,-1.748399905565088,5.524935092451408,16.904471424686182
-0.5687898418541383,3.0692926826120033,-2.3661221675246815,-1.5793551913182262,6.016199321812015,17.39163434726934
-0.5380969150280183,3.1294546758301234,-2.3819157194378637,-1.4054388478455329,6.488766667946396,17.92952550726691
-0.506802368269717,3.194342342509587,-2.395970107916319,-1.2261435927728637,6.940150397958936,18.5120594261927
-0.47485894484462116,3.2637438464891764,-2.408231543844048,-1.0410229985109367,7.367011713217167,19.132288191741086
-0.4422215063797294,3.3374139636213482,-2.4186417738291572,-0.8497001165935258,7.765157105038239,19.782280154988136
-0.4088473667435159,3.4150655346717307,-2.4271387749950923,-0.6518773150436445,8.129560451382375,20.453033297236466
-0.3746967113967986,3.4963611391855545,-2.4336575481455287,-0.4473469820712799,8.454416981650624,21.134436064828563
-0.33973310000494306,3.580905309002061,-2.4381310179662417,-0.23600262142299425,8.733235953934994,21.81528857999304
-0.3039240469149225,3.6682376685414106,-2.4404910441804715,-0.017849735623063828,8.958977570017995,22.483395957368085
-0.26724167022950834,3.7578274442415904,-2.440669541536702,0.20698422395061702,9.124237138571203,23.125742551395195
-0.22966339578709244,3.8490698156273027,-2.4385996992971957,0.438241649464569,9.221475737369314,23.728751047340893
-0.1911726976308194,3.941284573000996,-2.43421728280255,0.6755291599379779,9.24329175895216,24.278623378075416
