th1 (rad),w1 (rad/s),th2 (rad),w2 (rad/s)
3.450380195438394,2.89029946797231,1.084720715233911,-1.806761209849511
3.479283190118117,2.901447400515013,1.0666531031354158,-1.8269443605446156
3.5082976641232673,2.9156660307209594,1.0483836595299696,-1.8460722362575692
3.537454324430477,2.933164973092342,1.029922937167394,-1.8638473111286298
3.5667859741614003,2.9541706166684087,1.0112844640561076,-1.8799672574450497
3.5963276803280846,2.9789196872141437,0.9924847914816571,-1.8941344972007623
3.626116877200226,3.007649722291661,0.9735434465096495,-1.9060703764702376
3.6561933744231423,3.0405858653285023,0.9544827427449472,-1.915534830065795
3.6865992330764272,3.0779235941764,0.9353273944442893,-1.922352111273701
3.717378469018191,3.1198074313606585,0.9161038733315522,-1.9264425489684718
3.7485765433317977,3.166306392449796,0.8968394478418674,-1.927859280053576
3.780239607256296,3.217387922549587,0.8775608550413316,-1.9268274748574932
3.8124134864817916,3.2728932599791274,0.8582925802927567,-1.9237818492423484
3.845142419081583,3.332518322392899,0.8390547618003332,-1.919396563643886
3.878467602305512,3.395804957138268,0.8198607961638944,-1.9146004881861947
3.9124256518768945,3.462147273991582,0.8007147912820325,-1.9105709363011676
3.94704712461681,3.530816401541106,0.7816090819190208,-1.908700910207517
3.9823552886322213,3.601004299361733,0.7625220728169456,-1.9105388066778066
4.018365331625839,3.6718836297593853,0.7434166847501675,-1.9177048391553797
4.055084167923432,3.742677055714788,0.7242396363586138,-1.9317938468227753
4.09251093848058,3.8127268292906487,0.7049216978903861,-1.9542780165712053
4.130638206773487,3.8815550801620273,0.685378917724674,-1.986423968096706
4.1694537575751065,3.9489070586861446,0.6655146780437069,-2.0292362071802352
4.208942828161968,4.014773181265994,0.6452223159719045,-2.083433870758087
4.249090559974627,4.079389957492727,0.6243879772643236,-2.1494615564749395
4.289884459549555,4.143223562420066,0.6028933616995742,-2.227529603125942
4.331316695173755,4.206942141207796,0.5806180656683148,-2.3176757218966513
4.373386116585833,4.271383665096597,0.5574413084493482,-2.419838798381396
4.4160999532368,4.337525572528656,0.5332429204655342,-2.533936666372713
4.459475208962086,4.4064610735858,0.5079035538018071,-2.6599419484490285
4.503539819697944,4.479385439445647,0.4813041343173168,-2.7979528609337843
4.548333674092401,4.557594274212594,0.45332460570797894,-2.9482585809421993
4.593909616834527,4.6424949198021705,0.42384201989855697,-3.1114010476114737
4.640334566032548,4.73563186171924,0.39272800942244224,-3.288236857775323
4.687690884649741,4.838727273080824,0.359845640844689,-3.4800043397700886
4.7360781573805495,4.953738606336229,0.32504559744698813,-3.688402162466837
4.785615543443912,5.082936364262736,0.28816157582231977,-3.915687191381543
4.836444907086539,5.229006794119857,0.24900470390850432,-4.164800911219288
4.888734975027738,5.395186110329306,0.20735669479631144,-4.439535576845937
4.942686836131031,5.585434515700014,0.16296133902785206,-4.744752814496642
4.998541181288031,5.8046584158100645,0.11551381088288565,-5.086666839670661
5.056587765446132,6.058984027315546,0.06464714248617903,-5.473196505957838
5.117177605719287,6.3560648573443075,0.009915177426600648,-5.914360736635046
5.18073825429273,6.7053422501417765,-0.04922842993974981,-6.422602635912713
5.247791676794147,7.118001996047684,-0.11345445629887695,-7.012680095033725
5.318971696754624,7.605903563124756,-0.1835812572492142,-7.7001063037227855
5.395030732385871,8.177594235299274,-0.26058232028644207,-8.495490041048003
5.476806674738864,8.826974086838192,-0.3455372206969221,-9.388551097130104
5.565076415607246,9.50663205523277,-0.43942273166822315,-10.310604986433642
5.660142736159574,10.083340117487259,-0.5425287815325596,-11.071989404185636
5.760976137334446,10.325808096535502,-0.6532486755744159,-11.344847160253352
5.864234218299801,10.062716922110548,-0.7666971471769495,-10.88513232837021
5.964861387520907,9.424462749008793,-0.8755484704606515,-9.872025919126505
6.059106015010995,8.708206583929798,-0.9742687296519166,-8.71915510687692
6.146188080850293,8.085403440672305,-1.0614602807206859,-7.665451579658036
6.227042115257016,7.591814523908785,-1.1381147965172662,-6.760743372355549
6.302960260496104,7.213458260500056,-1.2057222302408217,-5.985246119794397
6.375094843101105,6.928284916105569,-1.2655746914387658,-5.307553280053539
6.444377692262161,6.7173547552356245,-1.3186502242393012,-4.7002973762712905
6.511551239814517,6.566278333783329,-1.3656531980020141,-4.1423107630864555
6.57721402315235,6.464412996519198,-1.4070763056328788,-3.61768717430402
6.641858153117542,6.403818389216161,-1.443253177375919,-3.1145278862332115
6.705896337009704,6.378394105201653,-1.474398456238251,-2.623964119504774
6.7696802780617205,6.383230288916218,-1.500638097433299,-2.1394983888854746
6.833512580950883,6.414126371234695,-1.5220330813221536,-1.656594739998571
6.89765384466323,6.467234528251578,-1.5385990287221394,-1.1724395011604591
6.962326189945746,6.538800334493243,-1.550323423733744,-0.6858046275882437
7.027714193290679,6.6249878501025234,-1.5571814700096265,-0.19695564020873452
7.093964071791704,6.721786273697178,-1.5591510264117139,0.29244594709830213
7.161181934528676,6.8249991868092295,-1.556226566940731,0.7794870035420005
7.229431926396768,6.930314993315732,-1.548431696905311,1.2602222857821879
7.298735076329925,7.033449161872027,-1.535829474047489,1.7299788136847927
7.369069567948645,7.1303376863184225,-1.518529685910641,2.183732236963467
7.44037294481183,7.217350732106589,-1.4966923635410063,2.616520399173657
7.512546452132896,7.29149012180831,-1.4705271595492697,3.023844515946279
7.585461353350979,7.350537087822578,-1.4402887143898069,3.4020059239132157
7.658966724229205,7.393127543816606,-1.4062686551506747,3.7483374395048132
7.7328979996673715,7.4187477813649405,-1.3687852807556264,4.06130927477857
7.807085477481021,7.427659071779796,-1.3281721880078408,4.3405131695474894
7.881362068198818,7.420770793252831,-1.2847670563123659,4.586547802428001
7.955569776131346,7.39948630656769,-1.238901578288086,4.80083927238519
8.029564639197023,7.365544326310854,-1.190893185564234,4.985431901989887
8.103220082460131,7.32087311625623,-1.1410388665443352,5.142779123406392
8.176428813622694,7.267468011746259,-1.0896110753102712,5.27555525305245
8.249103493740156,7.2072965085701615,-1.0368555227797467,5.386499651499762
8.321176458825859,7.1422304993388535,-0.982990526264749,5.478297064065319
8.392598763819247,7.074002410000656,-0.9282075556240958,5.5534926117060515
8.463338787919254,7.004180716072844,-0.8726726295070353,5.614436870853548
8.533380595079983,6.9341601335871355,-0.8165282607984998,5.6632552409390495
8.602722196415854,6.8651622284936975,-0.7598957083891094,5.701835745808808
8.671373818700792,6.798242920207228,-0.7028773509310213,5.73183002579216
8.739356247902863,6.734304142673154,-0.6455590506730997,5.754663170687623
8.806699289329595,6.674107644990356,-0.5880124189662235,5.771548981425412
8.873440365779498,6.618289509973339,-0.5302969291519694,5.783508100802989
8.93962326087923,6.567374432887878,-0.47246184814393943,5.791387166843445
9.005297005208108,6.521789145937165,-0.414547976475505,5.7958777055625585
9.07051489666748,6.481874617721794,-0.35658919941987943,5.797533905708561
9.135333642844698,6.447896822987931,-0.2986138603627938,5.796788728267072
9.199812611074577,6.420055986383729,-0.2406459730801231,5.7939680219557825
9.264013170938414,6.398494270965796,-0.18270629286056528,5.789302464405868
9.327998113648071,6.383301920486861,-0.1248132682165066,5.782937245693086
9.39183113285294,6.374521883521831,-0.06698389575957574,5.774939471193012
9.455576351688157,6.372152954186731,-0.009234501047645609,5.765303296025571
9.519297881230024,6.376151463621971,0.0484185319126101,5.753952822660695
9.583059395866243,6.3864315522868225,0.10595806013921705,5.740742803689891
9.646923711389112,6.402864048365421,0.16336548817611596,5.7254571991493455
9.710952351872766,6.4252739747311605,0.2206200601676094,5.707805647220896
9.775205091620078,6.453436708426516,0.27769811663981836,5.687417923557025
9.839739458704344,6.487072825240791,0.3345722958753886,5.663836493066317
9.904610186956752,6.525841681047139,0.39121066080605177,5.636507304629741
9.969868603767223,6.569333815305265,0.44757573385234917,5.604769050791804
10.035561941920275,6.617062315890832,0.5036234243602672,5.5678412191288436
10.101732565079184,6.668453364829097,0.5593018365515556,5.524811409149556
10.168417098727474,6.722836299561341,0.6145499506430512,5.474622588553447
10.235645461723088,6.7794336830383575,0.6692961765285856,5.416061225715144
10.303439798553471,6.837352087313461,0.723456788785737,5.347747569566478
10.371813319426606,6.895574566778558,0.7769342644814018,5.268129756213127
10.440769065094392,6.95295613113958,0.829615562043533,5.175483894969998
10.510298626405788,7.0082239167844,0.881370400993233,5.067922796631908
10.580380865573632,7.059984172476136,0.9320496289595521,4.9434164941576
10.650980707298393,7.106738567242143,0.9814837939011282,4.799828066125804
10.722048092970814,7.146912601237244,1.0294820745623863,4.634968343868031
10.793517218983187,7.178898911615937,1.0758317580010666,4.446672637073734
10.865306208099346,7.201117823030684,1.1202984843718038,4.232901369305004
10.937317386329653,7.21209637392533,1.1626274980648539,3.9918641841073312
11.009438350068907,7.210565054371089,1.2025461399059272,3.722163458252792
11.081544000612617,7.195568533683804,1.2397677744884552,3.422948270366635
11.153499685949456,7.166582899522736,1.2739972571921216,3.0940641751350344
11.225165514944683,7.123627920922366,1.304937898943472,2.7361786671997117
11.296401794153907,7.067359576972944,1.332299685615469,2.3508586263935185
11.367075389923636,6.999126880508115,1.3558082718794042,1.9405762750710884
11.437066658728718,6.920979148244112,1.3752140346301152,1.5086258643239272
11.506276450211159,6.835615967325783,1.3903002932733544,1.0589447997740469
11.574632609884416,6.7462816085612936,1.4008897412710948,0.5958485606608164
11.642095425970028,6.656616541681131,1.406848226877703,0.1237048222777003
11.70866159138684,6.570488069565836,1.40808527510048,-0.3534161354292341
11.774366472082498,6.49182711843924,1.4045511137461877,-0.8320743628581383
11.83928474326689,6.42449748309117,1.3962303701176062,-1.3097426515203654
11.903529718097802,6.372217962256607,1.3831329436024025,-1.785018964510422
11.967251897720368,6.338549205005842,1.3652827539572983,-2.257767472926591
12.030637389770426,6.326948760766513,1.3427050792280324,-2.729203720261292
12.09390687737809,6.340892256446828,1.3154130420254195,-3.2019519302461585
12.157315799942559,6.384056951251512,1.283393522722958,-3.680109412810838
12.221156369455073,6.460565760072235,1.2465924285948498,-4.1693550197454154
12.285762027055796,6.575293276798744,1.2048988783973955,-4.677136363545973
12.351514959823783,6.734236175775732,1.1581275147619359,-5.212961982130662
12.418857321581541,6.944938915135182,1.1059978949406293,-5.788799270779231
12.488306710732893,7.2169169038163945,1.048109902232837,-6.41950372750363
12.560475879771056,7.561865966409787,0.9839148649578008,-7.122986728247801
12.636094539435154,7.993008994180959,0.9126849976753227,-7.919216081833533
12.716024629376964,8.521751986248464,0.8334928368569874,-8.825497196910927
12.801242149239448,9.146947175845082,0.7452378648878781,-9.841462499470202
12.892711620997899,9.82683798576529,0.6468232398931761,-10.909879191133898
12.99098000085555,10.424430750934084,0.5377244479818372,-11.840313511617444
13.095224308364891,10.670539590324939,0.4193213128656627,-12.257702239570307
13.20192970426814,10.327445598304974,0.29674429046995965,-11.832099282597024
13.30520416025119,9.526904955692027,0.1784232976439894,-10.751233532369401
13.40047320980811,8.637809384344148,0.07091096232029538,-9.533099219170643
13.486851303651552,7.865688913530763,-0.02442002987141105,-8.466342715130496
13.56550819278686,7.242775936851919,-0.10908345702271602,-7.597621957745739
13.63793595215538,6.745420755386969,-0.18505967660017342,-6.895557963824624
13.705390159709248,6.3444801146672996,-0.25401525623841964,-6.320887700099234
13.768834960855921,6.016521721074934,-0.317224133239412,-5.842087913370216
13.82900017806667,5.744297436046321,-0.37564501237311415,-5.436099308817081
13.886443152427132,5.515285128245207,-0.430006005461285,-5.086368826981183
13.941596003709584,5.32029603751336,-0.48086969373109684,-4.780977832468383
13.994798964084717,5.152448605372499,-0.5286794720557807,-4.511273848506384
14.046323450138443,5.006457751233065,-0.5737922105408445,-4.270935940637414
14.096388027650773,4.878147650784069,-0.6165015699472186,-4.055346129321028
14.145169504158615,4.764115624647925,-0.6570550312404289,-3.861164437457133
14.192810660405094,4.661498642450705,-0.6956666756150002,-3.686035796009795
14.2394256468296,4.567812180717328,-0.7325270335750981,-3.528379338619213
14.285103768636773,4.480843708113853,-0.7678108269612902,-3.3872249550841262
14.329912205717912,4.398591264624602,-0.8016830765121314,-3.26207107483896
14.373898118364158,4.319242354360577,-0.834303787260521,-3.1527442414933966
14.417090541907763,4.241189946851303,-0.865831229675455,-3.0592474957571185
14.459502441376276,4.1630807058133295,-0.8964237046330262,-2.981592761533037
14.50113324843441,4.083885805575517,-0.9262396322483566,-2.919623153909268
14.541972106490165,4.002977981729422,-0.9554358637874493,-2.8728433973906125
14.58200188630746,3.920192382991727,-0.9841642977613554,-2.8402869797584285
14.621203810137377,3.8358470707040984,-1.0125671675589396,-2.8204521182286193
14.659562280844417,3.750704927801006,-1.0407716887412257,-2.811330546622159
14.697069330122428,3.665872734062206,-1.0688849942074472,-2.8105331361673906
14.73372805746305,3.5826513027133604,-1.0969903255691211,-2.815490370980825
14.769554570490184,3.5023656454009915,-1.1251452292789295,-2.823684300950613
14.804578226944194,3.4262094796259093,-1.1533820722884356,-2.832861422854342
14.838840321740454,3.35513196640056,-1.181710686516979,-2.841185809801088
14.87239164140446,3.289780068304194,-1.21012254461499,-2.847313177497327
14.905289442087502,3.230494189532973,-1.2385956763899633,-2.8503894541342825
14.937594383982832,3.17734366584641,-1.267099570931306,-2.849993369711286
14.969367820641295,3.130184524278035,-1.2955995046284188,-2.8460483895387627
15.000669665884075,3.088723608877818,-1.3240599885238065,-2.838726732224964
15.031556901972854,3.052577914164865,-1.352447255846056,-2.8283612810551118
15.062082681114502,3.0213231923334725,-1.380730868656607,-2.815373661967767
15.092295913037837,2.9945300626399205,-1.4088846052762847,-2.800220813382746
15.122241213664237,2.9717884697209644,-1.436886813410112,-2.783358671519786
15.151959098361447,2.952722590118051,-1.4647204001253098,-2.7652198567637933
15.181486324262627,2.9369986001763455,-1.4923725986929477,-2.746201844572236
15.21085631026439,2.924327511779135,-1.51983461713867,-2.726662434380645
15.24009958538218,2.914464859884539,-1.5471012414824765,-2.7069199562258235
15.269244233981027,2.90720856963313,-1.5741704410447348,-2.6872563198549937
15.298316319677358,2.9023959294778554,-1.6010430042432848,-2.6679215914868073
15.327340278972137,2.8999002805730316,-1.627722220158153,-2.6491392385194605
15.356339281777867,2.8996278010488483,-1.6542136125433475,-2.631111514755305
15.385335559788356,2.90151460330997,-1.6805247276909006,-2.614024688301492
15.414350705821455,2.9055242564188695,-1.7066649745739155,-2.598053965374249
15.443405948385644,2.911645778548359,-1.732645514227658,-2.5833680575947917
15.472522406171128,2.9198921038893406,-1.7584791948036058,-2.5701333952978076
15.501721327210022,2.9302990047520465,-1.784180528756584,-2.5585180174498627
15.531024317257543,2.942924435873858,-1.8097657089310826,-2.54869517846858
15.560453561616281,2.957848258936285,-1.8352526607157684,-2.540846708694259
15.590032044205644,2.9751722969371444,-1.860661127802711,-2.5351661509735406
15.619783767175015,2.9950206568314863,-1.8860127893124463,-2.5318616710032558
15.64973397374333,3.017540241178564,-1.9113314060224789,-2.5311587019024855
15.679909376155116,3.042901341245884,-1.9366429930415037,-2.533302229898394
15.710338389567575,3.0712981597653735,-1.9619760153404877,-2.53855855144408
15.741051371165229,3.1029490440940743,-1.9873616008549284,-2.5472162227897437
15.77208086160617,3.1380961101003693,-2.012833763082826,-2.559585767287984
15.803461822707174,3.1770037905894006,-2.0384296207557058,-2.5759974850189615
15.835231860613067,3.2199556327429653,-2.0641895956058955,-2.5967963999567147
15.867431416940496,3.267248377084847,-2.090157559605463,-2.6223329539729283
15.900103900711345,3.3191819561792104,-2.116380889145192,-2.6529474870134826
15.933295720273136,3.3760435435318867,-2.142910364015327,-2.6889458140497133
15.967056155708455,3.4380831787689563,-2.169799822155824,-2.7305623475009577
16.001436987496145,3.5054778774068467,-2.1971054456308337,-2.7779063398531565
16.036491766270213,3.578280722057706,-2.224884509029365,-2.830886251213721
16.07227457349079,3.6563516936325073,-2.2531933715415025,-2.8891076490688667
16.108838090427117,3.7392687913263942,-2.282084448032191,-2.9517426435893137
16.14623077834038,3.826222645875867,-2.311601874468084,-3.017375556199617
16.18449300479914,3.915906983815174,-2.3417756300300803,-3.083842632988831
16.223652074637293,4.006431940740291,-2.3726140563599687,-3.148104551286745
16.263716394044696,4.095305421660504,-2.4040951018728363,-3.206216481052452
16.3046694482613,4.179541137333882,-2.436157266683361,-3.253479705286608
16.34646485963464,4.255943917209023,-2.468692063736227,-3.2848475356470783
16.38902429880673,4.321574646137791,-2.5015405390926975,-3.2955897424259026
16.43224004526811,4.374308101588411,-2.5344964365169567,-3.2820929309251037
16.475983126283992,4.413308031529831,-2.5673173658262076,-3.2425471613234604
16.52011620659929,4.43922839595986,-2.5997428374394422,-3.17724581859501
16.56450849055889,4.454050185160537,-2.6315152956253924,-3.0883670375313512
16.609048992410496,4.460628172627874,-2.662398966000706,-2.9793388285989444
16.653655274136774,4.462136850403818,-2.6921923542866955,-2.8540544376083155
16.698276642640813,4.461600937163556,-2.720732898662779,-2.7162012852076436
16.74289265201245,4.461605879097897,-2.747894911514855,-2.5688410633259045
16.78750871080343,4.464187520932384,-2.7735833221481143,-2.4142426621493716
16.83215058601275,4.470847592335225,-2.797725748769608,-2.2538946101155575
16.876859061936102,4.482634003893277,-2.8202646948707635,-2.088611943200165
16.921685401975036,4.500240516475697,-2.841150814302765,-1.9186737033963754
16.96668780713979,4.524100010376393,-2.8603375513367286,-1.7439546856307135
17.011928807243557,4.5544604793684345,-2.877777098193036,-1.5640360203843078
17.05747341203724,4.591441566537719,-2.893417458396879,-1.3782915387138719
17.103387827702615,4.635073487331477,-2.907200373784018,-1.1859527043870504
17.14973856257593,4.68532147827502,-2.9190599008278886,-0.9861568810295456
17.19659177735868,4.742098877875466,-2.9289214696381842,-0.7779837936891718
17.244012766137434,4.805271412703292,-2.936701307575076,-0.5604843913814328
17.292065480264466,4.874654636971259,-2.94230615148889,-0.33270548825296764
17.34081202663418,4.950005932142519,-2.94563320637142,-0.09371278924277965
17.390312085955603,5.031012070697997,-2.9465703342638476,0.1573857443579625
17.44062220666258,5.117273090861001,-2.944996476820268,0.4214147740206531
17.491794937571193,5.208283104452571,-2.9407823290800614,0.6991037594322046
17.54387776861572,5.303408651492092,-2.9337912914857394,0.9910559178969247
17.59691185513064,5.401865305799708,-2.92388073230677,1.297713895431234
17.650930508188637,5.502693408126899,-2.9109035933524576,1.6193225451751287
17.705957442269906,5.604734036713739,-2.8947103679007062,1.955889712759685
17.762004782637042,5.706606593810001,-2.875151470773109,2.3071464592634543
17.81907084857514,5.806689658150296,-2.8520800061804747,2.6725086827350113
