th1 (rad),w1 (rad/s),th2 (rad),w2 (rad/s),a1 (rad/s^2),a2 (rad/s^2)
5.955061744957756,0.34733463157306554,5.7908343587875395,-1.4604193702396318,1.3422868029602928,3.3279466529351005
5.958535091273486,0.36075749960266845,5.776230165085143,-1.4271399037102808,1.1427154520003864,3.6578887125976585
5.9621426662695125,0.3721846541226723,5.76195876604804,-1.390561016584304,0.9533002861615297,3.9731349803327256
5.9658645128107395,0.3817176569842876,5.748053155882197,-1.350829666780977,0.7749157450532826,4.272436243267741
5.969681689380582,0.38946681443482045,5.734544859214386,-1.3081053043482995,0.6081499575162523,4.554895067255135
5.973576357524931,0.39554831400998297,5.721463806170903,-1.2625563536757483,0.45331427079910236,4.819955501747793
5.977531840665031,0.400081456717974,5.708838242634146,-1.2143567986582704,0.3104623464382393,5.067380358146137
5.98153265523221,0.4031860801823564,5.696694674647563,-1.163682995076809,0.17941653913645986,5.297219021394217
5.985564516034034,0.40498024557372103,5.685057844696795,-1.1107108048628669,0.05979915676623754,5.509768921161912
5.989614318489772,0.4055782371413834,5.673950736648166,-1.0556131156512478,-0.04893369301266007,5.705533654392568
5.993670100861186,0.4050889002112568,5.6633946054916535,-0.9985577791073221,-0.14745769008101384,5.885180393868831
5.997720989863298,0.40361432331044667,5.65340902770058,-0.9397059751686339,-0.23654696817176424,6.049498724592622
6.001757133096403,0.40124885362872903,5.644011967948894,-0.8792109879227077,-0.31704308850624724,6.199362501879863
6.00576962163269,0.39807842274366656,5.635219858069667,-0.817217362903909,-0.38982714011497743,6.335695787402822
6.009750405860127,0.39418015134251677,5.627047684440628,-0.7538604050298807,-0.45579541930893863,6.459443437748545
6.013692207373553,0.38962219714942736,5.619509080390329,-0.6892659706523953,-0.5158388358993629,6.571546520830175
6.0175884293450475,0.38446380879043374,5.612616420683805,-0.6235505054440935,-0.5708259585668196,6.672922428665889
6.021433067432952,0.37875554920476556,5.606380915629364,-0.5568212811574347,-0.6215894447064553,6.764449338341968
6.025220622925,0.372539654757701,5.60081270281779,-0.48917678777401497,-0.6689154936342447,6.8469545362265505
6.028946019472577,0.3658504998213586,5.59592093494005,-0.42070724241174945,-0.7135359056354735,6.921206049448039
6.03260452447079,0.3587151407650038,5.591713862515933,-0.35149518191726903,-0.7561223114678127,6.9879070079019145
6.036191675878441,0.3511539176503257,5.58819891069676,-0.28161611183824986,-0.7972821466668041,7.047692175037929
6.039703215054944,0.34318109618365766,5.585382749578377,-0.21113919008787058,-0.8375559728485256,7.101126123811026
6.04313502601678,0.3348055364551724,5.583271357677498,-0.14012792884976033,-0.8774157864850046,7.148702585316125
6.046483081381332,0.3260313785903224,5.5818700783890005,-0.06864090299659908,-0.917263998525387,7.1908445541331645
6.049743395167235,0.3168587386050685,5.581183669359034,0.003267542544732563,-0.9574328116392227,7.227904790929584
6.052911982553286,0.3072844104886763,5.581216344784481,0.0755465904540284,-0.9981837631067694,7.260166415976978
6.055984826658173,0.2973025728576086,5.581971810689022,0.14814825461379816,-1.0397072389863458,7.287843335064015
6.058957852386749,0.2869055004677451,5.58345329323516,0.2210266879644383,-1.0821217985709657,7.311080281149799
6.061826907391427,0.2760842824820354,5.585663560114805,0.2941374907759363,-1.125473177414767,7.329952291225526
6.064587750216247,0.2648295507078878,5.5886049350225635,0.3674370136881916,-1.1697328629948678,7.344463469140295
6.067236045723326,0.2531322220779391,5.592279305159446,0.44088164837959454,-1.214796160411089,7.354544913027548
6.069767367944105,0.24098426047382823,5.596688121643242,0.51442709750987,-1.2604796877858702,7.360051712310437
6.072177210548843,0.22837946359596953,5.60183239261834,0.5880276146329744,-1.306518263887493,7.360758946338317
6.074461005184803,0.2153142809570946,5.607712668764671,0.6616352040963576,-1.3525611759443226,7.356356647195589
6.076614147994374,0.20178866919765137,5.614329020805634,0.7351987705683134,-1.3981678459542137,7.346443726252438
6.0786320346863505,0.18780699073810925,5.621681008511318,0.8086632078308378,-1.4428029516710397,7.3305209111974134
6.080510104593731,0.17337896122139884,5.629767640589626,0.8819684169428119,-1.4858311068664074,7.307982801701191
6.082243894205945,0.15852065015273475,5.638587324759054,0.9550482449598239,-1.5265112677224582,7.278109232061416
6.083829100707472,0.14325553747551018,5.648137807208652,1.0278293372804381,-1.5639911118031515,7.240056233035279
6.085261656082228,0.12761562635747867,5.658416100581457,1.1002298996107909,-1.5973017364107105,7.192847017443055
6.086537812345802,0.11164260899337156,5.669418399577565,1.1721583697852214,-1.6253531472053009,7.135363579323023
6.087654238435736,0.09538907752131855,5.6811399832754175,1.2435120055784517,-1.6469311575047292,7.06633969724899
6.088608129210949,0.07891976594627126,5.693575103331202,1.3141754025509416,-1.6606964932131136,6.984356368822354
6.089397326870412,0.06231280101414012,5.706716857356712,1.384018966239165,-1.665187093693207,6.887840970418447
6.090020454880553,0.04566093007720805,5.720557047019104,1.4528973759433494,-1.6588248053408494,6.775071721670675
6.090477064181325,0.029072682023799555,5.735086020778537,1.5206480931600561,-1.639927864491832,6.644189315010838
6.090767791001563,0.012673403378881235,5.750292501710137,1.5870899863101644,-1.6067307315642851,6.49321780994626
6.090894525035353,-0.0033939039367616164,5.766163401573239,1.652022164409627,-1.5574129284168985,6.320097035662519
6.090860585995985,-0.018968033220930602,5.782683623217335,1.715223134766252,-1.4901384915468328,6.122728721324527
6.090670905663776,-0.03386941813639893,5.799835854564997,1.7764504219794974,-1.4031074183628864,5.899038291283214
6.090332211482412,-0.0479004923200278,5.817600358784793,1.8354408048923296,-1.2946199786668717,5.647053622217336
6.089853206559212,-0.06084669210669652,5.835954766833716,1.891911341114503,-1.1631539189230666,5.365000965470564
6.089244739638145,-0.07247823129592719,5.8548738802448606,1.9455613507692087,-1.0074533552320528,5.051416623791479
6.088519957325186,-0.08255276484824772,5.874329493752553,1.9960755170071234,-0.8266265317414014,4.705270833606763
6.087694429676704,-0.09081903016566174,5.8942902489226245,2.043128225343191,-0.6202476908381785,4.326097741125547
6.086786239375047,-0.09702150707404353,5.914721531176056,2.0863892027544466,-0.38845624006886786,3.9141226123372754
6.0858160243043065,-0.10090606947473221,5.935585423203601,2.1255304288778194,-0.13204450619643765,3.4703748818715563
6.084806963609559,-0.1022265145366966,5.956840727492379,2.160234177696535,0.14747595869604738,2.996773863722217
6.083784698464192,-0.10075175494973612,5.978443069269344,2.190201916333757,0.4478398572739052,2.4961735276792587
6.082777180914695,-0.09627335637699708,6.000345088432682,2.2151636516105495,0.7660346247382311,1.9723542368488831
6.081814447350925,-0.08861301012961477,6.0224967249487875,2.2348871939790382,1.0983543269903162,1.4299530549999107
6.0809283172496285,-0.0776294668597116,6.044845596888578,2.2491867245290376,1.4405030221551562,0.8743300676776972
6.080152022581031,-0.06322443663816003,6.067337464133868,2.2579300252058143,1.7877441133621532,0.3113754993569615
6.0795197782146495,-0.0453469955045385,6.089916764385927,2.261043780199384,2.135086392056038,-0.2527298616194418
6.079066308259604,-0.02399613158397812,6.112527202187921,2.2585164815831895,2.4774923768581436,-0.811781710512394
6.078826346943764,0.0007787921846033156,6.135112367003752,2.2503986644780656,2.8100912228916393,-1.359823219963114
6.07883413486561,0.028879704413519707,6.157616353648533,2.2368004322784345,3.128377642481464,-1.8913955184755051
6.079122931909745,0.06016348083833435,6.179984357971317,2.2178864770936793,3.428380155627599,-2.401745891537037
6.079724566718128,0.09444728239461034,6.202163222742254,2.193869018178309,3.7067862028165273,-2.886977743184787
6.080669039542074,0.13151514442277562,6.224101912924037,2.164999240746461,3.961017341921131,-3.3441340695349377
6.081984190986302,0.17112531784198692,6.245751905331502,2.1315579000511113,4.189253809604097,-3.7712143200756705
6.0836954441647215,0.2130178559380279,6.267067484332013,2.093845756850355,4.390413099336522,-4.167131636627336
6.085825622724101,0.2569219869313931,6.288005941900516,2.0521744404840816,4.564091128191998,-4.531622552171944
6.088394842593416,0.3025628982133131,6.308527686305356,2.006858214962362,4.7104766839893735,-4.865123861696337
6.091420471575549,0.34966766505320684,6.32859626845498,1.9582069763453986,4.830250220398555,-5.16863165499717
6.094917148226081,0.39797016725719236,6.3481783382184345,1.906520659795427,4.92447705455088,-5.443555933379902
6.098896849898653,0.44721493780270116,6.367243544816389,1.8520851004616279,4.9945031188813145,-5.691581511005596
6.10336899927668,0.4971599689915143,6.385764395821005,1.795169285351572,5.041859130069172,-5.914542714726748
6.108340598966595,0.5475785602922061,6.403716088674521,1.7360238582043044,5.068176774367964,-6.114316296594712
6.113816384569517,0.5982603280358857,6.421076327256564,1.6748806952383573,5.0751185454471495,-6.2927343231877915
6.119798987849875,0.6490115134903571,6.437825134208948,1.6119533520064793,5.0643213469926085,-6.451516780664686
6.126289102984779,0.6996547269602832,6.453944667729013,1.5474381841998324,5.03735291712157,-6.592222261037061
6.133285650254382,0.7500282561314989,6.4694190495710115,1.4815159615894617,4.9956795019096445,-6.716214304258438
6.140785932815697,0.7999850511505954,6.484234209186906,1.4143538185468774,4.940642920096124,-6.824640644905681
6.148785783327202,0.8493914803515566,6.498377747372374,1.3461074120978205,4.873445128711083,-6.918422622481179
6.157279698130718,0.8981259316386675,6.5118388214933525,1.2769231858730086,4.795138534906178,-6.998252243110287
6.166260957447104,0.9460773169877292,6.5246080533520825,1.2069406634419058,4.706620533003597,-7.064594732794584
6.175721730616981,0.9931435223177651,6.536677459986501,1.1362947161139598,4.608631026066588,-7.117694829206318
6.185653165840159,1.039229832578431,6.548040407147641,1.0651177678218966,4.501751983411771,-7.157585474642103
6.196045464165943,1.0842473524125487,6.55869158482586,0.9935419130754756,4.3864083686176025,-7.184097970650013
6.206887937690069,1.1281114360987248,6.568627003956615,0.9217009333689754,4.262870036273613,-7.1968730224130795
6.218169052051056,1.170740136461461,6.577844013290305,0.8497322031448447,4.131254436424687,-7.195372434754666
6.229876453415671,1.2120526808257077,6.5863413353217535,0.777778478797298,3.9915301838232127,-7.178891523193862
6.241996980223928,1.2519679826639398,6.594119120109727,0.7059895635653594,3.843521746670442,-7.146572576073154
6.254516660050568,1.2904032001306442,6.60117901574538,0.6345238378046278,3.686915688019571,-7.097419949653349
6.267420692051874,1.32727235701084,6.607524254123427,0.5635496383080943,3.5212690518549885,-7.030317596259864
6.2806934156219825,1.36248504752939,6.613159750506508,0.49324646234549574,3.3460206210076597,-6.9440500100406615
6.294318266097276,1.3959452537394665,6.618092215129963,0.42380596224508915,3.160505876837547,-6.837327713033892
6.308277718634671,1.427550312507842,6.6223302747524135,0.35543268511475024,2.9639765468443215,-6.708818475722428
6.322553221759749,1.4571900779762852,6.625884601603561,0.28834450035752596,2.7556256160757324,-6.5571854427069365
6.337125122539512,1.4847463341370426,6.628768046607136,0.2227726459304566,2.5346185761242324,-6.381133180022734
6.351972585880882,1.5100925198982849,6.630995773066441,0.15896131413022924,2.3001314629831535,-6.179462336045307
6.367073511079865,1.5330938345281164,6.632585386207743,0.09716669076977616,2.051395863807604,-5.951133074031201
6.382404449425146,1.5536077931661925,6.633557053115441,0.037655360029464145,1.7877505309344814,-5.69533666206672
6.397940527356808,1.5714852984755372,6.633933606715735,-0.01929800659120305,1.508698522668768,-5.411573588377401
6.413655380341564,1.586572283702225,6.633740626649823,-0.07341374247497706,1.2139679131546621,-5.09973533595859
6.429521103178586,1.5987119628337716,6.633006489225074,-0.12441109583456296,0.9035731331269621,-4.760185581098782
6.445508222806923,1.6077476941650413,6.631762378266728,-0.17201295164555078,0.5778730187200537,-4.39383521872189
6.461585699748574,1.6135264243522418,6.630042248750272,-0.21595130383276967,0.2376208015845281,-4.002204470358571
6.4777209639920965,1.6159026323680872,6.627882735711944,-0.2559733485363554,-0.11599924925493851,-3.587464653706651
6.493879990315778,1.6147426398755378,6.6253230022265805,-0.2918479950734219,-0.48135383354803235,-3.1524522554732624
6.510027416714533,1.6099291015400574,6.622404522275846,-0.32337251762815455,-0.8563659079631424,-2.7006489782747423
6.526126707729934,1.601365442460426,6.619170797099565,-0.350379007410902,-1.2385464623848126,-2.236123542646791
6.542140362154538,1.5889799778365779,6.615667007025456,-0.3727402428373699,-1.6250538388258262,-1.7634341532652729
6.558030161932904,1.5727294394483196,6.611939604597082,-0.39037458437002265,-2.012778963792965,-1.2874944020760055
6.573757456327387,1.5526016498103898,6.608035858753382,-0.4032495283907827,-2.398451990579539,-0.8134094870730652
6.589283472825491,1.5286171299045945,6.604003363469475,-0.41138362326151334,-2.778763225763785,-0.3462933390605051
6.6045696441245365,1.5008294976469567,6.59988952723686,-0.4148465566521184,-3.1504893023030656,0.10892008260920202
6.619577939101006,1.4693246046239261,6.5957410616703385,-0.41375735582602635,-3.5106147274347963,0.5476569595883904
6.634271185147246,1.4342184573495782,6.591603488112078,-0.40828078623014247,-3.856439359101018,0.9658615940288131
6.648613369720742,1.395654063758568,6.587520680249776,-0.39862217028985436,-4.185663994088089,1.36012097844535
6.662569910358328,1.353797423817687,6.583534458546877,-0.38502096050540086,-4.496448800325454,1.7277484816980266
6.6761078845965045,1.3088329358144326,6.579684248941823,-0.3677434756884206,-4.787442351232419,2.0668235897602534
6.689196213954649,1.2609585123021083,6.576006814184939,-0.34707523979081806,-5.057782025421509,2.376189005780878
6.70180579907767,1.2103806920478932,6.57253606178703,-0.3233133497330093,-5.307069082369979,2.6554101038091127
6.713909605998149,1.1573100012241935,6.5693029282897,-0.29675924869491815,-5.535323516811013,2.904704319582265
6.725482706010391,1.1019567660560834,6.5663353358027505,-0.2677122054990955,-5.742924711958673,3.124849380668312
6.7365022736709514,1.0445275189364966,6.563658213747759,-0.2364637116924124,-5.9305440007978945,3.317079396512093
6.746947548860317,0.9852220789285177,6.561293576630836,-0.20329291772729147,-6.099074672549093,3.4829769890042694
6.756799769649602,0.9242313322030267,6.559260647453563,-0.16846314783724878,-6.249563955376117,3.624368174982986
6.766042082971632,0.8617356926492655,6.55757601597519,-0.1322194660874189,-6.383150297930566,3.743224948292738
6.774659439898125,0.7979041896699599,6.556253821314316,-0.09478721660449152,-6.501008056723721,3.8415787332177476
6.782638481794824,0.7328941091027227,6.555305949148271,-0.05637142927231404,-6.604300612132756,3.9214462940591295
6.7899674228858515,0.6668511029813952,6.5547422348555475,-0.017156966331722742,-6.694142061648444,3.9847684016784304
6.796635933915666,0.5999096823649107,6.55457066519223,0.022690717685061562,-6.771567001944988,4.0333606171706995
6.802635030739315,0.5321940123454608,6.554797572369081,0.06302432385676857,-6.837507501555705,4.068874941929978
6.80795697086277,0.46381893732990376,6.555427815607649,0.10371307327606835,-6.892776151296328,4.092770756544689
6.812595160236069,0.39489117581694044,6.55646494634041,0.14464078084151524,-6.938054018609385,4.106293368692648
6.8165440719942385,0.3255106356308466,6.557911354148825,0.18570371452844173,-6.973882382969242,4.110458552359947
6.819799178350547,0.25577181180115416,6.559768391294109,0.2268083000520412,-7.000657255939539,4.106041634581276
6.822356896468559,0.18576523924175875,6.562036474294629,0.2678687163978539,-7.018625862828906,4.093569929990646
6.824214548860977,0.11557898061346969,6.564715161458608,0.3088044156977604,-7.027884462881548,4.073317608202434
6.825370338667112,0.04530013598465421,6.5678032056155855,0.3495375917797847,-7.028377098768423,4.045302385577647
6.825823340026958,-0.02498363500303001,6.571298581533384,0.3899906156355612,-7.019895086914808,4.009283750962089
6.825573503676928,-0.0951825858721781,6.57519848768974,0.4300834531451821,-7.002077285041262,3.9647627600584645
6.8246216778182065,-0.16520335872259073,6.579499322221191,0.46973108074576675,-6.97441140136879,3.910983763755456
6.82296964423098,-0.23494747273627864,6.5841966330286485,0.5088409183833214,-6.936236840388684,3.8469387705808904
6.820620169503617,-0.30430984114016546,6.589285042212482,0.5473103060891302,-6.88674980993147,3.7713754780805337
6.817577071092216,-0.37317733923948015,6.5947581452733735,0.5850240608699355,-6.825011636159377,3.6828103318007903
6.813845297699821,-0.44142745560107394,6.600608385882073,0.6218521641879434,-6.74996143314803,3.5795482637372498
6.80943102314381,-0.5089270699325542,6.606826907523953,0.657647646825316,-6.66043442933434,3.4597109922451335
6.8043417524444845,-0.5755314142258976,6.613403383992206,0.6922447567477673,-6.555187331478352,3.3212758854420086
6.798586438302226,-0.6410832875406811,6.620325831559684,0.7254575156021874,-6.432932064543453,3.162127337779195
6.792175605426819,-0.7054126081861156,6.627580406715706,0.7570787889799794,-6.2923790109755675,2.9801223097687712
6.785121479344958,-0.7683363982958713,6.6351511946055055,0.7868800120776671,-6.132290429780304,2.773171053650651
6.777438115361999,-0.8296593025936744,6.6430199947262825,0.8146117226141736,-5.951544015512761,2.539333021599868
6.769141522336063,-0.8891747427488019,6.651166111952424,0.8400050528301722,-5.749205532260262,2.276926486555115
6.760249774908575,-0.9466667980714045,6.659566162480726,0.8627743176957234,-5.524608141478367,1.9846485156387028
6.7507831069278605,-1.0019128794861882,6.668193905657683,0.8826208028521104,-5.277434511188661,1.661699727914919
6.740763978132999,-1.0546872245980747,6.677020113686204,0.8992378001312596,-5.007796203595302,1.3079059614436817
6.730217105887018,-1.1047651866340278,6.686012491687517,0.9123168597456964,-4.716303429858165,0.92382691097588
6.719169454020678,-1.1519282209326094,6.695135660284974,0.9215551288554552,-4.404117344407712,0.510840418478942
6.707650171811352,-1.1959693943766865,6.704351211573528,0.9266635330402446,-4.072976959507785,0.07119088074908968
6.695690477867585,-1.2366991639717644,6.713617846903931,0.9273754418477356,-3.725193774320378,-0.3920084119623221
6.683323486227867,-1.273951101714968,6.7228916013224085,0.9234553577281124,-3.363609467195014,-0.8748260707647595
6.670583975210718,-1.3075871963869181,6.73212615489969,0.9147070970204648,-2.991515400643054,-1.372618827369986
6.657508103246849,-1.3375023503933487,6.741273225869894,0.900980908746765,-2.6125368656663097,-1.8801895537406998
6.6441330797429154,-1.363627719050012,6.750283034957362,0.882179013209358,-2.23048932715203,-2.391987268006729
6.630496802552416,-1.385932612321532,6.759104825089455,0.8582591405292906,-1.849217666696619,-2.9023339181580683
6.6166374764292,-1.4044247889884982,6.7676874164947485,0.8292358013477099,-1.4724318293998118,-3.4056591679445614
6.602593228539315,-1.4191491072824962,6.775979774508226,0.7951792096682643,-1.1035528664035172,-3.8967233937082257
6.58840173746649,-1.4301846359465313,6.783931566604909,0.756211975731182,-0.7455819901393806,-4.370810850407602
6.574099891107024,-1.4376404558479252,6.79149368636222,0.712503867227106,-0.4010021967673662,-4.823879119738281
6.5597234865485445,-1.441650477815599,6.798618725034491,0.6642650760297232,-0.07171786543858774,-5.252656679264009
6.545306981770389,-1.4423676564699848,6.805261375794789,0.6117385092370831,0.2409667094014987,-5.654686649600292
