th1 (rad),w1 (rad/s),th2 (rad),w2 (rad/s),a1 (rad/s^2),a2 (rad/s^2)
3.1313389189863847,-1.6790979373357409,0.8853279762096413,-1.5092647960420678,-3.3215929674548357,-7.461889488137386
3.1145479396130273,-1.7123138670102893,0.8702353282492207,-1.5838836909234417,-3.559647563062148,-7.420435541700469
3.0974248009429246,-1.7479103426409108,0.8543964913399863,-1.6580880463404464,-3.802534406405798,-7.368395630109533
3.0799456975165156,-1.7859356867049687,0.8378156108765819,-1.7317720026415417,-4.049802692795451,-7.3048918764998385
3.062086340649466,-1.8264337136329232,0.8204978908501664,-1.80482092140654,-4.300928064681373,-7.22896491267194
3.0438220035131365,-1.8694429942797368,0.8024496816361011,-1.8771105705332594,-4.555309346592244,-7.139570885075433
3.025127573570339,-1.9149960877456593,0.7836785759307685,-1.9485062793840138,-4.812265435302489,-7.035578960787539
3.0059776126928823,-1.9631187420986842,0.7641935131369284,-2.018862068991889,-5.071032452920276,-6.915769489087879
2.9863464252718956,-2.013829066627887,0.7440048924470095,-2.0880197638827678,-5.330761284907943,-6.778832986038904
2.966208134605617,-2.0671366794769663,0.7231246948081819,-2.1558080937431567,-5.5905156398857185,-6.623370120924022
2.945536767810847,-2.1230418358758234,0.7015666138707503,-2.222041794952397,-5.849270783274159,-6.447892894328325
2.9243063494520887,-2.181534543708565,0.6793461959212262,-2.2865207238956806,-6.105913112292211,-6.250827207981028
2.902491004015003,-2.242593674831487,0.6564809886822695,-2.349028995975491,-6.359240755508034,-6.030517036197853
2.880065067266688,-2.306186082386567,0.6329906987225146,-2.4093341663374694,-6.607965396097468,-5.785230417925369
2.857003206442822,-2.3722657363475417,0.6088973570591398,-2.4671864705167232,-6.850715534374227,-5.51316749712185
2.8332805490793467,-2.440772891691284,0.5842254923539726,-2.5223181454879415,-7.086041422308312,-5.2124708476528605
2.808872820162434,-2.511633305914367,0.5590023108990931,-2.57444285396447,-7.3124219210295704,-4.881238327104897
2.7837564871032905,-2.5847575251246626,0.5332578823594485,-2.623255237235519,-7.528273552138833,-4.517538711778523
2.7579089118520437,-2.660040260646051,0.5070253299870933,-2.6684306243533045,-7.731962035351907,-4.119430372020823
2.7313085092455833,-2.73735988099957,0.48034102374356025,-2.7096249280735125,-7.921816628649737,-3.684983251653536
2.7039349104355876,-2.8165780472860673,0.45324477446282513,-2.746474760590048,-8.096147612249545,-3.212304415062661
2.675769129962727,-2.897539523408563,0.4257800268569246,-2.7785978047406745,-8.253267283042804,-2.6995674164399217
2.6467937347286417,-2.9800721962389907,0.3979940488095179,-2.805593478905074,-8.391514849115023,-2.1450457214847303
2.616993012766252,-3.063987344730141,0.36993811402046717,-2.8270439361199213,-8.509285630337272,-1.5471503637492925
2.5863531393189505,-3.1490802010335135,0.34166767465926795,-2.842515439757414,-8.605064974479,-0.9044719339062308
2.5548623373086152,-3.2351308507783036,0.3132425202616938,-2.8515601590964765,-8.677467280125382,-0.2158268655892826
2.522511028800832,-3.3219055235795576,0.284726918670729,-2.8537184277523693,-8.725280466727272,0.5196922216417071
2.4892919735650367,-3.4091583282468303,0.25618973439320536,-2.848521505535952,-8.74751613508436,1.3026626527990943
2.4552003902825685,-3.496633489597674,0.22770451933784583,-2.8354948790079613,-8.743465503974097,2.133275230721935
2.420234055386592,-3.584068144637415,0.19934957054776622,-2.814162126700742,-8.712760976484489,3.0112766241899265
2.3843933739402177,-3.67119575440226,0.1712079492807588,-2.7840493604588428,-8.65544287198453,3.9359127193161143
2.347681416396195,-3.7577501831221056,0.14336745567617037,-2.7446902332656817,-8.572030452377374,4.905875829471052
2.3101039145649738,-3.843470487645879,0.11592055334351356,-2.695631474970971,-8.463595881340488,5.919259554979631
2.271669209688515,-3.928106446459284,0.08896423859380384,-2.6364388794211746,-8.331839205887452,6.973526043335483
2.2323881452239225,-4.011424838518159,0.0625998497995921,-2.5667036189878196,-8.179161885043447,8.065491349257869
2.1922738968387407,-4.093216457368594,0.0369328136097139,-2.486048705495241,-8.008735879535703,9.191335427002473
2.1513417322650548,-4.17330381616395,0.012072326554761488,-2.3941353512252164,-7.824564953406096,10.346643874257486
2.1096086941034153,-4.2515494656980115,-0.011869026957490675,-2.2906689124826416,-7.631534739621514,11.526488742446922
2.067093199446435,-4.3278648130942265,-0.034775716082317096,-2.1754040250581723,-7.4354484164041486,12.725555392983923
2.023814551315493,-4.402219297258268,-0.05652975633289882,-2.048148471128333,-7.243045656372604,13.938321409063963
1.9797923583429105,-4.4746497538219945,-0.07701124104418215,-1.9087652570376934,-7.062003951391077,15.159291935695055
1.9350458608046905,-4.545269793335906,-0.09609889361455909,-1.7571723376807429,-6.900923541375655,16.38329359380055
1.8895931628713314,-4.614279028749662,-0.11367061699136652,-1.5933394017427374,-6.769299977776195,17.60582651441501
1.8434503725838347,-4.681972028527424,-0.1296040110087939,-1.4172811365985873,-6.677491745599358,18.823471437293435
1.7966306522985604,-4.7487469459834175,-0.1437768223747798,-1.229046422225653,-6.636694188585996,20.034346727313654
1.7491431828387263,-4.815113887869278,-0.1560672865970363,-1.0287029549525164,-6.658935012190279,21.238609190657755
1.7009920439600335,-4.88170323799118,-0.1663543161465615,-0.8163168630459389,-6.757110644242264,22.438993346409074
1.6521750115801217,-4.949274344433603,-0.17451748477702086,-0.5919269295818481,-6.945086512070286,23.64138686108158
1.6026822681357857,-5.018725209554306,-0.18043675407283935,-0.3555130609710323,-7.23788771499515,24.855445490624582
1.5524950160402426,-5.091104086704258,-0.18399188468254968,-0.10695860606478647,-7.652009557540286,26.09525901031565
1.5015839751732,-5.167624182279661,-0.18506147074319754,0.15399398403837006,-8.205879821960725,27.38008952121554
1.4499077333504036,-5.2496829804992675,-0.18352153090281384,0.4277948792505255,-8.920505949671558,28.735213374124648
1.397410903545411,-5.338888039995983,-0.17924358211030858,0.715147012991772,-9.82033871843549,30.192903822024785
1.3440220231454512,-5.437091427180338,-0.17209211198039087,1.0170760512120198,-10.934374873252322,31.793585139925714
1.2896511088736478,-5.546435175912861,-0.16192135146827066,1.335011902611277,-12.297493200363592,33.58715273072979
1.234186757114519,-5.669410107916497,-0.1485712324421579,1.6708834299185749,-13.951945778068854,35.63434956303184
1.177492656035354,-5.808929565697186,-0.13186239814297215,2.0272269255488933,-15.948750382499645,38.007833866852735
1.1194033603783822,-5.968417069522182,-0.11159012888748322,2.4073052642174204,-18.348322038835512,40.7919834077945
1.0597191896831604,-6.151900289910538,-0.08751707624530902,2.8152250982953655,-21.218756625624064,44.07915653080276
0.998200186784055,-6.364087856166778,-0.05936482526235537,3.2560166636033934,-24.6281177261224,47.95719901306632
0.9345593082223872,-6.610369033428002,-0.026804658626321434,3.7355886537340566,-28.622577856309952,52.47662369904151
0.8684556178881072,-6.896594811991101,0.010551227911019131,4.2603548907244715,-33.172826097835824,57.57260129085564
0.7994896697681962,-7.228323072969459,0.053154776818263846,4.836080903633028,-38.053113257556966,62.89160090471378
0.7272064390385017,-7.608854205545029,0.10151558585459412,5.464996912680165,-42.590867264200114,67.43569033503643
0.6511178969830513,-8.03476287818703,0.15616555498139578,6.13935381603053,-45.22226830916613,68.93510320153551
0.570770268201181,-8.48698556127869,0.21755909314170108,6.828704848045885,-42.97096782596727,63.118638330006085
0.4859004125883941,-8.916695239538363,0.28584614162215993,7.459891231345946,-31.73555602498465,44.13923743114388
0.3967334601930105,-9.234050799788209,0.3604450539356194,7.901283605657385,-9.463549843229393,9.094500078269283
0.3043929521951284,-9.328686298220504,0.4394578899921932,7.992228606440078,18.14078376749868,-33.86320686834354
0.21110608921292337,-9.147278460545516,0.5193801760565939,7.653596537756642,38.90977703780012,-67.32718547955498
0.11963330460746821,-8.758180690167515,0.5959161414341604,6.9803246829610925,46.39084171458781,-81.89616297271454
0.03205149770579306,-8.294272273021637,0.6657193882637713,6.161363053233947,44.09417298295354,-82.32031111635642
-0.05089122502442331,-7.853330543192102,0.7273330187961108,5.338159942070383,37.83172274982596,-76.75480149180434
-0.12942453045634433,-7.475013315693842,0.7807146182168146,4.570611927152339,31.00175842170301,-70.03985026568078
-0.20417466361328276,-7.164995731476813,0.826420737488338,3.8702134244955317,24.875075188919304,-64.02849367277655
-0.2758246209280509,-6.91624497958762,0.8651228717332933,3.2299284877677663,19.739364831587945,-59.16845274725047
-0.3449870707239271,-6.718851331271741,0.8974221566109709,2.6382439602952616,15.54282831405814,-55.404389905136675
-0.4121755840366445,-6.563423048131159,0.9238045962139235,2.084200061243895,12.150667430727106,-52.54277650853104
-0.4778098145179561,-6.441916373823887,0.9446465968263624,1.5587722961585846,9.430717565653163,-50.37721160621164
-0.542228978256195,-6.347609198167356,0.9602343197879483,1.0550001800964681,7.275914163635028,-48.72430156731956
-0.6057050702378686,-6.2748500565310055,0.9707843215889129,0.5677571644232726,5.605713040986493,-47.42941424095163
-0.6684535708031787,-6.21879292612114,0.9764618932331457,0.09346302201375634,4.361484798605963,-46.3637409808275
-0.7306415000643901,-6.1751780781350805,0.9773965234532832,-0.37017438779451867,3.5008962726722026,-45.41993902943811
-0.7923932808457409,-6.140169115408359,0.973694779575338,-0.8243737780888998,2.992784774199697,-44.508544893457874
-0.8537949719998245,-6.110241267666361,0.965451041794449,-1.2694592270234786,2.812870820041562,-43.55557484670266
-0.9148973846764881,-6.082112559465946,0.9527564495242141,-1.705014975490505,2.9403164030404043,-42.50113869550727
-0.9757185102711475,-6.052709395435542,0.9357062997693091,-2.130026362445578,3.35506712709803,-41.298726286619186
-1.036245604225503,-6.019158724164562,0.9144060361448533,-2.5430136253117697,4.035919740929641,-39.914815674424766
-1.0964371914671487,-5.978799526755266,0.8889758998917355,-2.9421617820560173,4.9592634941496385,-38.32850553726777
-1.1562251867347013,-5.929206891813769,0.8595542820711753,-3.325446837428695,6.098435808446633,-36.53095882144959
-1.215517255652839,-5.868222533729303,0.8262998136968884,-3.6907564256431913,7.423611796276482,-34.52454191012024
-1.274199480990132,-5.793986415766538,0.7893922494404565,-4.036001844744394,8.902122901774353,-32.321638233461016
-1.3321393451477974,-5.704965186748795,0.7490322309930125,-4.359218227079005,10.499083285052782,-29.943192137481173
-1.3891889970152853,-5.599974353898267,0.7054400487222224,-4.658650148453816,12.178201142750318,-27.417086596230675
-1.445188740554268,-5.478192342470764,0.6588535472376843,-4.932821014416123,13.902667844473287,-24.776472529873384
-1.4999706639789756,-5.339165664026031,0.6095253370935231,-5.180585739714857,15.636046530045439,-22.05815190619473
-1.553362320619236,-5.1828051987255765,0.5577194796963745,-5.4011672587768045,17.34311554772232,-19.301082091863133
-1.6051903726064918,-5.009374043248354,0.5037078071086064,-5.5941780796954355,18.990651682313366,-16.545028908479207
-1.6552841130389753,-4.81946752642522,0.4477660263116521,-5.759628368780228,20.548156414211608,-13.829363272179625
-1.7034787883032274,-4.613985962283104,0.3901697426238498,-5.897922001502024,21.988532436191427,-11.191979370737444
-1.7496186479260585,-4.39410063792119,0.33119052260882953,-6.0098417952093985,23.288708933007502,-8.66831313903563
-1.7935596543052703,-4.161213548591116,0.27109210465673556,-6.096524926599755,24.43019801583667,-6.290454658893034
-1.8351717897911815,-3.916911568432749,0.210126855390738,-6.159429473188685,25.399548329069695,-4.086369545971754
-1.874340905475509,-3.662916085142052,0.14853256065885115,-6.200293168648402,26.188651912767156,-2.0792638090718043
-1.9109700663269293,-3.4010295660143806,0.08652962897236713,-6.22108580673912,26.79486126909924,-0.2871370237405654
-1.9449803619870731,-3.1330809533233883,0.024318770904975924,-6.223957176976526,27.220886181220788,1.277433718720372
-1.976311171520307,-2.8608720915111805,-0.03792080086478934,-6.2111828397893225,27.474461678084815,2.607251387707897
-2.004919892435419,-2.586127474730332,-0.10003262926268257,-6.185110325912244,27.56780469755892,3.7001937601021755
-2.0307811671827225,-2.310449427754743,-0.161883732521805,-6.148108388311222,27.51690168829014,4.558667154895478
-2.05388566146027,-2.0352804108718416,-0.2233648164049172,-6.102521716762268,27.340687612828805,5.188864090851046
-2.074238465568988,-1.7618735347435535,-0.2843900335725399,-6.050633075853757,27.060185555671172,5.599885416449631
-2.0918572009164236,-1.4912716791868417,-0.34489636433107745,-5.994634221689261,26.697674813364895,5.802793447704151
-2.106769917708292,-1.2242949310531928,-0.40484270654797005,-5.93660628721222,26.275945494053648,5.809659301840578
-2.119012867018824,-0.9615354761126562,-0.46420876942009226,-5.878509694193814,25.81768215074442,5.632657104155951
-2.1286282217799504,-0.703358654605212,-0.5229938663620304,-5.8221831231522545,25.345001035368217,5.283243270064265
-2.1356618083260024,-0.44990864425152977,-0.581215697593553,-5.769350690451612,24.87914790612125,4.771444036026574
-2.140160894768518,-0.20111716519031725,-0.6389092044980691,-5.721636250091346,24.440347594889328,4.1052619268064126
-2.142172066420421,0.04328631075857603,-0.6961255669989825,-5.680583630823282,24.04778303920657,3.2902045585243296
-2.1417392033128353,0.28376414115064175,-0.7529314033072153,-5.647681585238039,23.719669031791867,2.3289396165111946
-2.1389015619013287,0.5209608314685604,-0.8094082191595957,-5.6243921890729265,23.473371758792805,1.2210911646114337
-2.133691953586643,0.7556945490564885,-0.865652141050325,-5.612181277426812,23.325504494286783,-0.03678034787064708
-2.126135008096078,0.9889495939993563,-0.921773953824593,-5.612549080905518,23.291894876261466,-1.4509201300353631
-2.1162455121560844,1.221868542761971,-0.9778994446336482,-5.627058282205872,23.387257661220698,-3.029656908441248
-2.1040268267284645,1.455741119374178,-1.0341700274557069,-5.657354851290284,23.624299085755315,-4.781872120361786
-2.089469415534723,1.6919841102317312,-1.0907435759686097,-5.705173572493902,24.01179469568003,-6.714049634349611
-2.0725495744324056,1.9321020571885315,-1.1477953116935486,-5.772314068837399,24.550879412137498,-8.82486085745415
-2.0532285538605204,2.1776108513099066,-1.2055184523819227,-5.86056267741194,25.228321746248838,-11.095572235042587
-2.0314524453474214,2.429894068772395,-1.264124079156042,-5.971518399762366,26.004923734571918,-13.473655465838737
-2.0071535046596973,2.689943306118114,-1.3238392631536657,-6.106254954420753,26.79659782702245,-15.846109692386955
-1.9802540715985162,2.9579092843883386,-1.3849018126978732,-6.264716051344623,27.445949998228958,-17.99931351309658
-1.9506749787546327,3.232368784370628,-1.4475489732113194,-6.444709186475588,27.68568888487703,-19.56697941548897
-1.9183512909109264,3.5092256732193983,-1.5119960650760753,-6.640378980630478,27.10686290673038,-19.983965434704487
-1.8832590341787323,3.780294302286702,-1.57839985488238,-6.840218634977523,25.170999673931266,-18.500086379283843
-1.8454560911558653,4.032004299026014,-1.6468020412321553,-7.025219498770362,21.339879950016766,-14.356814487504186
-1.8051360481656051,4.245403098526182,-1.7170542362198589,-7.168787643645404,15.38757895991292,-7.218042942368519
-1.7626820171803432,4.399278888125312,-1.788742112656313,-7.240968073069089,7.799705501550585,2.2754119222552767
-1.7186892282990902,4.477275943140818,-1.8611517933870039,-7.218213953846536,-0.12109610554835505,12.355816899215052
-1.673916468867682,4.476064982085334,-1.9333339329254693,-7.094655784854386,-6.792555477087201,20.867642075500687
-1.6291558190468287,4.408139427314462,-2.004280490774013,-6.88597936409938,-11.202131241778726,26.436282816532177
-1.585074424773684,4.296118114896675,-2.0731402844150066,-6.621616535934058,-13.27392611878905,28.96800944691906
-1.5421132436247174,4.163378853708784,-2.1393564497743474,-6.331936441464868,-13.556847136316676,29.21612476924306
-1.5004794550876295,4.027810382345618,-2.202675814188996,-6.039775193772438,-12.734148096984576,28.107912860358965
-1.4602013512641734,3.9004689013757723,-2.2630735661267205,-5.758696065168849,-11.346481182944702,26.369753330308704
-1.4211966622504157,3.787004089546325,-2.320660526778409,-5.494998531865762,-9.737394612893452,24.45763148420941
-1.3833266213549524,3.6896301434173906,-2.3756105120970665,-5.250422217023668,-8.09599658189416,22.618685179809738
-1.3464303199207786,3.608670177598449,-2.4281147342673033,-5.024235365225571,-6.513466355326228,20.969699142752845
-1.310343618144794,3.5435355140451867,-2.478357087919559,-4.814538373798042,-5.02554967256183,19.55526078239857
-1.2749082630043422,3.4932800173195684,-2.5265024716575395,-4.618985765974056,-3.6389757069304296,18.383442900844233
-1.2399754628311466,3.456890260250264,-2.57269232931728,-4.435151336965614,-2.3464199673443145,17.445700293798172
-1.205406560228644,3.4334260605768208,-2.617043842686936,-4.260694334027632,-1.1345242027222209,16.72728890937381
-1.1710722996228757,3.4220808185495986,-2.6596507860272123,-4.093421444933894,0.011978205338333001,16.212402239696072
-1.1368514914373797,3.4222006006029817,-2.700585000476551,-3.9312974225369337,1.1082209547134274,15.886476810904266
-1.1026294854313499,3.433282810150116,-2.7398979747019205,-3.772432654427891,2.168232611605073,15.737010883172001
-1.0682966573298487,3.454965136266167,-2.7776223012461996,-3.6150625455961714,3.2044785340523445,15.7536026641171
-1.033747005967187,3.48700992160669,-2.8137729267021614,-3.4575265189550004,4.227615185008959,15.927562997126048
-0.9988769067511201,3.5292860734567797,-2.8483481918917115,-3.29825088898374,5.246290868093187,16.25126786125528
-0.9635840460165522,3.5817489821377118,-2.881330700781549,-3.135738210371187,6.266899066113717,16.717315165592858
-0.9277665561951751,3.644417972798849,-2.912688082885261,-2.9685650587152583,7.293229862918191,17.317498825164186
-0.8913223764671866,3.717350271428031,-2.942373733472414,-2.7953900704636165,8.325989117828986,18.041591312250567
-0.8541488737529063,3.8006101626063207,-2.97032763417705,-2.614974157341111,9.362174977466745,18.875925519078994
-0.816142772126843,3.894231912380988,-2.9964773757504615,-2.426214902150321,10.394324255177075,19.801786124803527
-0.7772004530030332,3.998175154932759,-3.020739524771965,-2.2281970409022858,11.409672411613666,20.79366142563739
-0.7372187014537056,4.112271879048896,-3.0430214951809877,-2.020260426645912,12.389313508056395,21.817471075216716
-0.6960959826632167,4.23616501412946,-3.0632240994474467,-1.8020857158937447,13.307500479559872,22.828972909354512
-0.6537343325219221,4.369240018925058,-3.081244956606384,-1.5737959868001996,14.131285776010888,23.772655257297025
-0.6100419323326716,4.510552876685168,-3.0969829164743863,-1.3360694342272295,14.820754150207382,24.58151991648807
-0.5649364035658199,4.658760418187241,-3.1103436108166584,-1.0902542350623488,15.330120052000783,25.178219760707908
-0.5183487993839475,4.812061618707249,-3.1212461531672817,-0.8384720374552697,15.609921826157247,25.477984850105567
-0.47022818319687504,4.9681608369688215,-3.1296308735418346,-0.5836921889542139,15.61041625720162,25.3936020973877
-0.4205465748271868,5.124264999540838,-3.1354677954313765,-0.3297561679803369,15.286051488363162,24.842380173097435
-0.36930392483177843,5.277125514424469,-3.13876535711118,-0.08133236624936255,14.600603453502577,23.754563017566447
-0.31653266968753374,5.4231315489594945,-3.1395786807736736,0.15621326392630192,13.532277586040227,22.082158000237357
-0.2623013541979388,5.5584543248198965,-3.1380165481344107,0.3770348439286755,12.077913170947951,19.806787205035413
