th1 (rad),w1 (rad/s),th2 (rad),w2 (rad/s),a1 (rad/s^2),a2 (rad/s^2)
2.1567002893228886,-2.1388054474882923,3.893413324161963,0.7682382339441526,-7.8006900415578,0.8931001850833834
2.135312234848006,-2.21681234790387,3.9010957065014042,0.7771692357949864,-7.945718289055114,0.38725262108911385
2.113144111368967,-2.2962695307944214,3.9088673988593543,0.7810417620058776,-8.112702598382464,-0.14652419780172782
2.090181416061023,-2.3773965567782462,3.916677816479413,0.7795765200278604,-8.303491116651596,-0.7105757482037155
2.0664074504932404,-2.4604314679447623,3.9244735816796914,0.7724707625458233,-8.519942722398637,-1.3074642878531195
2.041803135813793,-2.5456308951687485,3.9321982893051497,0.759396119667292,-8.763907544818718,-1.9399438232871702
2.0163468268621054,-2.6332699706169356,3.9397922505018226,0.7399966814344203,-9.037199173311697,-2.6109210429315204
1.9900141271559362,-2.7236419623500527,3.9471922173161667,0.7138874710051051,-9.341556172398947,-3.323398476691306
1.9627777075324357,-2.817057524074042,3.9543310920262176,0.680653486238192,-9.678590147415472,-4.080395393112947
1.9346071322916953,-2.9138434255481966,3.9611376268885996,0.6398495323070625,-10.049717267829479,-4.884841185744902
1.9054686980362134,-3.0143405982264913,3.96753612221167,0.5910011204496135,-10.456069904851928,-5.739435315265386
1.8753252920539485,-3.1189012972750105,3.973446133416166,0.5336067672969597,-10.898384964247242,-6.646467394453212
1.8441362790811984,-3.227885146917483,3.978782201089136,0.4671420933524275,-11.376865715784675,-7.607590921566586
1.8118574276120236,-3.34165380407533,3.98345362202266,0.39106618413676164,-11.891014600086924,-8.623544750020367
1.7784408895712702,-3.460563950076199,3.9873642838640277,0.30483073663655796,-12.439435834421555,-9.693817973395094
1.7438352500705083,-3.584958308420415,3.990412591230393,0.20789255690260702,-13.019608873049014,-10.81625691997817
1.7079856669863043,-3.715154397150905,3.992491516799419,0.09972998770282533,-13.627637137401358,-11.98661784063376
1.6708341230147952,-3.8514307685249185,3.9934888166764475,-0.020136190703512274,-14.257981095122355,-13.198076047879043
1.632319815329546,-3.994010579476142,3.9932874547694124,-0.1521169511823027,-14.90319077258361,-14.440711961927429
1.5923797095347845,-4.143042487201978,3.9917662852575893,-0.296524070801577,-15.553659908956805,-15.701006616776079
1.5509492846627646,-4.298579086291546,3.9888010445495734,-0.45353413696933775,-16.197431572393178,-16.96139294261797
1.5079634937998492,-4.460553402015478,3.98426570317988,-0.6231480663955175,-16.820091994198506,-18.199922971873256
1.4633579597796944,-4.628754321957463,3.978034222515925,-0.8051472961142501,-17.404793872325317,-19.39012237686807
1.4170704165601198,-4.802802260680716,3.9699827495547826,-0.9990485198829308,-17.932450194203295,-20.501108803836477
1.3690423939533125,-4.982126762622749,3.9599922643559533,-1.2040596079212955,-18.38213233997502,-21.498045121862358
1.319221126327085,-5.1659480860224996,3.9479516682767404,-1.419040059139919,-18.731689997860038,-22.34297913858352
1.26756164546686,-5.3532649860011,3.933761267685341,-1.6424698505257542,-18.958584867996308,-22.996085550056833
1.2140289956068488,-5.5428508346810625,3.9173365691800837,-1.8724307060263226,-19.04089728430351,-23.41727536478633
1.1586004872600382,-5.733259807524098,3.8986122621198205,-2.106603459674186,-18.9584297598561,-23.56807897623539
1.1012678891847971,-5.922844105122659,3.8775462275230788,-2.34228424943654,-18.693801724726995,-23.41365245449119
1.0420394481335706,-6.1097821223699285,3.8541233850287133,-2.576420773981452,-18.23341414892955,-22.924716494925885
0.9809416269098713,-6.292116263859224,3.828359177288899,-2.8056679389307106,-17.568168594696882,-22.07922713480354
0.918020464271279,-6.467797949806193,3.800302497899592,-3.026460210278746,-16.69385537804398,-20.863604834473335
0.8533424847732171,-6.634736503586633,3.7700378957968046,-3.2350962586234795,-15.611176413243253,-19.273412640067075
0.7869951197373507,-6.790848267719065,3.7376869332105698,-3.42783038502415,-14.325430146383914,-17.313463376029123
0.7190866370601601,-6.934102569182905,3.7034086293603283,-3.600965018784441,-12.845945123857735,-14.997430797460963
0.649745611368331,-7.062562020421482,3.667398979172484,-3.7509393267590507,-11.18539179618284,-12.347118660740758
0.5791199911641162,-7.17441593838331,3.6298895859048934,-3.8744105133664584,-9.359119930122066,-9.391587013316169
0.507375831780283,-7.268007137684531,3.5911454807712286,-3.96832638349962,-7.384658694451826,-6.166337462793788
0.4346957604034377,-7.34185372462905,3.5514622169362324,-4.029989758127558,-5.281481396889022,-2.7127193160872842
0.3612772231571472,-7.39466853859794,3.511162319354957,-4.057116951288431,-3.071084081369861,0.9223554087055554
0.2873305377711678,-7.4253793794116385,3.4705911498420727,-4.047893397201375,-0.7773647494759203,4.6863955241480095
0.2130767439770514,-7.433153026906398,3.430112215870059,-4.001029441959895,1.5727752368554735,8.521123604056713
0.13874521370798742,-7.417425274537843,3.39010192145046,-3.915818205919328,3.9487483487869057,12.362287005088952
0.06457096096260899,-7.377937791049974,3.350943739391267,-3.7921953358684384,6.315711023366654,16.139773543793005
-0.009208416947890749,-7.314780680816308,3.3130217860325826,-3.6307976004305083,8.634337389569149,19.7783589958956
-0.08235622375605384,-7.2284373069206165,3.2767138100282773,-3.433014010471552,10.86117372719935,23.19939642483431
-0.15464059682526,-7.119825569648623,3.2423836699235618,-3.201020046223209,12.949771986381169,26.323662110907122
-0.22583885252174624,-6.990327849784811,3.2103734694613295,-2.9377834251141377,14.852703434754298,29.075388221045134
-0.29574213101959435,-6.841800815437268,3.1809956352101882,-2.6470295429036863,16.524395981455584,31.387248918960555
-0.36416013917396706,-6.676556855622712,3.1545253397811512,-2.3331570537140807,17.924540249152653,33.20576843486478
-0.4309257077301942,-6.497311453131186,3.1311937692440104,-2.001099369365433,19.02161492567865,34.49636540181067
-0.49589882226150606,-6.307095303874399,3.1111827755503563,-1.6561357153473262,19.795954395370295,35.24713319501335
-0.55896977530025,-6.1091357599206955,3.094621418396883,-1.3036643833971926,20.24178068235463,35.4705569366877
-0.620061132899457,-5.906717953097149,3.081584774562911,-0.9489588140303156,20.367774202551004,35.202698071271044
-0.6791283124304285,-5.703040211071639,3.072095186422608,-0.5969318333176051,20.196036713044585,34.49986553013514
-0.7361587145411449,-5.501079843941193,3.066125868089432,-0.25193317801625376,19.759626725596316,33.43329801756904
-0.7911695129805568,-5.30348357668523,3.0636065363092695,0.0823998021594366,19.099122248374844,32.08274999989663
-0.8442043487474091,-5.112492354201482,3.0644305343308638,0.40322730215840286,18.258808589643163,30.530001258254085
-0.8953292722894239,-4.929904268305051,3.068462807352448,0.7085273147409437,17.28307339601284,28.853184999240735
-0.9446283149724745,-4.757073534344922,3.0755480804998574,0.9970591647333511,16.213447503149165,27.12252707866691
-0.9921990503159237,-4.594939059313431,3.0855186721471908,1.2682844355200202,15.08652404529966,25.39772576146051
-1.038148440909058,-4.444073818860434,3.098201516502391,1.5222616931346253,13.932787935586289,23.72688436767242
-1.0825891790976623,-4.3047459395045715,3.113424133433737,1.7595305368113494,12.77623987115651,22.1467005827591
-1.125636638492708,-4.176983540793007,3.1310194388018506,1.9809975426389403,11.634620044711067,20.68352813092753
-1.167406473900638,-4.060637340345896,3.15082941422824,2.1878328239482157,10.520019208597265,19.354935052344757
-1.208012847304097,-3.9554371482599233,3.1727077424677224,2.3813821744716632,9.439688836228868,18.171449484691113
-1.2475672187866962,-3.8610402598976346,3.196521564212439,2.563096669318574,8.39690660030867,17.138272392371892
-1.2861776213856726,-3.777071193894548,3.2221525309056247,2.7344793932422933,7.391801843170668,16.256821618932417
-1.323948333324618,-3.703153175462841,3.2494973248380474,2.8970476094316173,6.422088501438322,15.526039453068572
-1.3609798650792464,-3.638932290448458,3.2784678009323636,3.052308003962303,5.4836862775439625,14.943442340195562
-1.3973691879837309,-3.5840954276730184,3.3089908809719866,3.2017424273642585,4.571234900058844,14.505917598203487
-1.433210142260461,-3.53838307867243,3.341008305245629,3.3468016033462935,3.6785234358403915,14.210281279793142
-1.4685939730471853,-3.501597844314026,3.3744763212790923,3.488904416144225,2.7988701408583228,14.053606806865009
-1.5036099514903256,-3.4736091429054428,3.4093653654405345,3.6294404842128754,1.9255020131416682,14.033317391736075
-1.53834604291938,-3.454354122774026,3.445659770282663,3.769773658130236,1.0520011489005654,14.147006123986264
-1.5728895841471202,-3.44383411128502,3.4833575068639653,3.9112437193700984,0.172911901835072,14.391902992145802
-1.6073279252599704,-3.4421049922666693,3.5224699440576663,4.055162749291556,-0.7153557589293533,14.763842482617378
-1.641748975182637,-3.449258549855963,3.563021571550582,4.20280117411773,-1.6131293333543522,15.255491344923037
-1.6762415606811967,-3.4653898431895063,3.605049583291759,4.35535608756696,-2.5152989445298415,15.853467550609377
-1.7108954591130918,-3.4905428326348047,3.6486031441674287,4.5138907630730545,-3.4079721945089774,16.533823438888405
-1.74580088743944,-3.5246225545798944,3.6937420517981594,4.679228997461938,-4.263468314098681,17.255220151163844
-1.781047112985239,-3.5672572377208813,3.7405343417727788,4.851781198973576,-5.033172784589511,17.94912313425697
-1.8167196853624479,-3.6175889655667763,3.7890521537625146,5.031272430316146,-5.638145217196967,18.50684534089636
-1.8528955750181157,-3.673970417738746,3.839364878065676,5.21634088372511,-5.9586279164058125,18.764981413096322
-1.8896352791955031,-3.733556696902804,3.891528286902927,5.403990697856073,-5.82659388539577,18.494901996552606
-1.9269708461645312,-3.7918226357567617,3.9455681938814875,5.5889397178215985,-5.030948956728379,17.40956229185209
-1.9648890725220989,-3.8421321253240457,4.001457591059704,5.763035340740119,-3.351664780631054,15.210132689241158
-2.0033103937753394,-3.875648773130356,4.059087944467105,5.915136667632531,-0.6394056294191274,11.69537159375781
-2.042066881506643,-3.8820428294245475,4.118239311143431,6.032090383570109,3.0650202260993646,6.925776780644086
-2.080887309800888,-3.8513926271635537,4.178560214979132,6.10134815137655,7.431067262264088,1.3595798703822513
-2.1194012360725236,-3.777081954540913,4.239573696492898,6.114943950080373,11.864303803765912,-4.185612204284542
-2.1571720556179326,-3.6584389165032536,4.300723135993702,6.073087828037528,15.708724554172967,-8.81479667809263
-2.193756444782965,-3.5013516709615238,4.361454014274077,5.984939861256601,18.514240262049615,-11.924647180023266
-2.2287699614925804,-3.316209268341028,4.421303412886643,5.865693389456368,20.173656161795577,-13.388166901998197
-2.2619320541759906,-3.114472706723072,4.479960346781207,5.731811720436386,20.8600129932164,-13.462176897397782
-2.2930767812432213,-2.9058725767909084,4.5372784639855706,5.597189951462408,20.867400430325176,-12.56386582756944
-2.3221355070111303,-2.6971985724876566,4.593250363500195,5.471551293186713,20.480656870266248,-11.090693048056988
-2.3491074927360067,-2.4923920037849943,4.647965876432062,5.360644362706143,19.916793951108275,-9.341365171707215
-2.374031412773857,-2.2932240642739115,4.701572320059124,5.267230710989071,19.318692897925963,-7.509317697152338
-2.396963653416596,-2.100037135294652,4.754244627169014,5.192137534017547,18.770737751458178,-5.70597481006591
-2.4179640247695424,-1.91232975778007,4.8061660025091895,5.135077785916888,18.317766312546727,-3.987959542682334
-2.437087322347343,-1.7291520946546026,4.857516780368359,5.0951981904900645,17.98027166749344,-2.378663778625397
-2.454378843293889,-1.5493493779796683,4.90846876227326,5.07141155270381,17.76475412146831,-0.8828548621751606
-2.469872337073686,-1.3717018367649851,4.9591828778002975,5.062583004082058,17.670165981793982,0.5042376710192971
-2.4835893554413357,-1.1950001769470453,5.009808707841118,5.0676253807922516,17.691685578564456,1.7915620440073448
-2.495539357210806,-1.0180833211614007,5.06048496164904,5.085541001232325,17.822806555129862,2.9892021641354423
-2.5057201904224202,-0.839855255610102,5.111340371661363,5.11543302287368,18.056410555489638,4.10670669567551
-2.5141187429785212,-0.6592911500552057,5.1624947018901,5.156500089830435,18.38524217927597,5.152199349215968
-2.520711654479073,-0.47543872826244593,5.214059702788405,5.208022083322595,18.80203789868293,6.13191856953593
-2.5254660417616974,-0.2874183492756166,5.266139923621631,5.269341269017954,19.299456637002834,7.049983302269591
-2.528340225254454,-0.09442378290558825,5.31883333631181,5.33984110204065,19.869897925749665,7.9082711990511445
-2.52928446308351,0.1042751963519084,5.372231747332217,5.418923814031162,20.50525829364341,8.706349224660052
-2.528241711119991,0.30932777928834254,5.426420985472529,5.5059873062777624,21.196657515594346,9.441428964350942
-2.5251484333271073,0.5212943544442861,5.481480858535306,5.600401595921272,21.93415721474019,10.108339043949291
-2.5199354897826645,0.740635926591688,5.537484874494519,5.701484986360765,22.70649121694832,10.69952025282771
-2.5125291305167474,0.9677008387611712,5.594499724358126,5.8084801888890425,23.500827609078467,11.205058098595734
-2.5028521221291355,1.202709114851956,5.652584526247017,5.920530769875,24.302585006439003,11.61277398934101
-2.490825030980616,1.445734964916346,5.711789833945767,6.03665850976841,25.095328749538744,11.90840037457421
-2.4763676813314524,1.6966882524117335,5.772156419043451,6.155742513514152,25.860775310288176,12.075866601531148
-2.459400798807335,1.9552960055146151,5.833713844178593,6.276501179529464,26.578933672759856,12.097720098933166
-2.439847838752189,2.2210853422422137,5.896478855973887,6.397478380518796,27.22840934818072,11.955700700511146
-2.4176369853297666,2.493369435724021,5.960453639779075,6.517035387523907,27.786888546819426,11.63147349999426
-2.3927032909725265,2.771238321192215,6.025623993654315,6.63335012252385,28.23180583087634,11.107507201124891
-2.3649909077606046,3.053556379500978,6.091957494879553,6.744425194535099,28.54117817257741,10.36806122252074
-2.334455343965595,3.3389681612267523,6.159401746824904,6.848105806760306,28.694563018554135,9.400218191544354
-2.301065662353327,3.6259137914122936,6.2278828048925075,6.942107988675749,28.67407081084728,8.194873150603625
-2.264806524439204,3.9126544995207664,6.297303884779265,7.024056720181785,28.465338377461244,6.747572688788437
-2.2256799794439965,4.1973078832953785,6.367544451981083,7.091532447069669,28.058354886872113,5.059092896921806
-2.1837069006110426,4.4778914321641,6.43845977645178,7.142123376038887,27.448032836137006,3.1356601708339076
-2.1389279862894015,4.752371760525469,6.509881010212169,7.173479977747226,26.634437108036217,0.9887560743682144
-2.0914042686841467,5.0187161316058315,6.581615809989641,7.183367538490908,25.622626004126754,-1.365495535647543
-2.0412171073680883,5.274942391647099,6.65344948537455,7.169712583134433,24.42211484669296,-3.9072920453475533
-1.9884676834516173,5.519163540114029,6.7251466112058935,7.130639662680958,23.046035892391295,-6.614331116264363
-1.933276048050477,5.749623899037942,6.796453007832703,7.064496351518314,21.510125492070664,-9.463017501983304
-1.8757798090600974,5.964725153958648,6.867097971347886,6.969866176498481,19.831708196910554,-12.42948605674202
-1.816132557520511,6.163042235927754,6.936796633112871,6.845571315931061,18.028858574303786,-15.49024220512585
-1.7545021351612333,6.343330821670792,7.005252346272181,6.690668893879803,16.11990101867199,-18.622271891249955
-1.6910688269445253,6.5045298318575115,7.072159035210979,6.5044461749673035,14.123357892440715,-21.80255615416548
-1.6260235286259501,6.645763410781918,7.137203496960652,6.286420613425649,12.058383654619433,-25.00703076639286
-1.559565894518131,6.766347247328112,7.200067703094908,6.0363503057617205,9.945636597312276,-28.209146218516477
-1.4919024220448498,6.865803613301235,7.260431206152526,5.754258843576555,7.808450773656421,-31.37829402292204
-1.4232443859118376,6.9438881210378,7.3179737945882914,5.440475903347335,5.674089670013267,-34.478456608620384
-1.3538055047014597,7.000629017737932,7.372378553621765,5.095691337261131,3.5748026918186895,-37.467491771764124
-1.2837992145240804,7.036377044656119,7.423335466994376,4.72101641954349,1.5483806342621969,-40.29745704940621
-1.2134354440775192,7.05186085099874,7.470545631189811,4.318041849049428,-0.3620663561783952,-42.91629246927342
-1.1429168355675319,7.0482401874369565,7.513726049680305,3.888878924356694,-2.1092914890785863,-45.27099809091272
-1.0724344336931624,7.027147272546171,7.552614838923872,3.4361689434475666,-3.644075940642712,-47.312173064335326
-1.0021629609677007,6.9907065131397434,7.586976528358347,2.9630472128042133,-4.918184061368547,-48.999466567734316
-0.9322558958363033,6.941524672526058,7.61660700048639,2.47305254712687,-5.887698009189049,-50.30720477039375
-0.8628406491110427,6.882647692434167,7.641337525957659,1.9699804994229324,-6.516155663861881,-51.22929853843012
-0.7940141721867011,6.817486135795549,7.661037330951888,1.4576875140386312,-6.776866739619526,-51.7825853882958
-0.7258393108287456,6.7497174683993535,7.675614206092275,0.9398616601556732,-6.653881537500269,-52.00804113316138
-0.6583421361447521,6.683178653024351,7.685012822693832,0.4197812488240594,-6.141317298834151,-51.9697556371166
-0.5915103496145087,6.621765480036009,7.689210635182072,-0.09991630754710656,-5.24104107723728,-51.752077599163364
-0.5252926948141485,6.569355069263636,7.688211472106602,-0.6174370835387402,-3.9589727003718087,-51.45574843169514
-0.45959914412151215,6.5297653422599184,7.682037101271215,-1.1319945678556915,-2.3004275042278732,-51.19405703804756
-0.39430149069891296,6.5067610672176395,7.670717155592658,-1.643935138236167,-0.2649327639762021,-51.09002495407961
-0.3292338800267366,6.504111739577877,7.654277804210296,-2.1548353877769633,2.159151286230879,-51.27541601752911
-0.2641927626309578,6.525703252440186,7.632729450332526,-2.6675895479522542,5.000018087794912,-51.89201988178174
-0.19893573010655596,6.575703433318135,7.606053554853004,-3.1865097467700716,8.307675589722914,-53.095187342086
-0.1331786957733746,6.658780189215364,7.574188457385303,-3.7174616201909316,12.158689503887569,-55.058815080236684
-0.06659089388122096,6.78036708425424,7.537013841183394,-4.268049770993299,16.658970895286995,-57.97927728779213
0.0012127769613214517,6.94695679320711,7.494333343473461,-4.84784254387122,21.940184972919603,-62.07156284014368
0.07068234489339255,7.166358642936306,7.445854918034749,-5.468558172272656,28.137557872380604,-67.54003192479541
0.1423459313227556,7.447734221660112,7.391169336312022,-6.1439584915206105,35.317254153678626,-74.47892187697336
0.21682327353935674,7.800906763196898,7.329729751396816,-6.888747710290344,43.27486681764834,-82.59263917977523
0.29483234117132573,8.233655431373382,7.260842274293913,-7.714674102088097,51.03084606694286,-90.49200521595763
0.37716889548505955,8.74396389204281,7.183695533273032,-8.619594154247674,55.739886439920106,-94.17044657829098
0.46460853440548766,9.30136275644201,7.097499591730555,-9.561298620030584,51.086296585899504,-84.76333407910482
0.5576221619699078,9.812225722301006,7.00188660553025,-10.408931960821633,27.89818717723259,-49.431118825660924
0.6557444191929178,10.091207594073332,6.897797285922033,-10.903243149078243,-15.351194063060444,13.87455953173071
0.7566564951336512,9.937695653442727,6.788764854431251,-10.764497553760936,-57.84287546419228,75.81905948953975
0.8560334516680784,9.359266898800804,6.681119878893641,-10.006306958865538,-75.62987711288848,102.77313469673206
0.9496261206560864,8.60296812767192,6.581056809304986,-8.978575611898219,-71.81816687886564,99.11456475721073
