th1 (rad),w1 (rad/s),th2 (rad),w2 (rad/s)
1.1840304880444306,3.114548283736028,5.018242168293988,1.24571076134095
1.2151759708817909,3.0635140813339934,5.030699275907398,1.3618303604897748
1.2458111116951307,3.0082277371414023,5.044317579512295,1.4702770042179802
1.2758933890665447,2.948638363881286,5.059020349554475,1.5710027751569924
1.3053797727053575,2.8847428291382218,5.074730377306046,1.664012153126614
1.3342272009967397,2.8165802301608083,5.091370498837311,1.74935802599594
1.3623930032983478,2.744226086489677,5.108864079097271,1.8271366960806845
1.3898352641632445,2.667786510755424,5.127135446058078,1.89748230824837
1.4165131292707989,2.5873925856025997,5.146110269140562,1.9605610885913558
1.442387055126825,2.503195131729926,5.165715880026475,2.0165657265997594
1.4674190064441242,2.4153600038921708,5.185881537292473,2.065710166797112
1.491572606483046,2.324064003005291,5.206538638960444,2.1082250047003503
1.5148132465130988,2.22949144679346,5.227620889007447,2.144353612404052
1.5371081609810333,2.1318314011491584,5.249064425131488,2.1743490552535873
1.558426474992525,2.031275540947481,5.270807915684024,2.1984718056777277
1.5787392304019998,1.9280165830172358,5.2927926337408016,2.21698821472567
1.5980193962321723,1.8222472152508165,5.314962515888058,2.230169666609869
1.6162418683846804,1.714159433943194,5.337264212554157,2.2382923162863326
1.6333834627241124,1.6039441956605762,5.35964713571702,2.2416372940425524
1.649422904680718,1.4917912894170064,5.3820635086574455,2.240491253197481
1.6643408175748882,1.377889338825361,5.404468421189421,2.235147136236506
1.6781197109631418,1.2624258513529185,5.426819892551785,2.2259050398871576
1.690743969476671,1.1455872420542634,5.449078942950657,2.2130730697034235
1.7021998418972137,1.0275587714165808,5.471209673647691,2.1969680886304417
1.7124754296113796,0.9085243505055225,5.4931793545339955,2.177916280772419
1.7215606731164348,0.7886661807399209,5.51495851734172,2.156253470224597
1.729447334923834,0.6681642096737195,5.536521052043966,2.1323251544257387
1.7361289770205712,0.547195397484768,5.557844303588223,2.106486231149836
1.741600930995419,0.4259328008816419,5.578909165899722,2.079100417150542
1.7458602590042354,0.30454449134370887,5.599700170071228,2.05053937385066
1.7489057039176725,0.18319233261824397,5.620205563809734,2.0211815707027347
1.750737627243855,0.062030647955679905,5.640417379516761,1.991410929458224
1.751357933723412,-0.05879518943931181,5.660331488811344,1.9616153022731202
1.7507699818290188,-0.17915020878745014,5.679947641834075,1.9321848432412019
1.7489784797411443,-0.29891130485799633,5.699269490266487,1.9035103366690789
1.7459893666925643,-0.41796868366115597,5.718304593633178,1.875981546454041
1.7418096798559528,-0.5362272681155051,5.7370644090977185,1.8499856497092901
1.7364474071747977,-0.6536080479184742,5.755564265594812,1.8259058148242855
1.729911326695613,-0.7700493654828842,5.773823323743055,1.8041199800398808
1.7222108330407842,-0.8855081378548135,5.791864523543453,1.7849998839708787
1.713355751662236,-0.9999610226696385,5.809714522383162,1.7689103949195455
1.7033561414355396,-1.113405544198605,5.827403626332358,1.75620918184503
1.6922220859935535,-1.2258612032616976,5.844965718150808,1.7472467669758192
1.6799634739609366,-1.3373706022251017,5.862438185820567,1.7423669986981942
1.6665897679386856,-1.448000623572587,5.879861855807549,1.7419079838852343
1.6521097617029599,-1.5578437078628695,5.8972809356464015,1.7462035215670793
1.6365313246243312,-1.667019284589289,5.914742970862072,1.7555850850851513
1.6198611317784382,-1.7756754179726242,5.932298821712924,1.7703844079357611
1.6021043775987118,-1.8839907395628663,5.950002665792281,1.790936739754081
1.5832644702030831,-1.9921767513072453,5.9679120331898226,1.8175848537585784
1.5633427026900106,-2.1004805971444114,5.986087881727408,1.8506839060114486
1.5423378967185666,-2.2091884189587905,6.004594720787522,1.8906072707027703
1.5202460125289787,-2.3186294346600294,6.0235007934945495,1.9377535050631542
1.4970597181823784,-2.4291809029892906,6.042878328545181,1.992554633159952
1.4727679091524855,-2.541274171955888,6.0628038748767805,2.0554859801990766
1.4473551674329266,-2.6554020456258627,6.083358734678772,2.127077837791678
1.420801146976668,-2.772127746232633,6.104629513056689,2.2079292940809037
1.3930798695143416,-2.8920957918121983,6.126708805997498,2.298724615404109
1.3641589115962196,-3.0160451456314954,6.149696052151539,2.4002526063102216
1.3339984601399046,-3.144825005267179,6.1736985782146405,2.513429377232441
1.3025502100872328,-3.279413551373374,6.198832871986965,2.639324863904391
1.269756074573499,-3.420939800355959,6.225226120626009,2.7791931720555323
1.2355466765699394,-3.570708268628993,6.253018052346564,2.934506176899551
1.1998395938836495,-3.7302252042331023,6.28236311411556,3.1069884295954253
1.1625373418413185,-3.901223188609579,6.313432998411514,3.2986486273022226
1.1235251099552228,-4.085677036561522,6.346419484684536,3.5117973935341973
1.0826683395896075,-4.285796400095814,6.381537458619878,3.749030464507831
1.0398103755886494,-4.503966148748868,6.419027763264956,4.013136140931152
0.9947707141011607,-4.742578922767593,6.459159124674268,4.306848275939279
0.9473449248734848,-5.003656519208372,6.50222760743366,4.632298900599582
0.8973083596814011,-5.288077689066068,6.548550596439656,4.9899134407624475
0.8444275827907404,-5.594120282359323,6.598449730847281,5.3763376052521235
0.7884863799671471,-5.914945841149134,6.6522131068998025,5.780873655874323
0.7293369215556558,-6.234857111126091,6.710021843458546,6.180190687252303
0.6669883504443949,-6.525295405488348,6.771823750331069,6.532677267053601
0.6017353963895113,-6.744424774790432,6.837150523001605,6.7778657019330115
0.534291148641607,-6.847278636712045,6.904929180020935,6.85076908752612
0.46581836227448653,-6.808734066071428,6.9734368708961965,6.7143412044729045
0.3977310216137723,-6.643213431726064,7.040580282940925,6.387398694368753
0.33129888729651163,-6.3975549411753345,7.104454269884613,5.934801736701096
0.26732333788475826,-6.123091799099351,7.163802287251624,5.428282654602854
0.20609241989376476,-5.8556130341842705,7.2180851137976525,4.9181872644607125
0.14753628955192205,-5.613053256406249,7.26726698644226,4.43004752754945
0.09140575698785956,-5.40141510668031,7.311567461717754,3.9727503565599256
0.03739160592105646,-5.220598884169565,7.351294965283353,3.546646505566017
-0.01481438292063919,-5.067964314473456,7.386761430339013,3.1485302280343888
-0.06549402606537374,-4.940103640891955,7.418246732619357,2.7741379330592517
-0.11489506247429329,-4.833612062557197,7.44598811194995,2.4192524118142957
-0.16323118309986526,-4.7453712569881965,7.4701806360680925,2.0801276888747564
-0.2106848956697472,-4.672616307301817,7.4909819129568405,1.7536097369028174
-0.2574110587427654,-4.612914822025869,7.508518010325869,1.4371318409952718
-0.3035402069630241,-4.564116366099954,7.522889328735821,1.1286650860337823
-0.34918137062402366,-4.52429718094505,7.534175979596159,0.8266581953625833
-0.39442434243347413,-4.491710165796653,7.542442561549785,0.5299799260183629
-0.43934144409144066,-4.464743500559795,7.547742360809968,0.2378679644218809
-0.4839888790970386,-4.441888508699529,7.5501210404541865,-0.05011560414508992
-0.5284077641840339,-4.421716258423202,7.549619884412736,-0.33412360318852236
-0.5726249267682659,-4.402862010387506,7.54627864838085,-0.6140595255304331
-0.616653546872141,-4.3840165052732125,7.540138053125546,-0.8896112623792565
-0.6604937119248732,-4.363923058475717,7.531241940501753,-1.1602839544124448
-0.7041329425096303,-4.341379421466281,7.519639100957629,-1.4254326894950236
-0.7475467367242932,-4.315243363286026,7.505384774062678,-1.6842953476845648
-0.7906991703571534,-4.284440927498683,7.488541820585833,-1.9360255188021345
-0.8335435796321402,-4.247976343390194,7.469181565397811,-2.179725120700525
-0.8760233430660421,-4.2049426273480455,7.447384314190806,-2.4144761463197826
-0.9180727693395225,-4.1545320068651534,7.423239552727608,-2.6393708722337883
-0.9596180894081741,-4.096045432827208,7.39684584400527,-2.853539865846956
-1.000578543736446,-4.02890060511279,7.3683104453468005,-3.0561772159778586
-1.040867549787574,-3.95263810603652,7.337748673187022,-3.2465625562720057
-1.080393930847939,-3.866925397901265,7.305283047624302,-3.4240796219717167
-1.1190631848269517,-3.7715585790249038,7.271042251404585,-3.5882312479944436
-1.1567787706172008,-3.6664618964722053,7.235159938924641,-3.73865085583331
-1.1934433895819228,-3.5516850799160826,7.197773430366308,-3.875110573821453
-1.2289602403810835,-3.4273985934907487,7.1590223246280935,-3.997526186152017
-1.263234226315991,-3.293886911032142,7.119047062766573,-4.1059591172883465
-1.2961730954263124,-3.1515399179211188,7.07798747159369,-4.200615644063026
-1.3276884946055236,-3.0008425432711925,7.03598131515306,-4.281843505407681
-1.3576969200382356,-2.842362740129907,6.993162880098983,-4.3501260661708665
-1.3861205474395346,-2.6767379644716653,6.949661619437275,-4.406074199498193
-1.4128879270842514,-2.5046603558761475,6.905600877442293,-4.45041608777234
-1.437934530643013,-2.3268608880303066,6.861096716564569,-4.4839852037400885
-1.461203139523316,-2.1440928253859437,6.816256864527168,-4.507706813181486
-1.4826440677771755,-1.957114881193253,6.771179796395353,-4.5225834257649895
-1.502215216589108,-1.766674509909183,6.725953962137703,-4.529679697339369
-1.5198819616882,-1.5734917746002859,6.68065716516431,-4.530107341827349
-1.5356168794342029,-1.378244202755525,6.635356091746036,-4.52501063477452
-1.549399321461758,-1.1815529822736364,6.590105985398291,-4.51555307932801
-1.5612148512844943,-0.9839707583782397,6.5449504546050115,-4.50290576040201
-1.5710545588682767,-0.7859711804729421,6.499921397000992,-4.488237840343475
-1.5789142706730062,-0.5879402260049242,6.455039018597557,-4.472709559249596
-1.5847936729330554,-0.39016920694889956,6.410311923005061,-4.457468006419794
-1.5886953650025444,-0.19284925296091787,6.365737242940863,-4.443645837039455
-1.5906238575321536,0.0039330291817514795,6.321300784570469,-4.432363028790978
-1.590584527240336,0.20019909266119623,6.276977154282559,-4.424731711965751
-1.588582536313724,0.39608160432496414,6.232729837162902,-4.42186406463883
-1.5846217202704744,0.5918276545521856,6.188511196516513,-4.424883236796082
-1.5787034437249525,0.7878024496484242,6.1442623641485525,-4.434937241802123
-1.5708254192284683,0.9844938569807006,6.099912991730531,-4.453215707290917
-1.5609804806586614,1.1825180519671625,6.055380834657622,-4.480969270116456
-1.5491553001389897,1.3826262867598509,6.010571141956457,-4.519531161473663
-1.5353290372713913,1.5857123818434564,5.965375830341721,-4.57034003679543
-1.5194719134529566,1.7928197859217891,5.919672429973766,-4.634962146802685
-1.5015437155937388,2.0051456919292643,5.87332280850574,-4.7151091456208665
-1.4814922586744461,2.224037272418001,5.826171717049531,-4.812644532787977
-1.4592518859502661,2.4509708034878384,5.778045271721652,-4.929565797962911
-1.4347421779153877,2.6874969459137077,5.728749613742023,-5.067938894511089
-1.4078672084562507,2.935122660791924,5.678070224796913,-5.229743761497668
-1.3785159818483315,3.195079351477758,5.625772787181936,-5.41656025056907
-1.3465651883335539,3.467895504210691,5.571607184676245,-5.628979583400814
-1.311886233291447,3.7526534475492914,5.515317388842237,-5.865571463995448
-1.274359698815954,4.0457873691051365,5.456661674202283,-6.1212037447102325
-1.2339018251249025,4.33935180376169,5.39544963675518,-6.384609537934635
-1.1905083070872857,4.619038365583938,5.331603541375834,-6.635580995235389
-1.1443179234314464,4.863090836772544,5.2652477314234805,-6.843388364778146
-1.095687015063721,5.044517181182383,5.196813847775699,-6.969776152721971
-1.0452418432518973,5.138975544856604,5.1271160862484795,-6.979876519796345
-0.9938520878033312,5.136500335984001,5.057317321050516,-6.8585157175550115
-0.9424870844434912,5.04846947168054,4.988732163874966,-6.6199493874208954
-0.8920023897266858,4.902344246350873,4.922532670000757,-6.300635218249202
-0.842978947263177,4.728663423323407,4.859526317818265,-5.941284028415351
-0.7956923130299429,4.551163156367502,4.800113477534111,-5.573270049328459
-0.7501806814662679,4.384251170565103,4.744380777040827,-5.2152112916631665
-0.7063381697606169,4.234933788999736,4.692228664124195,-4.875663862750945
-0.6639888318706195,4.105633077253933,4.643472025496686,-4.557005110869593
-0.6229325010980802,3.996345139022049,4.59790197438799,-4.2583866291276244
-0.5829690497078597,3.905954445467965,4.555318108096714,-3.977519102862999
-0.54390950525318,3.832941532932077,4.515542917068084,-3.711625150774888
-0.5055800899238593,3.7757311038773427,4.478426665560335,-3.4579035434208145
-0.46782277888508583,3.732846050968147,4.443847630126126,-3.2137329857848504
-0.43049431837540436,3.7029625973158566,4.411710300268278,-2.976745828565144
-0.3934646924022458,3.6849174834906724,4.381942841982626,-2.7448409980109387
-0.35661551756733906,3.6776933394597076,4.354494432002517,-2.516171439971983
-0.31983858417274197,3.680395232576233,4.329332717602798,-2.2891234401896656
-0.28303463184697963,3.692224623948957,4.306441483200901,-2.0622959845354036
-0.24611238560749005,3.7124535780145327,4.285818523355547,-1.8344836827733113
-0.20898784982734472,3.740400430572518,4.267473686527814,-1.604664461544503
-0.17158384552161954,3.775407379660175,4.251427041912369,-1.3719920742183835
-0.13382977172501778,3.8168201814556446,4.237707121170185,-1.1357928825186328
-0.09566156991046133,3.8639700808967383,4.226349192344999,-0.8955660388624007
-0.05702186910149395,3.9161581616738235,4.217393531956375,-0.650985995440445
-0.01786028748475571,3.9726423934157533,4.210883672001971,-0.4019061251036731
0.021866136449401823,4.03262774159771,4.206864610750935,-0.14836214433348077
0.06219241386537892,4.0952597569408,4.2053809893076,0.10942601075179625
0.10314501143478692,4.159622052413092,4.206475249415118,0.37105516659533744
0.14474123195891786,4.224737991145104,4.210185801081072,0.6359439246863197
0.18698861187036891,4.289576740766598,4.216545240327935,0.9033426180663702
0.2298843792780349,4.353063604359468,4.225578666508599,1.1723487448090149
0.2734150153216296,4.4140942354933115,4.237302153956689,1.441927925827919
0.3175559576765627,4.4715520192178015,4.251721433214968,1.7109398851286175
0.3622714778687407,4.5243275979325785,4.268830832066254,1.9781683997992492
0.40751475384806646,4.571339290169643,4.288612516064246,2.2423536890880125
0.45322814674976286,4.6115530354005845,4.311036052955126,2.5022253803383836
0.4993436771037687,4.644000527681676,4.33605830675851,2.756534061630057
0.5457836823805855,4.667794381451351,4.36362364737481,3.0040795345759688
0.592461626195099,4.682139485270602,4.39366444272057,3.2437342070563338
0.639283021047805,4.686340103080807,4.4261017847911335,3.474460570227767
0.6861464220786131,4.679802723186133,4.460846390493411,3.6953223157097046
0.7329444493104744,4.6620350750351855,4.497799613650508,3.9054892838408377
0.7795648000608263,4.632642082493682,4.5368545064889165,4.10423701200195
0.8258912208857632,4.591319763705496,4.577896876608936,4.290942109027294
0.8718044185228181,4.537848203582217,4.620806297699208,4.465074977023441
0.9171829005586403,4.472084714010499,4.665457047469443,4.626191519718564
0.9619037476987453,4.3939581707293724,4.7117189626666285,4.773925422382825
1.005843329406039,4.30346529464992,4.759458216890457,4.907982383264149
1.048877982352538,4.20066935362615,4.808538040723098,5.028137350210729
1.0908846758887996,4.085701424532806,4.858819414225206,5.134235402758284
1.1317416901341275,3.9587640020127126,4.910161768252789,5.226196455254707
1.1713293301542547,3.8201363976001113,4.962423732805336,5.3040234776522475
1.2095306941302557,3.670181070850226,5.015463967581859,5.367813476204358
1.246232504838758,3.509349803446637,5.0691421023439025,5.417770086954792
1.2813260028732243,3.338188497761749,5.123319803213451,5.454216351117226
1.3147078878508418,3.1573393775473773,5.177861966724623,5.477606099746825
1.3462812816263157,2.967539504184667,5.232638027722091,5.488532401993618
1.3759566766681623,2.7696147949159635,5.287523351742027,5.487731736327955
1.4036528246173219,2.564469117597853,5.342400669105307,5.476082914646023
1.4292975157933003,2.353068497776474,5.397161498251767,5.454600287818342
1.4528282007710651,2.1364209510056944,5.45170750112995,5.424421329296736
1.4741924102811221,1.9155528825533572,5.505951714422917,5.386789259003162
1.4933479391066558,1.6914833191351186,5.559819607012948,5.343031860176294
1.5102627722980069,1.4651974102843484,5.613249925614712,5.294537996823438
1.5249147464008503,1.2376206415705533,5.666195305582946,5.242733521857109
1.537290952816556,1.0095950458463832,5.718622640801517,5.189058267821444
1.5473869032750198,0.7818584131210924,5.770513223479731,5.134945653593642
1.5552054874062307,0.5550271311111931,5.821862680015667,5.08180616374893
1.5607557587173426,0.32958288894723553,5.872680741653157,5.031015616481593
1.564051587606815,0.1058630934787625,5.922990897817972,4.983908786304917
1.5651102185416026,-0.11594548287446346,5.972829985681021,4.941778636591781
1.563950763712858,-0.33581056076599525,6.022247772046939,4.9058811782128675
1.560592658105198,-0.5538566344826377,6.0713065838290685,4.877445822302481
1.5550540917603717,-0.7703666932679161,6.120081042052093,4.857691040861007
1.5473504248276926,-0.9857844441491225,6.168657952460704,4.847845179003553
1.5374925803862014,-1.2007180904318706,6.2171364042507395,4.84917235645118
1.5254853994818827,-1.415946671413551,6.265628127815251,4.86300352019666
1.511325932767747,-1.6324298683730822,6.314258163017218,4.890772812828309
1.4950016340840162,-1.8513219882078193,6.363165891145501,4.934059413070374
1.476488414201938,-2.073990449230994,6.412506485276205,4.994634725363964
1.455748509709628,-2.302038303221231,6.462452832529844,5.074513937453398
1.432728126677416,-2.537328712777995,6.513197971904378,5.176008936280186
1.407354839549636,-2.7820060379350293,6.5649580612671805,5.301775220728508
1.3795347791702857,-3.038501672823739,6.617975813474466,5.454836543884556
1.3491497624420483,-3.3094999687297593,6.672524178913312,5.638553297873419
1.3160547627547508,-3.5978148709366295,6.7289097118920465,5.85646623900942
1.2800766140453845,-3.9060816211901477,6.787474374282141,6.111882419657973
1.241015797833483,-4.236085993111322,6.848593198478721,6.4069552239468095
1.1986549379023699,-4.5874253961967755,6.912662750718189,6.740829684722398
1.1527806839404022,-4.955054241225572,6.980071047565413,7.106221985913055
1.1032301415281465,-5.325316582890967,7.051133267424543,7.4838654553065185
1.0499769756992368,-5.670973560491829,7.125971921977608,7.835509859630436
0.9932672400943184,-5.948680618506236,7.2043270205739125,8.100277099241616
0.9337804339092561,-6.106954740871616,7.285329791566329,8.205603823588408
0.87271088650054,-6.1107000738278225,7.367385829802213,8.10128644512041
0.8116038857622617,-5.968034329362808,7.4483986942534175,7.796790042306368
0.7519235424686337,-5.728269911740049,7.526366594676481,7.358472331596327
0.6946408433512332,-5.450278389190439,7.599951317992444,6.865777546331988
0.6401380594593288,-5.176312172478427,7.668609093455764,6.3751732063116675
0.5883749377345445,-4.927748156323768,7.732360825518881,5.9144704881529275
0.5390974561713069,-4.7119264968916905,7.79150553040041,5.4923638078003485
0.49197819120239,-4.529138608255511,7.846429168478413,5.108062344582997
0.4466868051198349,-4.376840169228221,7.897509791924243,4.757046620395865
0.4029184034275527,-4.2516957470102925,7.945080258128201,4.433833420609956
0.3604014459574498,-4.150440112376594,7.989418592334301,4.133123544827672
0.31889704483368386,-4.070182018069067,8.030749827782579,3.850196783650449
0.2781952246529932,-4.008467440036522,8.069251795619083,3.5809886067884245
0.23811055025262795,-3.9632481834253874,8.105061681686967,3.3220469155029013
0.19847806841837407,-3.9328192723844126,8.138282150841997,3.0704542252324236
