th1 (rad),w1 (rad/s),th2 (rad),w2 (rad/s)
4.046861890284375,-2.4269122097105633,1.3450427635983655,-2.5324843813829974
4.02259276818727,-2.3734672356429334,1.3197179197845355,-2.554562765457472
3.9988580958308404,-2.3233203739869634,1.2941722921299608,-2.580162898176838
3.9756248920909707,-2.276423468489947,1.2683706631481924,-2.6091053226178516
3.952860657406071,-2.232725194764535,1.242279609922014,-2.6412101150948972
3.930533405458426,-2.1921707841306897,1.2158675087710649,-2.676296722098024
3.9086116976171192,-2.1547015937997633,1.1891045415500847,-2.714183590713186
3.8870646816791217,-2.120254534066105,1.161962705642953,-2.7546876090747467
3.8658621363384604,-2.0887613635136275,1.1344158295522053,-2.797623373092721
3.8449745227033243,-2.060147863989406,1.106439595821278,-2.842802295918779
3.8243730440634303,-2.0343329083542545,1.0780115728620903,-2.890031577487941
3.8040297149798876,-2.011227435891586,1.0491112570872108,-2.939113053104132
3.783917440620972,-1.9907333528268567,1.0197201265561695,-2.9898419425161404
3.7640101070927034,-1.9727423787464968,0.9898217071310081,-3.0420055243215107
3.7442826833052383,-1.9571348638445574,0.959401651887793,-3.0953817648733866
3.7247113346667926,-1.9437786068642517,0.9284478342390592,-3.1497379361398288
3.70527354859815,-1.9325277092823998,0.8969504548776609,-3.2048292631090964
3.685948271505326,-1.9232215075783807,0.8649021622465699,-3.2603976482040067
3.666716056429542,-1.9156836321166142,0.8322981857645299,-3.316170527523944
3.6475592201083757,-1.9097212479255061,0.7991364804892904,-3.3718599212179368
3.6284620076291207,-1.9051245390243396,0.7654178812771111,-3.4271617474151856
3.6094107622388774,-1.9016665033458873,0.7311462638029592,-3.48175547526195
3.5903940972054187,-1.8991031290043272,0.6963287090503397,-3.535304196947884
3.5714030659153755,-1.8971740238227872,0.6609756670808609,-3.587455200228172
3.552431325677148,-1.8956035677355436,0.6251011150785791,-3.6378411208394326
3.5334752899997923,-1.8941026509670267,0.5887227038701848,-3.686081747313804
3.514534263490122,-1.892371048882429,0.5518618863970467,-3.731786538027507
3.4956105530012977,-1.890100466410898,0.5145440210167717,-3.7745578910819284
3.4767095483371886,-1.8869782606032317,0.47679844210595235,-3.813995181361978
3.457839765731156,-1.8826918193321436,0.43865849029233256,-3.849699545925312
3.4390128475378345,-1.8769335381421357,0.40016149483307945,-3.881279359511047
3.420243512156413,-1.8694062973253962,0.36134870123796897,-3.908356297997905
3.401549449183159,-1.8598292997529111,0.3222651382579899,-3.9305718415434128
3.3829511561856296,-1.8479440898812218,0.2829594198425558,-3.9475940241786396
3.3644717152868173,-1.8335205393051512,0.24348347960076938,-3.959124196742941
3.346136509893766,-1.8163625581117928,0.20389223763333997,-3.9649035394658885
3.327972884312648,-1.796313277817299,0.16424320223868108,-3.9647190433477375
3.310009751534475,-1.773259453870731,0.1245960118052037,-3.958408679185411
3.292277156995768,-1.7471348554467534,0.08501192501334959,-3.945865491835256
3.2748058084413003,-1.7179224477795945,0.045553270094997024,-3.9270403955901356
3.2576265839635044,-1.685655226022111,0.006282866139095664,-3.901943502875251
3.240770031703283,-1.650415626096383,-0.03273656888965685,-3.8706438893072037
3.224265875442319,-1.6123335122000289,-0.07144300778272888,-3.8332677782286813
3.2081425403203188,-1.571582816453243,-0.1097756855650157,-3.789995210633573
3.192426712155786,-1.5283769771849773,-0.14767563767135145,-3.7410553449925805
3.177142942383936,-1.4829633825855553,-0.18508619112127725,-3.6867205993354926
3.1623133085580806,-1.4356170711061276,-0.2219533971146322,-3.6272998996965526
3.1479571378470195,-1.386633966008624,-0.2582263961115977,-3.5631313311427935
3.134090798186933,-1.3363239278297245,-0.29385770942302564,-3.4945744986776215
3.120727558908636,-1.2850038961903503,-0.32880345440980185,-3.4220028960892552
3.1078775199467326,-1.2329913640454866,-0.3630234833706944,-3.345796553911789
3.095547606306278,-1.1805983870409598,-0.3964814489098123,-3.2663351970713794
3.0837416224358685,-1.1281262826727512,-0.4291448008805261,-3.1839920932409616
3.072460359609141,-1.0758611230271011,-0.4609847218129357,-3.0991287192950527
3.06170174837887,-1.0240700751618261,-0.49197600900588623,-3.0120903200072475
3.051461047627252,-0.9729985980121327,-0.5220969122059587,-2.9232023839369474
3.041731061647131,-0.9228684664160455,-0.5513289360453282,-2.832768018964809
3.0325023769829706,-0.8738765627785837,-0.5796566162349762,-2.7410661757461483
3.023763611355185,-0.8261943554202231,-0.6070672779924378,-2.648350642056987
3.0155016678009825,-0.779967969415497,-0.6335507844130076,-2.554849714387923
3.0077019881068274,-0.7353187498079973,-0.6590992815568868,-2.460766444371934
3.0003488006087475,-0.6923442172450421,-0.6837069460006061,-2.3662793555073853
2.9934253584362973,-0.6511193209273766,-0.7073697395556799,-2.27154352877065
2.9869141652270237,-0.6116979019492846,-0.7300851748433864,-2.1766919627004695
2.9807971862075306,-0.5741142903671452,-0.7518520944703911,-2.0818371230762556
2.975056043303859,-0.5383849706211812,-0.7726704657011537,-1.987072608277781
2.9696721935976473,-0.5045102614025722,-0.7925411917839316,-1.8924748678883467
2.9646270909836216,-0.47247596707900286,-0.8114659404628151,-1.7981049233895843
2.9599023313128314,-0.4422549679371982,-0.8294469896967109,-1.7040100503996976
2.9554797816334593,-0.4138087255118935,-0.8464870902007079,-1.6102253915120357
2.9513416943783404,-0.38708868702443394,-0.8625893441158282,-1.5167754772269582
2.947470807508096,-0.36203757943174014,-0.8777570988880978,-1.4236756396792198
2.9438504317137784,-0.3385905888420058,-0.8919938552848901,-1.33093330986969
2.9404645258253583,-0.3166764251891755,-0.9053031883835869,-1.2385491939935245
2.9372977615734666,-0.29621827520302507,-0.9176886803235221,-1.146518328329828
2.9343355788214365,-0.2771346490059857,-0.9291538636068204,-1.0548310151498879
2.9315642323313766,-0.25934012725236044,-0.9397021737583193,-0.9634736443459546
2.928970831058853,-0.24274601673363333,-0.9493369102017789,-0.8724294071097453
2.9265433708915167,-0.22726092292668607,-0.9580612042728763,-0.7816789091190613
2.92427076166225,-0.21279124816731554,-0.965877993364067,-0.691200691429147
2.922142849180577,-0.19924162408210164,-0.9727900002783585,-0.6009716677056943
2.920150432939756,-0.18651528668561085,-0.9787997169554155,-0.510967486657805
2.9182852800729,-0.17451440221204573,-0.9839093918219936,-0.4211628285976425
2.9165401360507794,-0.16314035135379504,-0.98812102010797,-0.33153164502298244
2.9149087325372416,-0.15229397916666887,-0.9914363365581998,-0.2420473500330267
2.913385792745575,-0.14187581750699826,-0.9938568100585301,-0.15268297228152286
2.911967034570505,-0.1317862865161091,-0.9953836397813454,-0.06341127607194864
2.910649171705344,-0.1219258813839243,-0.9960177525420648,0.025795139871140058
2.909429912891505,-0.11219535042180326,-0.9957598011433534,0.11496375744570109
2.9083079593872867,-0.1024958703675037,-0.9946101635688964,0.20412205948855083
2.9072830006836115,-0.09272922484144813,-0.9925689429740109,0.2932974467204966
2.9063557084351967,-0.0827979919796239,-0.9896359685068059,0.382517142498607
2.9055277285154006,-0.07260574748820907,-0.9858107970818198,0.4718080762953083
2.9048016710405187,-0.062057289699562035,-0.9810927163188667,0.5611967364816836
2.904181098143523,-0.051058893656803925,-0.9754807489540499,0.6507089825664993
2.903670509206955,-0.03951860180961936,-0.968973659128385,0.7403698065366782
2.9032753231888586,-0.027346559557440534,-0.9615699610630182,0.8302030323673298
2.903001857593284,-0.014455404612474158,-0.9532679307393449,0.9202309421343002
2.9028573035471594,-0.0007607199512427703,-0.9440656213180019,1.010473816491849
2.902849696347647,0.013818439053049128,-0.9339608831530833,1.1009493766055487
2.9029878807381775,0.029358931918831398,-0.9229513893870278,1.191672114002674
2.9032814700573657,0.04593282263851686,-0.9110346682470011,1.2826524942837063
2.9037407982837506,0.06360655885821179,-0.898208143304164,1.3738960203156767
2.904376863872333,0.08244002765023621,-0.8844691831010072,1.465402140514529
2.905201264148835,0.10248547496072524,-0.8698151616958619,1.5571629882654852
2.9062261188984424,0.1237862764619356,-0.8542435318132071,1.6491619396113346
2.907463981663062,0.1463755489500304,-0.8377519124170938,1.7413719782849526
2.9089277371525624,0.1702745938476261,-0.8203381926342442,1.833753860246351
2.9106304830910386,0.19549116808048178,-0.8020006540317808,1.9262540744246621
2.912585394771843,0.2220175829204408,-0.7827381132875342,2.018802602722129
2.9148055706010476,0.2498286386697999,-0.7625500872603129,2.1113104909015052
2.9173038569877456,0.27887941266073346,-0.7414369823512978,2.203667253150039
2.920092651114353,0.3091029302880153,-0.7194003098197974,2.29573814726511
2.923183680417233,0.340407763943123,-0.6964429283471463,2.387361374830336
2.926587758056664,0.37267562289384126,-0.672569314598843,2.4783452815817744
2.9303145142856026,0.4057590182511902,-0.6477858617830252,2.5684656572808904
2.9343721044681144,0.43947911074702156,-0.6221012052102163,2.6574632613141316
2.9387668955755846,0.47362387421613034,-0.595526572597075,2.745041728907479
2.943503134317746,0.507946732956467,-0.5680761553080002,2.8308660415898443
2.9485826016473107,0.5421658543530896,-0.5397674948921017,2.9145617718764303
2.9540042601908416,0.5759642963561392,-0.5106218771733374,2.99571533271346
2.959763903154403,0.6089912189201053,-0.4806647238462028,3.073875472820729
2.965853815343604,0.6408643650797806,-0.4499259691179955,3.148556254811136
2.972262458994402,0.6711739964614007,-0.4184404065698841,3.219241728705626
2.978974198959016,0.6994884255425221,-0.3862479892828279,3.2853924644227317
2.985969083214441,0.7253612198443218,-0.35339406463860057,3.3464540295140464
2.993222695412884,0.7483400605194301,-0.3199295243434601,3.401867391742634
3.0007060960180785,0.7679771216413832,-0.28591085042603376,3.4510810925138276
3.0083858672344923,0.7838407030060671,-0.2514000395008955,3.4935648836400817
3.016224274264553,0.7955277088668048,-0.2164643906644947,3.528824358411085
3.024179551353221,0.8026764322166641,-0.18117614708038382,3.5564159550210666
3.0322063156753876,0.8049789962479832,-0.14561198753017315,3.575961585823043
3.040256105637867,0.8021927392400445,-0.10985237167194273,3.5871620699895836
3.0482780330302677,0.7941498216795302,-0.0739807509720469,3.589808537503216
3.056219531247063,0.7807643945502806,-0.03808266559701474,3.583791040012888
3.0640271751925656,0.7620367966571264,-0.002244755196885856,3.569103750381916
3.071647543159137,0.7380544378826592,0.033446282306933306,3.5458463478228106
3.079028087537963,0.7089892561806616,0.06890474578516141,3.5142214486114884
3.08611798009977,0.6750918834795632,0.1040469602712763,3.474528224612488
3.0928688989345656,0.6366828909376653,0.1387922425174012,3.4271526207877203
3.099235727843942,0.5941416802304677,0.1730637687252784,3.372554807954894
3.105177144646247,0.5478937239542393,0.20678931680482734,3.31125466471664
3.1106560818857893,0.4983969232729921,0.23990186345199374,3.2438161596032837
3.115640051118519,0.44612784355717694,0.27234002504802657,3.17083149976863
3.120101329554091,0.39156851748681576,0.30404834004571285,3.092905835538914
3.124017014728959,0.33519438551182906,0.33497739840110197,3.0106431781625096
3.1273689585840776,0.27746379493883233,0.36508383018272705,2.924634022778306
3.130143596533466,0.2188093207348464,0.3943301704105101,2.8354449917166473
3.1323316897408144,0.1596310203194355,0.42268462032767656,2.7436106437188195
3.133927999944009,0.10029160373076387,0.45012072676486475,2.6496274466431666
3.1349309159813163,0.041113397165018516,0.4766170012312964,2.5539497933010873
3.1353420499529667,-0.01762309516729959,0.5021564991643073,2.45698785556379
3.1351658190012937,-0.07567926966453495,0.5267263777199451,2.359107019860907
3.1344090263046485,-0.1328573993319896,0.5503174479185542,2.260628623747562
3.1330804523113285,-0.18899876165395002,0.5729237341560298,2.1618317127840507
3.131190464694789,-0.2439811555467743,0.5945420512838703,2.062955553448778
3.1287506531393214,-0.2977160177245504,0.615171606818358,1.9642026653685971
3.1257734929620757,-0.35014531691039824,0.634813633472044,1.8657421697726877
3.1222720397929717,-0.4012383710004449,0.6534710551697709,1.76771328676446
3.118259656082967,-0.4509887001332238,0.6711481880374155,1.6702288488454125
3.113749769081635,-0.4994109993286588,0.6878504765258696,1.5733787301849493
3.1087556590883487,-0.5465382888806228,0.7035842638277191,1.4772331193025097
3.1032902761995427,-0.5924192793821328,0.7183565950207442,1.381845586639361
3.0973660834057215,-0.6371159710914822,0.7321750508871379,1.2872559179275622
3.0909949236948067,-0.6807014940069599,0.7450476100664135,1.1934926995906592
3.0841879087547373,-0.723258185055506,0.7569825370623201,1.1005756540841019
3.0769553269041823,-0.7648758917027547,0.7679882936031611,1.0085177316304834
3.0693065679871547,-0.8056504865411019,0.778073470919466,0.917326970765403
3.0612500631217436,-0.8456825745252446,0.78724674062712,0.8270081439945746
3.052793237376491,-0.8850763730720115,0.7955168220670658,0.7375642071290496
3.043942473645771,-0.9239387448573795,0.8028924641383562,0.6489975719061704
3.0347030861971973,-0.9623783635265136,0.809382439857418,0.5613112216458375
3.0250793025619322,-1.0005049934406647,0.8149955520738763,0.47450968919852116
3.015074252627526,-1.0384288658294103,0.8197406489658615,0.38859991552012074
3.004689963969232,-1.0762601351553287,0.8236266481210627,0.3035920060172806
2.9939273626176788,-1.1141084010260154,0.8266625681812355,0.219499900462137
2.9827862786074184,-1.1520822825313743,0.8288575671858569,0.13634197086132702
2.9712654557821048,-1.1902890333926532,0.8302209868944702,0.054141560237496694
2.959362565448178,-1.2288341877529474,0.8307624024968452,-0.02707252612117894
2.947074223570649,-1.2678212278004635,0.8304916772356334,-0.10726556674626093
2.934396011292644,-1.3073512656900792,0.8294190215681708,-0.18639649851700185
2.9213224986357433,-1.3475227334179263,0.8275550565830008,-0.2644175119904998
2.907847271301564,-1.3884310754158313,0.8249108814630958,-0.3412736610972499
2.8939629605474058,-1.4301684396794414,0.8214981448521232,-0.41690248193049295
2.8796612761506113,-1.4728233642404138,0.8173291200328183,-0.49123361649610797
2.8649330425082074,-1.516480456755596,0.8124167838678572,-0.5641884384138175
2.8497682379406513,-1.5612200659320872,0.806774899483719,-0.635679678682538
2.8341560372813306,-1.6071179444543036,0.8004181026968937,-0.7056110507540865
2.8180848578367876,-1.654244904045441,0.7933619921893529,-0.7738768753095078
2.801542408796333,-1.702666464298286,0.7856232234362578,-0.8403617063076751
2.7845157441533503,-1.7524424979654847,0.777219606373181,-0.9049399610796589
2.7669913191736955,-1.8036268765220123,0.7681702067623845,-0.9674755584734218
2.748955050408475,-1.856267121015676,0.7584954511776503,-1.0278215703050937
2.7303923791983182,-1.9104040645154832,0.7482172354745993,-1.085819892632442
2.7112883385531634,-1.966071533859946,0.7373590365482748,-1.1413009446126725
2.691627623214564,-2.0232960599013023,0.7259460271021481,-1.1940834039109691
2.671394662615551,-2.082096627035991,0.7140051930630383,-1.243973988748587
2.6505736963451914,-2.142484474499783,0.7015654531755524,-1.2907672976684128
2.6291488516001937,-2.204462963674688,0.6886577801988683,-1.3342457188870505
2.607104221963447,-2.268027527483947,0.6753153230099977,-1.3741794216162138
2.584423946688607,-2.3331657198132354,0.6615735287938356,-1.4103264418770183
2.5610922894904746,-2.3998573847547338,0.6474702643750654,-1.4424328749860686
2.537093715642927,-2.4680749672822584,0.6330459356252047,-1.4702331859318392
2.5124129659701047,-2.5377839886792892,0.6183436037658864,-1.4934506471361362
2.487035126083312,-2.6089437116014564,0.603409097294525,-1.5117979104445336
2.460945688967297,-2.681508021002382,0.5882911181900796,-1.5249777164338851
2.434130608757273,-2.755426548230697,0.5730413410257408,-1.5326837390766486
2.406576343274966,-2.830646066369551,0.5577145036349743,-1.5346015572688085
2.3782698826112707,-2.907112185309012,0.5423684880622862,-1.530409736521644
2.349198760758181,-2.984771375117393,0.5270643906970698,-1.5197809940605387
2.319351047007007,-3.063573346055314,0.5118665807564644,-1.5023834085118224
2.288715313546454,-3.1434738131644733,0.4968427466713462,-1.4778816211695678
2.2572805754148093,-3.224437672953029,0.4820639304596505,-1.4459379594392767
2.225036198685279,-3.3064426195888346,0.46760455086525776,-1.4062133944250241
2.191971772489391,-3.3894832286281806,0.4535424169210075,-1.3583682237830677
2.158076940203109,-3.473575538232239,0.4399587346831768,-1.3020623479767965
2.1233411848207866,-3.558762161810192,0.42693811120340885,-1.236954983036038
2.0877535632026847,-3.64511797301663,0.4145685613730485,-1.1627036259581762
2.0513023834725184,-3.732756415145154,0.4029415251134667,-1.0789620600802787
2.0139748193210667,-3.8218365034847035,0.3921519045126639,-0.9853771571505319
1.9757564542862196,-3.9125706125220803,0.3822981329411586,-0.8815842004515867
1.9366307481609988,-4.005233171333032,0.37348229093664276,-0.7672004192510397
1.8965784164476684,-4.100170431170435,0.36581028674413235,-0.64181638945972
1.855576712135964,-4.197811519438931,0.35939212284953514,-0.5049849199526998
1.8135985969415749,-4.298681052600441,0.35434227365000814,-0.3562070119648679
1.7706117864155704,-4.40341364242067,0.3507802035303595,-0.19491445827531642
1.7265776499913636,-4.5127706841872115,0.34883105894760635,-0.02044865670798479
1.6814499431494916,-4.627659838439975,0.3486265723805265,0.1679647159957019
1.6351733447650918,-4.7491575617179205,0.3503062195404835,0.37124531867676347
1.5876817691479126,-4.878534813350815,0.3540186727272512,0.5904917221772934
1.5388964210144045,-5.017285483234563,0.3599235899490241,0.8270176134201305
1.4887235661820588,-5.1671558011196375,0.3681937660832254,1.0823872501036929
1.4370520081708624,-5.330170333544402,0.37901763858426235,1.3584427551349747
1.3837503048354185,-5.50864488091683,0.3926020661356121,1.6573080083351728
1.3286638560262503,-5.705166274957832,0.40917514621896384,1.9813388957654317
1.271612193276672,-5.922499412069787,0.42898853517661817,2.3329614148540285
1.212387199155974,-6.163345418968262,0.45231814932515846,2.7142872270964533
1.1507537449662915,-6.429810630975085,0.47946102159612297,3.12630546974421
1.0864556386565405,-6.72234400100883,0.5107240762935651,3.567306541702629
1.019232198646452,-7.037775989253121,0.5463971417105914,4.030021596971348
0.9488544387539208,-7.366069132869963,0.5866973576803048,4.496939597591539
0.8751937474252212,-7.685899433087085,0.6316667536562203,4.9340052113617014
0.7983347530943503,-7.9611378284608385,0.6810068057698373,5.285695310022038
0.7187233748097419,-8.144116640212252,0.7338637588700577,5.4799093578756946
0.6372822084076194,-8.19294228465885,0.7886628524488146,5.453052787718373
0.555352785561031,-8.09808444404443,0.8431933803259983,5.188531881987389
0.47437194112058667,-7.892858755551566,0.8950786991458722,4.73239871243455
0.395443353565071,-7.632338957651934,0.9424026862702177,4.163705405472559
0.31911996398855164,-7.363826798680427,0.9840397403249433,3.552119738775775
0.24548169600174735,-7.114762905501369,1.019560937712701,2.939934339044236
0.17433406694673365,-6.896100106581601,1.0489602811031433,2.346230061871506
0.10537306588091763,-6.709332514715463,1.0724225817218584,1.7766017866649246
0.038279740733763,-6.551601243519109,1.0901885995885077,1.2304024328738365
-0.02723627170142809,-6.418434357023758,1.1024926239172461,0.7047298479357127
-0.09142061527166567,-6.304998151417689,1.1095399223966032,0.19631782363729555
-0.15447059678584257,-6.2065942556647125,1.111503100632976,-0.2976615971252012
-0.2165365393424897,-6.118816667981871,1.108526484661724,-0.7793092734265037
-0.2777247060223084,-6.0375715600891855,1.100733391927459,-1.2499396681282269
-0.33810042162320025,-5.959052528427204,1.0882339952461766,-1.7101207239933873
