th1 (rad),w1 (rad/s),th2 (rad),w2 (rad/s)
2.5008638980741598,-0.8585289120092447,5.128305883828473,-2.9564540930136487
2.4922786089540674,-0.8579492279628862,5.098741342898336,-2.869929109856684
2.4836991166744387,-0.859258758340079,5.070042051799769,-2.7840328257275013
2.475106529091038,-0.8626121440872856,5.042201723542494,-2.69897589385018
2.466480407650165,-0.8681310878171417,5.015211964603992,-2.614934296590316
2.4577990967719936,-0.8759089228091484,4.989062621638089,-2.5320548860753287
2.449040007543902,-0.8860148414445634,4.963742072777336,-2.450460480159853
2.4401798591294566,-0.8984977454882188,4.939237467975738,-2.370254476462075
2.4311948816745743,-0.9133897075722044,4.9155349232111165,-2.2915249770484225
2.4220609845988523,-0.9307090521752862,4.892619673440632,-2.214348437045968
2.4127538940770994,-0.9504630769481061,4.870476189070172,-2.1387928639811644
2.403249263307618,-0.9726504428675596,4.84908826043036,-2.064920602708974
2.3935227588789427,-0.9972632656594049,4.828439054403271,-1.992790744853724
2.3835501262223486,-1.0242889422249042,4.808511146954733,-1.92246120289409
2.3733072368000996,-1.0537117452507756,4.789286534925792,-1.853990488292517
2.3627701193475916,-1.0855142173899974,4.770746630042867,-1.7874392310739087
2.3519149771736916,-1.1196783938346009,4.752872237732127,-1.7228714754947345
2.3407181932353454,-1.1561868790933032,4.73564352297718,-1.6603557832590967
2.3291563244444125,-1.1950238005686054,4.71903996514459,-1.5999661723644298
2.3172060864387265,-1.2361756582539982,4.703040303420945,-1.5417829162395222
2.3048443298561865,-1.2796320866374538,4.68762247425855,-1.4858932244480316
2.292048008989812,-1.3253865417538266,4.67276354201407,-1.4323918228987962
2.2787941435722736,-1.3734369232953556,4.658439623785082,-1.3813814482210414
2.26505977433932,-1.4237861387619009,4.644625809302871,-1.3329732676928183
2.250821912951701,-1.4764426137899644,4.631296076625943,-1.287287232800643
2.2360574868138015,-1.5314207500091745,4.618423204297937,-1.2444523710899686
2.2207432793137096,-1.5887413289961478,4.605978680587037,-1.2046070173633898
2.204855866023748,-1.6484318580829942,4.593932610413403,-1.1678989814143552
2.188371547442918,-1.710526850883733,4.58225362059926,-1.1344856452643959
2.171266278934081,-1.7750680323799788,4.5709087641466155,-1.1045339782185273
2.153515598610281,-1.84210445521512,4.55986342436443,-1.07822045288933
2.1350945540581296,-1.9116925104499367,4.549081219835537,-1.0557308395995508
2.11597762895363,-1.9838958124119868,4.538523911439541,-1.0372598502094095
2.09613867082951,-2.0587849334264288,4.528151312937447,-1.023010595411182
2.075550821495246,-2.1364369601765993,4.517921206983335,-1.0131938119161084
2.05418645189348,-2.216934839277526,4.507789268864173,-1.008026807813381
2.0320171035007046,-2.300366475475565,4.497709000786039,-1.007732065875377
2.009013438745949,-2.3868235418996586,4.4876316801272855,-1.0125354359911085
1.9851452033269523,-2.4763999582526948,4.477506325767375,-1.0226638396395111
1.9603812037444255,-2.5691899901096473,4.46727968737098,-1.0383424019385
1.934689303843329,-2.6652859210550868,4.456896263351595,-1.0597909210904528
1.9080364446327782,-2.764775249833213,4.446298354140691,-1.0872195819706774
1.8803886921344461,-2.867737367695625,4.4354261583209835,-1.1208238213770974
1.8517113184574898,-2.9742396775021143,4.424217920107212,-1.1607782584916062
1.8219689216824686,-3.084333126690812,4.412610137522297,-1.20722961697336
1.7911255904155605,-3.19804714179286,4.400537841352563,-1.2602885864567468
1.759145118997632,-3.315383973396879,4.387934955487995,-1.3200206026217634
1.7259912792636631,-3.43631248776639,4.374734749461777,-1.3864355676975593
1.6916281543859992,-3.5607614746234155,4.3608703937848015,-1.459476587917287
1.6560205396397651,-3.6886125792345967,4.346275627905628,-1.5390078708065946
1.619134413847419,-3.819693009349556,4.330885549197562,-1.6248020017291598
1.5809374837539236,-3.9537682112726125,4.3146375291802705,-1.716526902726474
1.5413998016411976,-4.0905347509603605,4.297472260153006,-1.813732862527824
1.500494454131594,-4.229613671279067,4.279334931527727,-1.9158401081433976
1.4581983174188033,-4.37054462074278,4.2601765304462935,-2.0221274578826254
1.4144928712113756,-4.512781057691309,4.239955255867467,-2.1317226446798694
1.3693650606344625,-4.655686823501844,4.218638029420668,-2.243594919713689
1.3228081923994441,-4.798534347619846,4.196202080223531,-2.356550534175634
1.2748228489232456,-4.940504697456951,4.172636574881775,-2.46923165021826
1.225417801948676,-5.080689622664197,4.147944258379592,-2.580119154283399
1.1746109057220342,-5.21809567483157,4.122143066836759,-2.6875397466619018
1.1224299489737184,-5.351650422334176,4.0952676693701395,-2.789677575086556
1.0689134447503765,-5.480210739614794,4.067370893619274,-2.8845905857794447
1.0141113373542285,-5.602573143946656,4.0385249877614795,-2.9702317014066337
0.958085605914762,-5.717486190663984,4.0088226707474135,-3.0444749166476885
0.9009107440081221,-5.823665023675657,3.9783779215809365,-3.105146434513675
0.8426740937713655,-5.919808306276864,3.9473264572358,-3.15006104237131
0.7834760107085968,-6.00461791071037,3.9158258468120866,-3.177064020348066
0.7234298316014931,-6.076821893227973,3.884055206608606,-3.184078940837711
0.6626616126692134,-6.135201380500893,3.8522144172002286,-3.1691616908594282
0.6013095988642044,-6.178621986731728,3.8205228002916343,-3.1305608480592175
0.5395233789968872,-6.206070204274059,3.789217191811042,-3.066784079159929
0.47746267695414657,-6.2166948002675655,3.7585493510194428,-2.9766694307076875
0.41529572895147093,-6.209852559995283,3.728782656712366,-2.8594592073136544
0.3531972033515181,-6.185156735114216,3.7001880646392293,-2.714872615649028
0.29134563600037594,-6.142525339053798,3.673039338482739,-2.5431716372925077
0.22992038260983796,-6.082225134092361,3.6476076221098137,-2.3452129648834887
0.16909813126891435,-6.0049060333922455,3.6241554924609787,-2.12247772023128
0.10904907093499189,-5.911620043428006,3.602930715258666,-1.8770705853704146
0.04993287050071182,-5.803819166211987,3.5841600094049615,-1.6116813991264118
-0.008105321161408052,-5.683328139975725,3.5680431954136975,-1.3295054644594786
-0.06493860256116529,-5.552290559056763,3.5547481407691026,-1.034123622103368
-0.12046150815173293,-5.413090471264566,3.544406904548069,-0.7293488878121337
-0.1745924128643786,-5.268255344463582,3.5371134156699475,-0.41905196523394395
-0.22727496630901442,-5.120349451737241,3.5329228960176082,-0.10698188285949495
-0.27847846082638683,-4.9718684276935665,3.5318530771890133,0.2034007463612107
-0.3281971451033225,-4.825145524391255,3.5338870846526254,0.509062226175351
-0.37644860034723504,-4.6822780015209435,3.538977706914379,0.8074950203222278
-0.4232713803624445,-4.545078691704808,3.5470526571176015,1.096772885822217
-0.46872216727949256,-4.41505395589272,3.5580203859758237,1.375563309105207
-0.5128727068384198,-4.293405846401739,3.571776019066876,1.6431037209030053
-0.5558067653024372,-4.181053922818897,3.588207056275906,1.899151056456494
-0.5976173045306262,-4.078671037589764,3.607198566840471,2.1439152123538436
-0.6384040149065239,-3.9867274031114515,3.6286377189640096,2.3779862064330186
-0.6782712889376384,-3.905538043515046,3.65241758102834,2.6022630092675527
-0.7173266693727889,-3.8353099381244538,3.6784402111210155,2.8178897372297813
-0.7556797687540334,-3.7761864491619503,3.7066191084933133,3.0262026851383834
-0.7934416332456529,-3.7282877674942023,3.736881135344697,3.228689832174387
-0.8307245109205948,-3.691746986538384,3.769168033666441,3.426963087022483
-0.8676419807859787,-3.666741982301959,3.8034376645366654,3.622742612515071
-0.9043094006089982,-3.6535235303002094,3.839665090661816,3.8178519583140753
-0.9408446359120003,-3.652440016640226,3.8778436102449567,4.014222240680939
-0.9773690360784025,-3.663958642630375,3.917985832651766,4.213902984498428
-1.0140086225047062,-3.6886820229229156,3.9601248624967504,4.419076120997573
-1.0508954427339354,-3.727357204478654,4.004315623706726,4.632067448659514
-1.088169014778722,-3.780870755792256,4.0506362981933215,4.85534566887515
-1.1259777223366445,-3.850217558128046,4.099189754882073,5.09149128477107
-1.164479897917925,-3.9364203372004245,4.150104667729784,5.343103480475424
-1.2038441012899292,-4.0403587542116535,4.203535702534539,5.612588290480242
-1.2442476888320457,-4.162436996743791,4.259661585439341,5.90173020244552
-1.2858720587994836,-4.301974528426601,4.318678887463796,6.210887726932584
-1.3288918040837496,-4.456153927281062,4.380787764733122,6.537581934492899
-1.3734533433565603,-4.618349468047392,4.446163584078051,6.874229841985039
-1.4196368380370343,-4.775838896845075,4.514905882497901,7.205017542422326
-1.467395227005485,-4.9075874306706355,4.586956057922125,7.5028543603026066
-1.5164711013121914,-4.984288113069429,4.661984601525151,7.72941923784343
-1.5663139824428858,-4.97430911167143,4.739278793903585,7.8433410229880085
-1.6160570735596,-4.856983892789471,4.817712204133465,7.818465844705045
-1.6646269124874948,-4.635825082704005,4.895896862580515,7.661877593067069
-1.710985163314535,-4.338337399485039,4.972515638511186,7.413270858279477
-1.7543685373093854,-4.000990307812582,5.0466483470939805,7.123950316116038
-1.7943784403875112,-3.6537415056334477,5.117887850255141,6.835564991653128
-1.8309158554438456,-3.314456117561302,5.186243500171672,6.572731602446876
-1.8640604166194585,-2.9909411678459996,5.251970816196141,6.346133279887957
-1.8939698282979185,-2.684902367802893,5.31543214899502,6.158130282388306
-1.9208188519759475,-2.395015711571018,5.377013451818903,6.007039464237127
-1.9447690090916576,-2.1187283517630973,5.437083846461274,5.889606084175683
-1.9659562926092886,-1.8531690347205432,5.495979907303031,5.802227716388097
-1.984487982956494,-1.5955591415387835,5.554002184466912,5.741485071955235
-2.000443574371882,-1.3433732467357047,5.611417035186464,5.704327862789687
-2.013877306839239,-1.0943838199586966,5.668460313814361,5.6881018111264
-2.0248211450388256,-0.8466574228319124,5.725341331925625,5.690508695422462
-2.0332877192671446,-0.5985344799478896,5.78224641887985,5.709542449359505
-2.0392730640666237,-0.34860718096286725,5.839341843373445,5.743420379363883
-2.0427591358762522,-0.09570161672668626,5.896776047167084,5.790517281979856
-2.043716152043519,0.16113375663554658,5.954681219986882,5.849305167985167
-2.0421048144771636,0.4226331242795399,6.013174271666734,5.918299213701545
-2.037878483234368,0.6893125073533066,6.072357263803749,5.996009892525134
-2.030985358160835,0.9614643593497887,6.132317362729,6.080901232432573
-2.021370714567337,1.2391491063118876,6.193126375053326,6.171355425903626
-2.008979223504218,1.5221854398243275,6.254839929312362,6.265644393491485
-1.9937573691059747,1.8101414003083043,6.317496373247277,6.361909254442937
-1.9756559551028916,2.1023284547982,6.381115465791706,6.458148900334991
-1.9546326705549095,2.3978008256924475,6.445696954795056,6.552218924853218
-1.930654662297985,2.6953621989434993,6.511219144043588,6.641841968835027
-1.90370104030855,2.9935815689870613,6.577637563731939,6.724630049327982
-1.8737652246186793,3.2908193239136634,6.644883864225219,6.798118647653036
-1.8408570313795427,3.5852637433894707,6.712865050701749,6.859811284583525
-1.805004393945648,3.874976941908634,6.781463163547585,6.907232131107028
-1.7662546245265616,4.157948078894808,6.850535484858655,6.937983079081405
-1.7246751437376135,4.432150570478572,6.91991531564947,6.949800859675695
-1.680353638032828,4.695599295193426,6.989413324246227,6.9406094786505
-1.6333976450808936,4.9464035803262965,7.058819419032732,6.908563603133273
-1.5839336092776306,5.182812197751719,7.127905055064065,6.852079630705611
-1.5321054873001134,5.403247673681344,7.196425851371121,6.7698528897177495
-1.4780730105633,5.6063287752370385,7.264124380268298,6.6608615020189825
-1.4220097228109296,5.790881816530804,7.330732995288488,6.524359526797639
-1.3641009046456216,5.955943112029729,7.395976590556464,6.359863713669621
-1.3045414735253242,6.1007561940870785,7.45957522769316,6.167139198055469
-1.2435339115844535,6.224768077526574,7.521246619673715,5.946189563394599
-1.1812862308091878,6.327628778445482,7.580708515307661,5.697255808583875
-1.118009943024733,6.409197472682349,7.6376810733935,5.4208269710481485
-1.0539179682979096,6.469557208293562,7.691889343103981,5.117662661213712
-0.989222396214974,6.509038145065231,7.743065969716119,4.788824857495275
-0.9241320147643217,6.528247131957976,7.790954218291072,4.435713376028707
-0.858849543444742,6.528099364089023,7.835311352051359,4.060096931378146
-0.7935685498038517,6.509846250666372,7.87591232136514,3.6641301626265053
-0.728470087297188,6.475092856993919,7.912553622991405,3.2503469152243563
-0.6637191587272488,6.4257986818372865,7.9450570921436485,2.8216217979467992
-0.5994611719088759,6.364257253805417,7.973273310123116,2.381095620388175
-0.5358185993708218,6.293052958277167,7.997084266326998,1.9320653529548213
-0.4728880697880501,6.2149971900089716,8.016404919856546,1.4778448522294196
-0.4107380978879604,6.133049639069012,8.03118336837884,1.021607543981979
-0.3494076014972703,6.050233433415698,8.04139944381866,0.5662253317355128
-0.2889052671631133,5.969554309670507,8.047061697136016,0.11411836719698149
-0.22920972406640827,5.893933677486231,8.048202880807986,-0.3328721649613275
-0.17027038729154595,5.8261635770384945,8.044874159158374,-0.7735808293708583
-0.11200875152116099,5.7688886991770465,8.037138350864666,-1.2075827226372389
-0.05431986452939053,5.72461761920963,8.025062523638294,-1.635230389143981
0.002926311662705773,5.695762881630028,8.008710219746854,-2.0576715228410483
0.059883940479006054,5.68470797122005,7.988133504518443,-2.4768588757795658
0.11673102019120654,5.693898528976085,7.963364915760648,-2.8955646500739856
0.1736700054809674,5.725954985280234,7.934409269259908,-3.3174105571415455
0.23092955533376974,5.783803080230207,7.901235163688493,-3.7469212299251335
0.2887675861360718,5.870815515492989,7.863765951389241,-4.1896009563963945
0.34747574129100167,5.990948085245669,7.821869941825277,-4.652016779959318
0.40738522214345835,6.148828066145406,7.775349774025684,-5.141832862231564
0.4688735028049124,6.349691555827523,7.723931445403368,-5.667654199074588
0.5323704183631877,6.5989269501237535,7.667254903412622,-6.238342494086524
0.5983596878644252,6.900678309211565,7.604871478471757,-6.861043499069833
0.6673664709565408,7.254361722960924,7.536261043481058,-7.536326346747407
0.73991008818615,7.647027295055264,7.4608977800135845,-8.247547864566675
0.8163803611367026,8.039278202856229,7.378422301367918,-8.941243029474693
0.8967731431652649,8.3479166611624,7.289009871073171,-9.502982973944246
0.9802523097768889,8.449534357492624,7.193980041333728,-9.762613108185892
1.0647476533518152,8.249350525248943,7.096353910251869,-9.590781986887274
1.1472411586043045,7.78273588355032,7.000446090382996,-9.040646244876175
1.2250685174398077,7.194592955059598,6.910039627934235,-8.317965377441697
1.2970144469904037,6.611950886748442,6.8268599741598175,-7.602482395408421
1.363133955857888,6.090653341375985,6.7508351502057335,-6.973872741719731
1.424040489271648,5.640257824295312,6.681096422788536,-6.446950298978988
1.4804430675146012,5.252921700568856,6.616626919798746,-6.0121405800582535
1.5329722845202898,4.917062238191163,6.556505513998164,-5.654581154631829
1.5821429069022015,4.621922937913672,6.499959702451846,-5.360512020547482
1.6283621362813383,4.3586166186521185,6.446354582246371,-5.118749055496485
1.6719483024678594,4.12005795266116,6.395167091691405,-4.920605898927095
1.713148881994471,3.9006314972733196,6.345961032702134,-4.759442071150038
1.752155196967204,3.695856643914894,6.298366611990634,-4.630200418704993
1.789113763406353,3.502114789390541,6.252064607803584,-4.529023818621287
1.8241349113002583,3.316443742070999,6.206774369617372,-4.452956870143856
1.8572993487209684,3.1363889962048876,6.162244800915933,-4.399716479353615
1.8886632386830173,2.9599000575306245,6.118247636122397,-4.367512759884422
1.9182622392583235,2.7852622290884006,6.074572508523553,-4.354904359262196
1.9461148615492074,2.611056916419994,6.031023464930931,-4.360675777435912
1.9722254307134073,2.4361456415923084,5.987416707156572,-4.383727341763269
1.9965868871293304,2.259674329260529,5.94357943373894,-4.422971178318603
2.0191836304219355,2.0810949807285244,5.899349721955754,-4.477229040101679
2.0399945802292208,1.9002015281148872,5.854577431554737,-4.5451305643259605
2.0589965955103695,1.7171753972400008,5.809126125911477,-4.6250137458016
2.0761683494827694,1.5326340965672172,5.762875988453461,-4.7148333050953175
2.0914946904484415,1.3476731618626496,5.715727655402508,-4.812087082964139
2.104971422067068,1.1638885427545977,5.667606784572866,-4.913775005990766
2.116610307494614,0.9833640464112727,5.618469034512959,-5.016408283619682
2.1264439479587267,0.8086083151485854,5.568304951676762,-5.116086402707104
2.1345300311102124,0.6424298070483975,5.517144087649691,-5.208654030892089
2.1409543291806963,0.48774764920298963,5.46505754734077,-5.289937721539368
2.145831805672726,0.34735066545135507,5.412158170125376,-5.356044095404708
2.1493053123272396,0.22363334033448767,5.358597729171329,-5.403681031227034
2.1515416457305845,0.11835044240833267,5.304560918859059,-5.430448416313451
2.152725150154668,0.03243533712955268,5.250256434695924,-5.435042739168238
2.1530495035259634,-0.034082859593306036,5.195906007304242,-5.417334131807262
2.15270867493003,-0.08204938539850398,5.141732665986169,-5.378302379557109
2.1518881810760453,-0.11305278604657229,5.087949642190598,-5.319850437832602
2.1507576532155794,-0.12922496389491647,5.034751137812272,-5.244538711636101
2.14946540357663,-0.13301391539106877,4.982305750695911,-5.155293194904903
2.148135264422719,-0.12696776241635765,4.930752818746862,-5.05513498338603
2.1468655867985555,-0.11355714195538073,4.880201468913002,-4.946963012059662
2.1457300153790015,-0.09504867416311041,4.830731838792405,-4.83340352635826
2.1447795286373705,-0.07342985646388622,4.782397803528823,-4.716724600652933
2.1440452300727317,-0.05037771165079338,4.735230557522293,-4.598804624666227
2.143541452956224,-0.02725999699172584,4.689242511275631,-4.4811399677146815
2.143268852986307,-0.00515762579343864,4.644431111598484,-4.364877396740597
2.1432172767283726,0.01510129498558372,4.600782337631078,-4.250859378177322
2.1433682896782282,0.03290295404164002,4.5582737438493055,-4.139673642892357
2.143697319218645,0.04780960504504927,4.516877007420382,-4.0317014321602
2.1441754152690953,0.05952440982846218,4.47655999309878,-3.927161265809608
2.14477065936738,0.06786071845662106,4.437288380440684,-3.8261468012324054
2.1454492665519465,0.07271619994719028,4.39902691242836,-3.728658469314914
2.1461764285514184,0.0740516665960616,4.361740327735211,-3.6346292238901072
2.146916945217379,0.0718741331651377,4.325394035496309,-3.5439450674243647
2.1476356865490303,0.06622352687724863,4.289954584822065,-3.456461134104621
2.148297921817803,0.057162445485979714,4.255389973481019,-3.372014107919782
2.1488695462726626,0.04476840039103552,4.221669832401822,-3.2904316856992826
2.149317230276573,0.02912804868074598,4.188765515544829,-3.2115396999951846
2.14960851076338,0.010332993277138398,4.156650118544877,-3.135167415711174
2.1497118406961517,-0.011523196459141322,4.125298444387766,-3.0611514190716473
2.14959660873156,-0.03634702542484279,4.094686930197049,-2.9893384332580175
2.1492331384773116,-0.06404639994257527,4.064793545864469,-2.9195873235448486
2.148592674477886,-0.0945314194681572,4.03559767262902,-2.8517704957887893
2.1476473602832042,-0.1277147725497606,4.007079967671133,-2.7857748444404233
2.1463702125577067,-0.1635118460190107,3.9792222192267284,-2.7215023682819934
2.1447350940975167,-0.2018406320519285,3.9520071955439082,-2.6588705422269467
2.1427166877769976,-0.24262149861303947,3.925418490121639,-2.597812510263943
2.140290472790867,-0.2857768738464973,3.8994403650189993,-2.5382771466984
