th1 (rad),w1 (rad/s),th2 (rad),w2 (rad/s)
5.063184186169648,1.6648288824862463,3.873526306796634,0.1561286034875039
5.079832474994511,1.745352154672762,3.875087592831509,0.21739773298060885
5.097285996541238,1.8248501723549857,3.877261570161315,0.28299529095274284
5.115534498264788,1.9032609637840996,3.8800915230708424,0.353090733063296
5.134567107902629,1.980515085740392,3.8836224304014753,0.42784381537283195
5.1543722587600325,2.056533906801417,3.8879008685552034,0.5074035352221758
5.1749375978280465,2.1312277845856595,3.892974903907425,0.591906913068476
5.196249875673903,2.204494151344604,3.89889397303811,0.6814776034994686
5.218294817187349,2.276215525985231,3.9057087490731046,0.7762243283741074
5.241056972447201,2.3462574748925853,3.913470992356846,0.876239131159753
5.2645195471961275,2.414466548839771,3.9222333836684435,0.9815954591441008
5.288664212684525,2.480668228837246,3.9320493382598847,1.0923460893587869
5.313470894972897,2.544664919952516,3.9429727991534724,1.208520924787653
5.338917544172422,2.6062340388296965,3.955058008401349,1.3301246997186447
5.364979884560719,2.6651262476819784,3.9683592553985356,1.4571346468350637
5.391631147037539,2.7210638946521324,3.982930601866886,1.5894981936385142
5.4188417859840605,2.773739727265091,3.998825583803271,1.7271307717498616
5.446579183256712,2.82281595174616,4.016096891520769,1.8699138391134806
5.474807342774174,2.867923715643928,4.034796029911904,2.0176932315578684
5.503486579930613,2.9086630937585896,4.054972962227483,2.17027797581579
5.5325732108681995,2.9446036570118483,4.076675741985641,2.327439710106438
5.562019247438318,2.975285699704327,4.0999501390867055,2.4889128697289467
5.591772104435361,3.000222191653266,4.124839267783995,2.654395802715976
5.621774326351894,3.0189015070690246,4.151383225811155,2.8235529833151913
5.651963341422585,3.030790960888506,4.179618755644307,2.996018487812711
5.6822712510314695,3.0353411549983074,4.209578940522434,3.1714008870351176
5.712624662581453,3.031991101006615,4.241292949392785,3.3492896920794304
5.742944573591519,3.020174043034772,4.27478584631358,3.5292634641439244
5.773146314021867,2.999323854016287,4.310078480955019,3.7108996660440265
5.80313955256203,2.968881823500774,4.347187477615459,3.8937862930758445
5.832828370797038,2.9283035960250055,4.386125340546218,4.077535276133413
5.862111406757288,2.877065959644155,4.426900693307552,4.261797603067256
5.890882066353729,2.814673128007552,4.469518669338224,4.446280058686621
5.919028797633804,2.7406621110886786,4.51398146992509,4.63076344364936
5.9464354187446915,2.6546067348810807,4.560289104361583,4.815122101961764
5.972981486093502,2.556119855522825,4.608440325381201,4.999344569387488
5.99854268464873,2.444853326110088,4.658433771075076,5.183555152021954
6.022991217909831,2.3204953246581956,4.710269322595296,5.368036252420095
6.046196171156413,2.1827647529532506,4.7639496851194965,5.5532512685547015
6.068023818685945,2.0314025898453107,4.819482197805043,5.7398678727805
6.088337844584398,1.8661603652939858,4.876880876532848,5.928781383461218
6.106999448237338,1.6867863778471535,4.93616869036746,6.121137677981304
6.123867312015809,1.4930110247185013,4.997380067147273,6.318354495416873
6.138797422262995,1.2845338600633107,5.060563612101442,6.522138743208924
6.151642760863628,1.0610171182481978,5.125784999533531,6.7344950298380954
6.16225293204611,0.8220940950809268,5.193129949831912,6.9577161735168955
6.1704738729969195,0.5674071081106721,5.262707111567081,7.194338293627233
6.176147944078026,0.2967006385245077,5.334650494503353,7.447028618033142
6.179114950463271,0.01001356639398826,5.4091207806836845,7.718349200970717
6.179215086127211,-0.2919562190134565,5.486304272693392,8.01029892144204
6.1762955239370765,-0.6071990548420976,5.566407261907813,8.323475664799352
6.170223533388656,-0.9312896730538054,5.649642018555806,8.6556303916846
6.160910636658118,-1.2556627260412954,5.736198322472652,8.999363999840929
6.148354009397705,-1.5652705186809648,5.826191962471062,9.33893367457111
6.1327013042108955,-1.8362732797431718,5.919581299216773,9.646994247138206
6.114338571413464,-2.0358380309540243,6.016051241688155,9.884029115649886
6.093980191103924,-2.1276746027684785,6.114891532844654,10.00535843992585
6.07270344507624,-2.085362608908975,6.2149451172439125,9.978524156040105
6.05184981898715,-1.9073475841202947,6.314730358804313,9.80282442945986
6.032776343145947,-1.619984294247262,6.412758603098912,9.512788718879708
6.016576500203475,-1.2639529250396697,6.507886490287709,9.159756138076478
6.003936970953078,-0.8767652944240556,6.599484051668474,8.788993822663528
5.995169318008838,-0.48415826714465077,6.68737398989511,8.429182128072885
5.990327735337392,-0.10047865977837112,6.771665811175839,8.093773084662555
5.989322948739608,0.2675978243772903,6.8526035420224645,7.786388144422563
5.991998926983381,0.6176459682964623,6.93046742346669,7.505494984666308
5.998175386666346,0.9492788628847122,7.005522373313354,7.24731866196691
6.007668175295193,1.262930005630836,7.077995559933023,7.007385834636872
6.0202974753515015,1.5592481248413383,7.148069418279392,6.781262034922402
6.035889956599915,1.838826710729539,7.215882038628616,6.564868645901419
6.05427822370721,2.1021053134353056,7.281530725087631,6.35459744906631
6.075299276841563,2.3493552353255667,7.345076699578294,6.14733442572362
6.098792829194819,2.5807045778036874,7.40655004383553,5.940446697018714
6.124599874972856,2.7961797608126697,7.465954510805717,5.7317570339439134
6.152561672580982,2.99575186324512,7.523272081145156,5.51951593077433
6.182519191213434,3.1793817445472694,7.578467240452899,5.302374419750926
6.214313008658906,3.3470607194261004,7.631490984650409,5.07935779117417
6.247783615853168,3.4988450109574862,7.682284562562151,4.849839252447759
6.282772065962742,3.634883023984307,7.730782955086628,4.613512353295178
6.319120896202586,3.755435010831375,7.7769180786195795,4.370361237205684
6.3566752463109,3.8608851053693583,7.820621690991636,4.120628197877685
6.395284097364593,3.951746043263898,7.8618279729704135,3.864778485514143
6.434801557797232,4.0286571825970325,7.900475757825555,3.6034627419560414
6.475088129623202,4.092376685933361,7.936510385245116,3.3374777997233647
6.516011896482536,4.143768911876171,7.96988516324235,3.0677268331419083
6.557449585601297,4.18378818189819,8.00056243157377,2.795179990198965
6.599287467420279,4.2134601321216545,8.028514231475759,2.5208366638006274
6.6414220687414955,4.2338618310157115,8.053722598113765,2.2456904923140057
6.683760687051652,4.246101749497667,8.076179503036906,1.9706980304559552
6.726221704546629,4.251300520899521,8.095886483341467,1.6967518264597858
6.768734709755624,4.25057323869953,8.112854001606065,1.4246584064139138
6.81124044214262,4.245013824756204,8.127100585670204,1.1551214286093987
6.853690580390182,4.235681774014719,8.138651799956298,0.8887300550938342
6.89604739813033,4.223591354602076,8.147539100507236,0.6259524169399795
6.938283311676351,4.209703122053277,8.153798624676636,0.36713394288193407
6.980380342896884,4.194917394998792,8.157469964105456,0.11250029328948474
7.022329516846871,4.180069132855511,8.15859496703835,-0.13783529430037816
7.064130208175426,4.165923443424635,8.157216614095347,-0.38386027390866007
7.105789442609672,4.153170713206253,8.15337801135626,-0.6256464156191128
7.147321149741734,4.14242007403552,8.147121547200069,-0.8633281123165266
7.1887453504820895,4.134189572493735,8.138488266076903,-1.0970741344138946
7.2300872462070265,4.128890974166181,8.127517524732765,-1.3270508839118955
7.271376155948689,4.126806613183644,8.114247015893646,-1.553374348541712
7.312644222080525,4.128055137969479,8.09871327240823,-1.7760470541232722
7.35392477346022,4.132542563075679,8.080952801866996,-1.9948755892686392
7.395250199090977,4.139895078587975,8.06100404597431,-2.2093642488458465
7.436649149876857,4.149371319644186,8.03891040348585,-2.41858203175492
7.478142863073298,4.1597555327815465,8.0147245831683,-2.6210054136426026
7.519740418401113,4.169241189237278,7.988514529031875,-2.814350635020633
7.561432830293486,4.175329180292463,7.960371022681668,-2.995429592280144
7.603186122096411,4.174786361752577,7.9304167267588666,-3.1600935259644265
7.644933985713937,4.163734040939728,7.8988157914992225,-3.3033616488564945
7.686571326123334,4.137946194994204,7.865782175010658,-3.419845326174197
7.727950788073277,4.093405448338152,7.831583721748916,-3.504532656881902
7.768884842556658,4.0270655072304935,7.796538395180097,-3.5538576906502986
7.809155497628963,3.9376186114696416,7.760999818273594,-3.566767427503024
7.84853168374366,3.8259589466372135,7.725332143998563,-3.545350299393604
7.886791273210032,3.695093202374724,7.689878641004627,-3.4946782659350224
7.923742205233779,3.549496898965898,7.654931858345277,-3.421866494865427
7.959237174223438,3.3941865967443974,7.620713193396623,-3.3347379254737515
7.993179040190882,3.233868595991711,7.587365814141885,-3.2406053704835465
8.025517726150799,3.072399390120511,7.5549597604370495,-3.1455036278728894
8.056241720052004,2.91259305017615,7.523504724158321,-3.0539192478715824
8.085367650553765,2.7562786579540086,7.492965531679605,-2.9688783019848777
8.112930437133306,2.6044814004130004,7.463276748659756,-2.8922111162000568
8.138975251137436,2.457632234970526,7.434354637497756,-2.8248578598304763
8.163551573487142,2.3157550786918413,7.406106058899451,-2.7671418160498984
8.18670912427406,2.1786134056502036,7.378434640738952,-2.718984220604001
8.208495258330561,2.04581611390881,7.351244798532912,-2.6800602943900134
8.228953419469649,1.9168897486876464,7.324444195589012,-2.64990649219343
8.248122316956525,1.791325586341819,7.297945130667078,-2.6279910818258045
8.266035572819943,1.6686090533623332,7.2716652198488205,-2.6137587417408104
8.282721663353566,1.5482372490238223,7.245527632431412,-2.606657454201345
8.298204035843805,1.4297287213907577,7.219461057889399,-2.606153668430459
8.312501323057711,1.312628355998701,7.1933995212050945,-2.611739864930131
8.325627606617699,1.1965092917738314,7.167282122555793,-2.6229372972503477
8.337592699535437,1.080973119877878,7.14105274958329,-2.6392957386787868
8.348402430734215,0.9656491754006693,7.114659792196502,-2.660391416616962
8.35805892248822,0.8501934362688293,7.088055878030332,-2.6858238881212566
8.366560856850908,0.7342873505465797,7.061197639149119,-2.715212328525501
8.373903730356375,0.617636788334745,7.034045515863864,-2.748191522839866
8.380080098239722,0.49997123423768963,7.006563600635466,-2.784407733423721
8.385079810582099,0.3810432850450814,6.978719523301229,-2.823514544838606
8.388890243432549,0.2606284843446241,6.950484377852843,-2.8651687429334864
8.391496528275995,0.13852550429472088,6.921832690423508,-2.9090262603313857
8.392881783318943,0.01455667017035854,6.892742427820194,-2.954738208196444
8.393027350020647,-0.11143118744952969,6.863195045738229,-3.0019470103081254
8.391913038146152,-0.23956557681954566,6.833175575635148,-3.0502826573376414
8.389517382377957,-0.36994691764338616,6.802672749061772,-3.0993591050077747
8.385817913201523,-0.5026468826430922,6.771679158011694,-3.1487708482816124
8.380791444375092,-0.6377065574538303,6.740191449528878,-3.1980897139564193
8.374414378800553,-0.7751344778608299,6.708210552389314,-3.246861925293366
8.366663034021945,-0.9149046137468887,6.67574193313638,-3.2946055039129063
8.357513987884476,-1.0569543799480432,6.642795878097251,-3.340808085446102
8.346944444084995,-1.2011827651235867,6.60938779724279,-3.3849252356291886
8.33493261643376,-1.347448680187618,6.575538544886498,-3.4263793618830096
8.321458129631884,-1.495569637152204,6.541274751267667,-3.464559321107256
8.306502433260361,-1.6453208766390133,6.506629158056595,-3.4988208266042533
8.290049224493972,-1.7964350670300118,6.471640949790552,-3.528487754923988
8.27208487382367,-1.9486026994734273,6.436356072241312,-3.552854446277931
8.252598846828937,-2.1014733000542063,6.4008275277785325,-3.5711890794437897
8.231584113828395,-2.2546575728541502,6.365115636984094,-3.5827381834229493
8.209037538099853,-2.4077305750611724,6.329288255149865,-3.58673232340438
8.18496023234924,-2.5602360076929567,6.293420931915821,-3.5823929679640503
8.159357872272311,-2.7116916830949935,6.257597002236181,-3.56894050822611
8.132240955441361,-2.8615962036048677,6.22190759715392,-3.5456033584039193
8.103624993405312,-3.0094368552540294,6.1864515635698805,-3.5116280212324393
8.073530624852772,-3.1546986867842457,6.151335283357556,-3.466289951741195
8.041983637984929,-3.2968747082465377,6.116672383840144,-3.4089049989170683
8.009014890902463,-3.4354771056112527,6.082583333850973,-3.3388411472872757
7.974660119846351,-3.570049328690346,6.0491949223781,-3.2555302195838927
7.9389596265594475,-3.7001788698954665,6.016639620182261,-3.15847913804735
7.901957837860492,-3.8255105119310935,5.985054828801787,-3.0472802769717617
7.8637027327411815,-3.9457597851895567,5.954582026032069,-2.9216203754225125
7.824245134889286,-4.060726343257152,5.925365822277844,-2.781287420950891
7.7836378714567145,-4.170306941918348,5.897552948068335,-2.6261748686766055
7.741934802037531,-4.274507699314114,5.871291199381569,-2.4562825328882987
7.69918972504439,-4.373455329784113,5.846728374052686,-2.2717134884897927
7.655455171746549,-4.467407089386339,5.824011239167788,-2.072666354372132
7.6107811008526856,-4.556759254671764,5.803284575624067,-1.859422404200878
7.565213508305968,-4.642054083636688,5.784690351582058,-1.632327060867503
7.518792967469601,-4.723985381163617,5.768367080973383,-1.3917654703294104
7.471553113657965,-4.8034030084516885,5.754449426270089,-1.1381320018942525
7.423519083573448,-4.881316929605388,5.743068106251147,-0.8717936609251014
7.374705914277395,-4.958901666392442,5.734350169641895,-0.5930474979124083
7.32511689761347,-5.037502317271637,5.7284196946627715,-0.30207212799268063
7.274741874440754,-5.11864356697979,5.725398973382845,0.0011265784836586579
7.223555438770957,-5.204043336843575,5.725410239167681,0.31677570075977435
7.1715150054025205,-5.295632850696472,5.728577996175279,0.6454015743731103
7.118558676895556,-5.395584813255145,5.73503201191901,0.9879024032272412
7.064602828763005,-5.506350898560037,5.744911035951283,1.345626892362619
7.009539319777405,-5.630708356736024,5.758367304874909,1.72045692961755
6.953232236210044,-5.771812266144641,5.775571874171084,2.1148879830777907
6.895514113548598,-5.933242665042653,5.796720754001862,2.5320907967817523
6.836181686898171,-6.119020056858853,5.8220416619696795,2.97591586805679
6.774991486329583,-6.333529484117605,5.851800820650247,3.4507552468222524
6.711656191488407,-6.581224476665674,5.88630837311847,3.9610791326811428
6.64584394672175,-6.86584499945885,5.925919164445282,4.5102718808363385
6.577185496727162,-7.188631520114438,5.971021883253645,5.098038786857363
6.505299181526017,-7.544639485470399,6.0220022711222185,5.715128139742963
6.429852786671313,-7.916027619542668,6.0791535525196485,6.333801415652455
6.350692510475887,-8.262436498728084,6.142491566676173,6.894265290599655
6.2680681454886065,-8.514637082211358,6.21143421958217,7.2958716663927285
6.182921774666493,-8.58954982094418,6.284392936246097,7.418726984310025
6.0970262764570515,-8.441230889376609,6.358580206089197,7.196315239449578
6.0126139675632855,-8.10819556711413,6.430543358483693,6.682974013327003
5.931532011892144,-7.686920498647253,6.497373098616963,6.016738919612321
5.854662806905671,-7.262358551606468,6.557540487813086,5.320729648292766
5.782039221389606,-6.87809567501956,6.610747784296014,4.660060233358668
5.7132582646394106,-6.546855451297799,6.6573483866296,4.055979178571139
5.647789710126433,-6.266903148509961,6.697908178415312,3.5088132708938518
5.585120678641333,-6.031667298028978,6.732996311124251,3.0116075409870806
5.524804005661044,-5.833839014810743,6.763112386534122,2.5560475237711064
5.466465615512936,-5.666778371651667,6.788672861771833,2.1345739981621508
5.4097978317964195,-5.524840416370531,6.8100186017534545,1.7409445238596328
5.354549427632715,-5.403324075141227,6.8274280469920505,1.3702341591223923
5.300516186881302,-5.2983177171835285,6.841130388583275,1.018666507313501
5.247533009709467,-5.206539022344804,6.85131705365641,0.683417483346815
5.195467619486019,-5.1251991053861214,6.858151228489878,0.36243750318982443
5.144215628432158,-5.051896251316589,6.861775603521776,0.05430210861155271
5.093696665918992,-4.984536503394423,6.862318624607892,-0.24191097532167477
5.0438513008850485,-4.921276297430734,6.859899514854675,-0.5267234467980144
4.994638537910741,-4.860482357831683,6.854632280386695,-0.8003417158375565
4.946033714332424,-4.800704678577848,6.846628863228319,-1.0627298491219335
4.898026667546646,-4.740659093671795,6.836001564737099,-1.3136729639218623
4.850620076609928,-4.679216551481396,6.822864835097881,-1.5528328377791947
4.803827911095114,-4.615396730630398,6.807336506720088,-1.7797967175272802
4.75767394378881,-4.548364092970936,6.789538539544815,-1.9941197801904385
4.712190302859101,-4.477424884267205,6.769597341742911,-2.195361395627184
4.667416054016429,-4.402023977837027,6.74764372778664,-2.383115227124596
4.623395814238059,-4.321740811431634,6.723812575515394,-2.557033233804681
4.580178406123743,-4.236283985818315,6.698242243177347,-2.71684375683133
4.53781556626556,-4.145484364219917,6.6710738056090335,-2.8623640312423055
4.49636072262336,-4.0492867254950875,6.64245016529661,-2.993507625030061
4.4558678553684095,-3.94774017572351,6.61251508904631,-3.1102874359302284
4.416390453611174,-3.8409876137155754,6.581412214687008,-3.2128149560079073
4.377980577474019,-3.7292545827548085,6.549284065126929,-3.301296538711356
4.34068803164647,-3.612837834816793,6.516271099739815,-3.3760273769834783
4.304559653298303,-3.492093897995926,6.482510825969981,-3.437383835618015
4.269638714318344,-3.36742788628866,6.4481369876138,-3.4858146909724375
4.235964435455457,-3.2392827347727673,6.413278840704076,-3.521831731145483
4.203571608107729,-3.1081289911664363,6.378060523392621,-3.546000072254404
4.172490318196065,-2.9744552519584473,6.342600522670077,-3.558928460345225
4.14274576567648,-2.838759299822158,6.307011238066624,-3.561259758587019
4.1143581726782585,-2.7015399783872924,6.271398640480754,-3.5536617669717154
4.087342772894385,-2.563289828488777,6.2358620228110375,-3.5368184852238937
4.061709874609497,-2.4244885037670576,6.200493837958798,-3.5114219057398786
4.037464989571827,-2.2855969799131874,6.165379618901399,-3.478164408107174
4.014609019772696,-2.1470525683624073,6.130597974820327,-3.4377318161845567
3.9931384940890715,-2.009264740064247,6.096220656658482,-3.390797169605275
3.973045846688429,-1.872611757217818,6.062312684962429,-3.3380152516432555
3.954319729116251,-1.7374381005149955,6.028932532445997,-3.280017903459516
3.936945348111101,-1.6040526670907131,5.996132353411402,-3.2174101405829236
3.920904821440194,-1.4727277010594773,5.963958252005573,-3.1507670715691987
3.906177544429599,-1.3436984054060976,5.9324505812898805,-3.080631602079149
3.8927405603755383,-1.2171631722323635,5.901644265269089,-3.007512891268962
3.8805689286532146,-1.0932843588676602,5.871569136356399,-2.9318855125060748
3.869636085064538,-0.9721895307567868,5.842250281231339,-2.85418925793143
3.85991418975697,-0.8539730886367238,5.813708388652024,-2.774829516910027
3.8513744588706027,-0.7386981972875301,5.785960093482924,-2.694178152252808
3.8439874768977274,-0.6263989358147415,5.7590183119603955,-2.6125747952580176
3.83772348753958,-0.5170825945308566,5.732892564007815,-2.5303284808638513
3.832552661594271,-0.4107320504840141,5.707589279199177,-2.4477195471009927
3.828445341089431,-0.3073081619292719,5.683112083728167,-2.365001728051631
3.825372259470138,-0.2067521309705565,5.6594620664476505,-2.2824043760888464
3.8233047381604326,-0.10898779270169752,5.636638022686762,-2.200134756729428
3.822214860233416,-0.013923798014303795,5.614636675119468,-2.118380367480436
3.822075622253273,0.07854433451026203,5.593452871444663,-2.03731124016935
3.8228610655983752,0.1685323147774999,5.57307975904297,-1.9570821940826544
