th1 (rad),w1 (rad/s),th2 (rad),w2 (rad/s),a1 (rad/s^2),a2 (rad/s^2)
2.8760131311995356,2.704963546344643,1.5624095645557572,0.9499526430315208,-2.75117623067213,-2.023686219912584
2.9030627666629822,2.6774517840379217,1.5719090909860725,0.929715780832395,-2.4682694204655324,-2.2502508910483727
2.9298372845033613,2.6527690898332663,1.5812062487943963,0.9072132719219113,-2.1909395942512044,-2.4524841506874497
2.956364975401694,2.6308596938907542,1.5902783815136154,0.8826884304150368,-1.9188690623678804,-2.631163229935961
2.9826735723406013,2.6116710032670754,1.5991052658177658,0.8563767981156771,-1.651761835988077,-2.7869964419302
3.008790282373272,2.5951533849071944,1.6076690337989226,0.8285068336963751,-1.3893326960044425,-2.9206261471299007
3.0347418162223443,2.58126005794715,1.6159541021358863,0.7993005722250761,-1.1312976141841444,-3.0326309990540357
3.060554416801816,2.5699470818053087,1.6239471078581371,0.7689742622345358,-0.8773653571894685,-3.1235275218000735
3.086253887619869,2.561173428233414,1.6316368504804826,0.7377389870165351,-0.6272301214920996,-3.19377105467577
3.111865621902203,2.554901127018493,1.639014240350648,0.7058012764697774,-0.3805650632994868,-3.2437560859611967
3.137414633172388,2.5510954763854983,1.6460722531153458,0.6733637156101655,-0.13701660229538215,-3.2738159875107824
3.162925587936243,2.5497253103625446,1.6528058902714475,0.6406255557350576,0.10380060865543657,-3.2842221546806103
3.188422841039868,2.550763316449099,1.659212145828798,0.6077833341882515,0.34230814350164973,-3.27518255188683
3.213930474204359,2.5541863978841155,1.6652899791706806,0.5750315086693831,0.5789677770823308,-3.2468396628891796
3.2394723381832,2.559976075654939,1.6710402942573743,0.5425631120404913,0.8142850469703623,-3.199267846586532
3.2650720989397493,2.5681189261246424,1.6764659253777792,0.5105704335746261,1.0488124662556502,-3.1324701037064107
3.2907532882009956,2.5786070507871988,1.6815716297135255,0.479245732537562,1.2831524396591605,-3.046374267364643
3.3165393587088676,2.5914385751837905,1.6863640870389012,0.44878198986391554,1.5179599237823316,-2.9408286412954667
3.3424537444607054,2.6066181744216137,1.6908519069375403,0.41937370345096087,1.7539448592932156,-2.815597124008244
3.3685199262049217,2.624157623014546,1.6950456439720498,0.3912177322108784,1.9918743877292704,-2.6703538758229524
3.3947615024350672,2.644076366891839,1.6989578212941585,0.3645141934526489,2.232574847553665,-2.504677609526056
3.4212022661039856,2.6664021153673754,1.702602963228685,0.33946741735738833,2.4769335222207545,-2.3180456154073523
3.4478662872576593,2.6911714505895827,1.705997637402259,0.3162869612033148,2.725900086242921,-2.109827669145815
3.4747780017635552,2.718430451452012,1.7091605070142921,0.29518868451185665,2.9804876624248138,-1.8792800182215132
3.501962306278075,2.74823532807626,1.7121123938594107,0.2763958843296415,3.2417733632201515,-1.6255397014368533
3.5294446595588376,2.7806530617084615,1.714876352702707,0.260140487315273,3.5108981401152723,-1.347619529317814
3.557251190175922,2.8157620431096144,1.7174777575758597,0.24666429202209486,3.7890657054917045,-1.044404143587182
3.585408810607018,2.8536527001645315,1.7199444004960807,0.23622025058622304,4.077540219961106,-0.7146476848091855
3.6139453376086634,2.8944281023641425,1.722306603001943,0.22907377373813118,4.377642353157344,-0.3569737321076875
3.6428896186323048,2.938204525895716,1.7245973407393242,0.2255040364170543,4.690743226113424,0.0301216591241423
3.672271663891262,2.98511195815685,1.7268523811034948,0.2258052530082957,5.018255627869002,0.44826280355918197
3.7021227834728303,3.0352945144355403,1.7291104336335779,0.23028788104388753,5.361621768007151,0.8991818745811707
3.7324757286171857,3.088910732115612,1.7314133124440167,0.23927969978969924,5.722296682092426,1.384699538344397
3.763364835938342,3.146133698936536,1.7338061094419137,0.2531266951731432,6.101726252494327,1.9066969534692957
3.7948261729277073,3.2071509614614793,1.7363373763936452,0.2721936647078361,6.501318650248372,2.467077054716563
3.826897682542322,3.272164147963963,1.7390593130407235,0.2968644352550018,6.922407856589923,3.0677127341866877
3.8596193240219616,3.3413882265298622,1.7420279573932735,0.3275415625968687,7.366207804096674,3.710379252122362
3.89303320628726,3.415050304570829,1.7453033730192422,0.3646453551180923,7.833755613605852,4.39666799094287
3.9271837093329682,3.4933878607068873,1.748949826570423,0.408612035027521,8.325842430665615,5.127878567341744
3.962117587940037,3.5766462850135436,1.7530359469206982,0.45989082070093845,8.842930531745056,5.904886414824445
3.9978840507901725,3.665075590330994,1.7576348551277077,0.518939684849183,9.385055734484665,6.727983341518071
4.0345348066934825,3.7589261476758407,1.7628242519761994,0.5862195182643637,9.951714775892063,7.596689374870775
4.072124068170241,3.8584432954347614,1.768686447158843,0.6621864120130715,10.541738289435571,8.509535560263961
4.110708501124588,3.9638606783291173,1.7753083112789738,0.7472817676157111,11.153151381883996,9.46381942010546
4.150347107907879,4.075392192147957,1.782781128955131,0.8419199618167656,11.783025625669287,10.455337616182597
4.191101029829358,4.19322244840465,1.7912003285732987,0.9464733379785917,12.427328537276093,11.478104043309814
4.233033254313405,4.3174957337774105,1.8006650619530846,1.06125437841169,13.080779223095726,12.524066058344962
4.276208211651179,4.448303526008368,1.8112776057372015,1.1864950389951394,13.736721645124904,13.582836586356821
4.320691246911262,4.585670742459617,1.823142556127153,1.3223234048587076,14.387029551114004,14.64146498526405
4.366547954335858,4.7295410379707565,1.8363657901757402,1.468738054711348,15.022059033097024,15.684274060060098
4.413843364715565,4.879761628301726,1.8510531707228537,1.625580795311949,15.630665296271886,16.692793499480782
4.462640980998582,5.036068281264446,1.8673089786759731,1.7925087303067568,16.20029884792715,17.645820079453227
4.5130016638112265,5.198071269743717,1.8852340659790408,1.9689669311012892,16.717192342070003,18.51963106032149
4.564982376508664,5.3652431931644164,1.9049237352900537,2.154163241704504,17.16664240426661,19.288368421870107
4.618634808440308,5.536909617207082,1.9264653677070986,2.347046925923205,17.533381081215214,19.924597731390424
4.674003904612379,5.712243428019234,1.9499358369663307,2.5462929032371093,17.80201997482284,20.400027366811745
4.731126338892571,5.890263627767463,1.9753987659987018,2.7502931769052266,17.95753825930543,20.68635362210712
4.790028975170245,6.069839010360517,2.002901697767754,2.957156713126298,17.985775892607315,20.7561781955653
4.85072736527385,6.24969676928659,2.032473264899017,3.164718495081951,17.873887899799488,20.58393070855407
4.913224332966716,6.428435648284585,2.0641204498498364,3.370557802167492,17.610716736998892,20.146724093479342
4.977508689449562,6.604542815654574,2.0978260278715113,3.5720250431022853,17.187048531556666,19.425077609987348
5.043554117606107,6.77641330097014,2.1335462783025343,3.766275819202159,16.5957350301345,18.403461466662726
5.111318250615809,6.942370651271485,2.171209036494556,3.950310433868786,15.831684363361438,17.070646529491594
5.180741957128523,7.1006874949051,2.2107121408332437,4.121016899163702,14.891747018333156,15.419878021670616
5.251748832077574,7.249604965088431,2.251922309824881,4.275215679380408,13.774544983047063,13.448927626498094
5.3242448817284584,7.3873504149189015,2.294674466618685,4.409704955645389,12.480308554134321,11.16010793099973
5.398118385877647,7.512153500460244,2.338771516175139,4.521306034955386,11.010794458742348,8.56035152734114
5.47323992088225,7.622261445047668,2.3839845765246928,4.606909550228798,9.369359577580267,5.661460659264186
5.549462535332727,7.715955040823471,2.4300536720269807,4.663524156821439,7.561256291560683,2.4806198035583056
5.626622085740961,7.791567603739078,2.4766889135951953,4.6883303548570225,5.594197952523937,-0.9587684755330449
5.704537761778352,7.847509583264317,2.5235722171437653,4.678742670101692,3.4792150989289428,-4.625916078614891
5.783012857610995,7.882301734253606,2.570359643844782,4.632483509315543,1.2317826507022032,-8.481215416176633
5.861835874953531,7.894619560760629,2.6166844789379375,4.547671355153777,-1.126857141235794,-12.474699069156443
5.940782070561137,7.883350989348271,2.6621611924894752,4.4229243644622125,-3.5683227668229436,-16.544665968404416
6.019615580454619,7.847667761680041,2.7063904361340976,4.257477704778168,-6.055903068527636,-20.616864913732822
6.09809225807142,7.787108730994765,2.7489652131818794,4.051309055640839,-8.543861790753418,-24.604722966888392
6.175963345381367,7.701670113087231,2.7894783037382878,3.8052618259719555,-10.97760693357026,-28.411139192274877
6.252980046512239,7.5918940437515285,2.827530921998007,3.521150434049207,-13.295087518887987,-31.93227930183284
6.3288989869497545,7.458943168562649,2.862742426338499,3.2018276410308784,-15.429669032713788,-35.0635552266555
6.403488418635381,7.304646478235511,2.894760702748808,2.851192088764323,-17.3144988746401,-37.707542027632186
6.476534883417736,7.13150148948911,2.9232726236364512,2.4741166684880014,-18.88802131170806,-39.78302922648172
6.547849898312627,6.942621276372029,2.948013790321331,2.0762863762231842,-20.09991452636175,-41.23386868743376
6.617276111076348,6.741622131108412,2.968776654083563,1.6639476893488467,-20.91643097169314,-42.03597330600571
6.684692332387431,6.53245782139148,2.9854161309770513,1.2435879562887897,-21.32406656636888,-42.200929569126
6.750016910601346,6.319217155727792,2.997852010539939,0.8215786605975297,-21.33074262888362,-41.77527708965309
6.8132090821586235,6.105909729438955,3.0060677971459144,0.4038258897009988,-20.964213738575857,-40.83544696235115
6.874268179453013,5.896267592053197,3.0101060560429245,-0.00452857992251271,-20.268048268195926,-39.47933579808849
6.933230855373545,5.693587109371237,3.0100607702436992,-0.39932193790339765,-19.29604636768809,-37.81618303473779
6.990166726467257,5.500626645694356,3.0060675508646653,-0.7774837682507756,-18.106195337495873,-35.95660069670649
7.045172992924201,5.319564692319397,2.9982927131821575,-1.1370497752178403,-16.755174461847215,-34.0042808142915
7.098368639847394,5.152012947700925,2.986922215429979,-1.4770925833607553,-15.294097973689698,-32.05026797861586
7.149888769324404,4.999071967964028,2.9721512895963715,-1.7975952631469139,-13.765777688740334,-30.169993936357102
7.1998794890040445,4.861414191076625,2.9541753369649024,-2.099295202510485,-12.20343379347546,-28.422734710227683
7.248493630914811,4.73937985314187,2.9331823849397978,-2.3835225496127617,-10.630558989962672,-26.852859448939782
7.295887429446229,4.633074263242243,2.90934715944367,-2.6520511441021597,-9.061556640344143,-25.49217784474923
7.342218172078652,4.542458696838802,2.8828266480026485,-2.906972922549652,-7.502793971320253,-24.36278403352642
7.38764275904704,4.467430757125599,2.853756918777152,-3.150600762884916,-5.953790182841797,-23.479953791182155
7.432317066618296,4.407892855297181,2.8222509111483025,-3.3854003007967375,-4.408357785923818,-22.85481207760936
7.476395995171268,4.363809277437943,2.788396908140335,-3.613948421572831,-2.8556115446649906,-22.496609736610647
7.520034087945648,4.335253161991293,2.7522574239246067,-3.8389145189389375,-1.2808477396674696,-22.414511802349068
7.563386619565561,4.322444684594618,2.7138682787352173,-4.0630596369624286,0.33361374791496917,-22.618793653109538
7.606611066411507,4.325780822073768,2.6732376823655932,-4.289247573493524,2.0074180586251362,-23.121247614649015
7.649868874632245,4.345855002660019,2.630345206630658,-4.520460049640015,3.760610190034739,-23.934383155320763
7.693327424658846,4.383461104560366,2.585140606134258,-4.759803881193222,5.610823185302911,-25.0685809586825
7.73716203570445,4.4395693364133955,2.5375425673223257,-5.010489690780047,7.567980901174824,-26.525595756319134
7.781557729068584,4.515249145425144,2.487437670414525,-5.275745648343238,9.624335661222515,-28.28548002894712
7.826710220522835,4.611492502037369,2.4346802139310926,-5.55860044863271,11.736159173405797,-30.28188666362858
7.872825145543208,4.728854093771427,2.3790942094447654,-5.8614193152689955,13.791420833843855,-32.357900398478854
7.9201136864809225,4.8667683021098656,2.3204800162920756,-6.1849983192537845,15.556573540800123,-34.19276529545815
7.968781369502021,5.022334037517867,2.258630033099538,-6.526925972208366,16.600175744381595,-35.19612687373073
8.0190047098772,5.188335794961683,2.1933607733774543,-6.878887240945673,16.215518928980302,-34.400214933230515
8.070888067826816,5.350490984251485,2.1245719009679975,-7.222889390277978,13.43310360225351,-30.47586667831802
8.12439297766933,5.48482202027402,2.0523430070652178,-7.527648057061159,7.3232246054354215,-22.150698923493643
8.17924119787207,5.558054266328375,1.9770665264946061,-7.749155046296095,-2.2339680225181384,-9.275491441650557
8.234821740535354,5.535714586103193,1.8995749760316452,-7.8419099607126,-13.688723820830342,5.989748276014113
8.290178886396387,5.39882734789489,1.8211558764245193,-7.782012477952459,-24.09363698503398,19.56986870642463
8.344167159875335,5.157890978044549,1.7433357516449948,-7.586313790888212,-30.96838218072509,28.073856663977917
8.39574606965578,4.848207156237298,1.6674726137361127,-7.305575224248433,-33.83071117033241,30.900269232118767
8.444228141218154,4.509900044533974,1.5944168614936283,-6.996572531927246,-33.77429487463556,29.61652301455571
8.489327141663495,4.172157095787618,1.5244511361743558,-6.700407301781689,-32.19649045222531,26.179573697533385
8.53104871262137,3.850192191265365,1.4574470631565388,-6.438611564806354,-30.09793291112828,21.972879638017076
8.569550634534023,3.549212862154082,1.3930609475084752,-6.218882768426184,-28.021004579553292,17.733943896980218
8.605042763155565,3.269002816358549,1.3308721198242133,-6.041543329456382,-26.204973978643427,13.777385069887359
8.63773279131915,3.006953076572115,1.2704566865296494,-5.903769478757509,-24.72921971237193,10.196774713990221
8.66780232208487,2.7596608794483957,1.2114189917420743,-5.801801731617607,-23.59994072338494,6.985733631729993
8.695398930879355,2.5236614722145463,1.1534009744258982,-5.731944395300307,-22.79452592035593,4.09948547155988
8.7206355456015,2.295716213010987,1.096081530472895,-5.6909495405847075,-22.282123104922665,1.4832712989583747
8.74359270773161,2.0728949819617606,1.039172035067048,-5.6761168275951235,-22.0323014400671,-0.9156241528742854
8.764321657551227,1.8525719675610897,0.9824108667910967,-5.685273069123866,-22.018112110299253,-3.1434071080798573
8.782847377226837,1.6323908464580972,0.925558136099858,-5.716707140204665,-22.21662426921465,-5.238572567135966
8.799171285691418,1.4102246037659507,0.8683910646978114,-5.769092865876025,-22.608368190860926,-7.2319594843579225
8.813273531729077,1.1841409218573415,0.8107001360390511,-5.841412460719604,-23.176323376330895,-9.147156855955997
8.825114940947651,0.9523776880940326,0.752286011431855,-5.932884029279164,-23.904717726851455,-11.000868229130635
8.834638717828591,0.713330510825518,0.6929571711390634,-6.04289271157047,-24.777736155103746,-12.8030802636389
8.841772022936846,0.46555314927448055,0.6325282440233587,-6.1709235142068595,-25.778168181709354,-14.556993828465446
8.84642755442959,0.207771467457387,0.5708190088812901,-6.316493452491514,-26.886005768565195,-16.258736142158813
8.848505269104164,-0.06108859022826496,0.507654074356375,-6.479080813913102,-28.077013744644894,-17.89691491991526
8.847894383201881,-0.3418587276747139,0.442863266217244,-6.658049963112255,-29.32132721624211,-19.452117710175184
8.844475795925135,-0.635071999837135,0.3762827665861214,-6.852571140214007,-30.58217985534988,-20.8965092629691
8.838125075926763,-0.9408937983906338,0.30775705518398133,-7.0615362328436975,-31.814930614199888,-22.193737432187586
8.828716137942857,-1.2590431045326327,0.23714169285554437,-7.283473607165574,-32.96662706635116,-23.29941668846966
8.81612570689753,-1.5887093751961443,0.16430695678388862,-7.516467774050271,-33.97640649665936,-24.162501165110733
8.800238613145568,-1.928473440162738,0.08914227904338591,-7.758092785701378,-34.77706596197454,-24.72785871514415
8.78095387874394,-2.2762440997824833,0.011561351186372124,-8.005371372852819,-35.29809458685543,-24.940277264296817
8.758191437746115,-2.6292250456510375,-0.06849236254215607,-8.254774145495787,-35.4703164455178,-24.749938447199796
8.731899187289605,-2.9839282101062157,-0.15104010399711393,-8.502273529967786,-35.232013745823906,-24.11906359443184
8.702059905188543,-3.336248347564455,-0.23606283929679178,-8.743464165912105,-34.53599782657377,-23.029001642428966
8.6686974217129,-3.681608325830193,-0.32349748095591285,-8.973754182336394,-33.35664246574995,-21.48658510102658
8.631881338454598,-4.0151747504876925,-0.4132350227792768,-9.18862003334666,-31.695534067102415,-19.528296517901424
8.59172959094972,-4.332130091158716,-0.5051212231127434,-9.383902998525675,-29.58431072060023,-17.220856172727366
8.548408290038132,-4.627973198364718,-0.5989602530980002,-9.55611156025295,-27.083602889170876,-14.657384301869577
8.502128558054485,-4.898809227256427,-0.6945213687005296,-9.702685403271644,-24.277759556935475,-11.949254509182998
8.453140465781921,-5.141586822825782,-0.7915482227332461,-9.822177948363475,-21.266053419234233,-9.214867246371906
8.401724597553663,-5.354247357018124,-0.8897700022168809,-9.914326620827193,-18.151961777406726,-6.567426370791733
8.348182123983483,-5.535766974792192,-0.9889132684251528,-9.98000088453511,-15.032571185635629,-4.104049350410424
8.29282445423556,-5.686092686648548,-1.088713277270504,-10.021041378039214,-11.989988694136391,-1.8980844629763178
8.235963527369075,-5.805992573589912,-1.188923691050896,-10.040022222668977,-9.085961844147455,0.004445589626832009
8.177903601633176,-5.896852192031387,-1.2893239132775858,-10.039977766772708,-6.360013126355745,1.5844122668877312
8.118935079712863,-5.960452323294945,-1.3897236909453128,-10.02413364410383,-3.830612905195968,2.846096484995099
8.059330556479914,-5.998758452346904,-1.4899650273863512,-9.995672679253879,-1.4984568195334325,3.811937346773468
7.999342971956445,-6.013743020542239,-1.58992175417889,-9.957553305786144,0.6491866594349147,4.516739060588088
7.939205541751022,-6.00725115394789,-1.6894972872367513,-9.912385915180263,2.633931905830616,5.002243938468855
7.879133030211543,-5.980911834889584,-1.788621146388554,-9.862363475795574,4.482127806191291,5.312587748756574
7.819323911862647,-5.936090556827671,-1.8872447811465096,-9.809237598308009,6.221416007918622,5.490815646708257
7.75996300629437,-5.873876396748485,-1.9853371571295897,-9.754329441840927,7.87808898547782,5.576409288032109
7.7012242423268855,-5.7950955068937064,-2.082880451547999,-9.698565348960607,9.475207144843964,5.603660045959761
7.643273287257949,-5.700343435445267,-2.179866105037605,-9.64252874850101,11.03137244703925,5.6006925357031765
7.586269852903496,-5.590029710974874,-2.276291392522615,-9.586521823143977,12.560043840646243,5.5889632143055366
7.530369555793747,-5.464429272568411,-2.372156610754055,-9.530632191000922,14.069294356357387,5.583102079449286
7.475725263068063,-5.323736329004838,-2.467462932664064,-9.47480117020643,15.56193336681849,5.591011698503867
7.422487899778015,-5.168116995336653,-2.5622109443661283,-9.41889105322139,17.03593878793521,5.614175447633505
7.370806729824649,-4.9977576074573005,-2.6563998548983423,-9.362749298745054,18.485156858709033,5.648150586633204
7.320829153750076,-4.81290603887021,-2.750027347885793,-9.306267792878723,19.900229763284244,5.683230521321635
7.272700093361373,-4.613903741237368,-2.84309002581458,-9.249435487665506,21.26970504384247,5.70525606700297
7.2265610559489994,-4.4012066907989436,-2.935584380691235,-9.192382926995476,22.58126897017051,5.696541460396427
7.18254898904101,-4.175394001097239,-3.02750820996119,-9.135417512391513,23.823033516266797,5.636862251829096
7.140795049030038,-3.9371636659345706,-3.118862385085105,-9.079048889873222,24.984798319838628,5.504434428032667
