th1 (rad),w1 (rad/s),th2 (rad),w2 (rad/s)
0.04814398062355051,-1.427194428984103,3.746915730800983,1.3554916264431136
0.033872036333709485,-1.3980266813910152,3.760470647065414,1.4467834005662137
0.019891769519799332,-1.3687533530937328,3.774938481071076,1.538833466272744
0.006204235988862003,-1.3396768870845295,3.7903268157338035,1.6313946320133752
-0.007192532881983292,-1.3110927008430073,3.806640762053937,1.7242425466738147
-0.020303459890413364,-1.2832869665215043,3.8238831875206754,1.817178733572917
-0.03313632955562841,-1.2565348441199342,3.8420549748564046,1.9100329872907535
-0.045701677996827755,-1.2310991888800191,3.861155304729312,2.002665143671143
-0.05801266988562795,-1.2072297358754565,3.8811819561660235,2.0949662614770617
-0.07008496724438251,-1.1851627490470704,3.902131618780794,2.1868592776960005
-0.08193659473485322,-1.165121109482322,3.924000211557754,2.2782992166467797
-0.09358780582967643,-1.1473148089694525,3.946783203724222,2.369273045641521
-0.10506095391937095,-1.1319418098466862,3.9704759341806373,2.459799277310408
-0.11638037201783781,-1.119189230726944,3.9950739269537414,2.5499274214908
-0.12757226432510724,-1.1092348194245403,4.0205732011686495,2.6397373887630686
-0.13866461251935264,-1.102248678842302,4.04697057505628,2.7293389443642875
-0.14968709930777566,-1.0983952181513126,4.074263964499923,2.8188713064342386
-0.16067105148928879,-1.0978353097812654,4.102452677564266,2.908502977392638
-0.17164940458710143,-1.100728642061849,4.131537707338192,2.998431892638783
-0.18265669100771992,-1.1072362674132148,4.1615220262645805,3.088885967474197
-0.19372905368185206,-1.1175233564467077,4.1924108859393225,3.1801241217640044
-0.20490428724631915,-1.1317621789220276,4.224212127156963,3.272437862761719
-0.21622190903553942,-1.1501353429228272,4.25693650578458,3.366153509879357
-0.2277232624647677,-1.172839333469938,4.290598040883373,3.4616351508427563
-0.2394516557994671,-1.200088400454175,4.325214392391801,3.5592884260446245
-0.25145253980400883,-1.2321188521176274,4.360807276652247,3.6595652457129932
-0.2637737283251851,-1.2691938123446207,4.3974029291093775,3.762969550308426
-0.2764656664486313,-1.3116084942149753,4.435032624612462,3.8700642239327823
-0.2895817513907811,-1.3596960224812924,4.47373326685179,3.9814792556710814
-0.303178711615594,-1.413833793266235,4.5135480594085005,4.097921201068774
-0.31731704954825635,-1.4744502721798805,4.554527271419188,4.22018390173206
-0.3320615522700551,-1.5420319712237331,4.596729110436509,4.349160234488781
-0.34748187198229247,-1.6171300574259662,4.640220712781397,4.485854312288745
-0.3636531725565521,-1.700365542223845,4.685079255904284,4.631392926111391
-0.3806568279787906,-1.7924311276801563,4.731393185165398,4.7870338935591885
-0.39858113925559213,-1.8940862867993173,4.77926352410099,4.954167013754038
-0.4175220021235853,-2.0061396035453196,4.828805194238531,5.134299930040546
-0.4375833981590385,-2.1294081024665257,4.880148193538936,5.329015409122784
-0.45887747918370375,-2.264636195142884,4.9334383476301635,5.539876862255759
-0.4815238411351326,-2.412345494182362,4.988837116252721,5.7682432671996215
-0.5056472960769562,-2.572569580113275,5.046519548924717,6.014930759586414
-0.531372991878089,-2.7444049347752,5.106668856520582,6.279625879807811
-0.558817041225841,-2.925287512095206,5.169465115318659,6.55992374762668
-0.5880699163467931,-3.109910322481886,5.235064352794926,6.849869266487702
-0.619169019571612,-3.288801680368329,5.3035630454598035,7.138018012652969
-0.6520570363752952,-3.446922430592577,5.374943225586334,7.405494196242763
-0.686526260681221,-3.563341267042975,5.448998167548761,7.625485258463699
-0.7221596733516508,-3.6138442158971356,5.525253020133398,7.766713233202219
-0.7582981155106221,-3.5778990111938658,5.602920152465421,7.802829165348267
-0.7940771056225607,-3.447946146354275,5.680948444118903,7.724934523448224
-0.8285565670861035,-3.2343863831944297,5.758197789353385,7.548141283626227
-0.8609004309180478,-2.9610824594622183,5.833679202189647,7.305180194728557
-0.89051125551267,-2.6548849593980317,5.906731004136933,7.032051388996912
-0.9170601051066503,-2.337334917292771,5.977051518026903,6.7569117795418405
-0.9404334542795779,-2.022102092028323,6.044620635822321,6.496895920177585
-0.9606544751998611,-1.7162622667156249,6.109589595024097,6.260103737453301
-0.9778170978670174,-1.4226003180009577,6.17219063239863,6.048862768807214
-0.992043101047027,-1.1415207289592493,6.2326792600867025,5.862361719187692
-1.0034583083366195,-0.8722825436981593,6.2913028772785795,5.698315288108086
-1.012181133773601,-0.6137017023940728,6.34828603015966,5.553886313374651
-1.0183181507975418,-0.36451804296394474,6.4038248932934065,5.426149812777206
-1.0219633312271812,-0.12357230515569573,6.458086391421179,5.312303291651095
-1.0231990542787381,0.1101181921162295,6.5112094243376895,5.20974598674507
-1.0220978723575758,0.33733558688820464,6.56330688420514,5.116094724757012
-1.0187245164886938,0.5586627794319898,6.6144678314527106,5.029171968116304
-1.0131378886943738,0.7744964005177185,6.664759551133874,4.946984070898784
-1.0053929246891966,0.9850646953619394,6.714229391842862,4.867698503408879
-0.9955422777355772,1.1904471492331772,6.76290637687695,4.789624016297121
-0.9836378062432455,1.3905944921152027,6.810802617039921,4.711195279850634
-0.9697318613220934,1.5853485976008779,6.857914569838427,4.630962313277787
-0.9538783753460847,1.7744621778185226,6.904224192971205,4.547584415830952
-0.9361337535678994,1.9576183072089846,6.949700037129515,4.459828018619255
-0.9165575704958095,2.1344498095303757,6.994298317315707,4.366567737005768
-0.8952130724005057,2.304558483271957,7.037963994685764,4.266789841897644
-0.8721674875677862,2.4675340591437966,7.080631893104741,4.159597348281168
-0.8474921469763482,2.622972701666554,7.1222278665875525,4.044215925848865
-0.8212624199596826,2.770494798176966,7.162670025846041,3.919999864023542
-0.7935574719779129,2.9097617302693872,7.2018700244862766,3.7864373705075685
-0.764459854675219,3.040491298507604,7.239734398191352,3.6431545479859406
-0.734054941690143,3.162471472084925,7.276165943671212,3.4899174766438708
-0.7024302269692937,3.275572159844701,7.311065118437651,3.3266319287034722
-0.6696745053708467,3.3797547451252243,7.344331437724685,3.1533403524348564
-0.6358769579195944,3.475079190834408,7.375864841249034,2.9702158837512487
-0.6011261660112504,3.561708599188073,7.405567000086546,2.77755327000526
-0.5655090800193696,3.639911198797637,7.4333425327865985,2.5757567192471864
-0.5291099680313932,3.710059826451967,7.459100099979071,2.3653248149820754
-0.49200936976687354,3.7726290681575807,7.482753348128892,2.1468327568362446
-0.45428307908529775,3.828190319726294,7.504221675697254,1.9209122962436043
-0.4160011758880348,3.87740511700892,7.52343079865969,1.6882298272884344
-0.3772271247179456,3.921017164962491,7.540313096932574,1.4494631598454082
-0.3380169530683207,3.9598435581016114,7.554807728531029,1.2052775392385926
-0.2984185174873046,3.9947657276814907,7.566860503923414,0.9563014795009366
-0.25847086021048965,4.026720668931356,7.576423518718424,0.7031029446188743
-0.2182036535211761,4.056692991372945,7.583454548164613,0.4461663469066276
-0.17763672360744664,4.085708293919782,7.587916211633679,0.18587074255477948
-0.13677964066824883,4.114828290907526,7.589774919059227,-0.07753049284163016
-0.09563135775917356,4.145147999801992,7.5889996141308105,-0.3439283067272133
-0.054179877761153634,4.1777951340696085,7.585560331063538,-0.613374755421875
-0.012401926420457551,4.213931600829659,7.57942658350932,-0.8860976776525036
0.029737389587839037,4.254756634515941,7.570565606732795,-1.1625127247100002
0.07228495593299844,4.301510516692527,7.5589404794856945,-1.4432316088700174
0.11530006109992372,4.35547688194824,7.544508163396994,-1.7290642652108712
0.1588548299194061,4.417980020026785,7.527217520744886,-2.0210105161433027
0.20303463011967396,4.490370898735939,7.507007415583453,-2.320233149378932
0.24793833910703336,4.5739911044563915,7.4838050840896635,-2.6279980359555393
0.29367825015159726,4.6700963701586735,7.4575251037301085,-2.9455564238305194
0.340379213853184,4.779709225698922,7.428069539491803,-3.2739276168487015
0.3881763061101732,4.903351885773003,7.3953302633233164,-3.613514575185242
0.4372098249679032,5.04058586948423,7.359195117571464,-3.9634507123333798
0.48761568366274555,5.189261641268937,7.31956061044813,-4.320544053551201
0.5395083000754349,5.344389499525008,7.276355169912618,-4.677696702663769
0.592952195070685,5.496661306143725,7.22957820288598,-5.021844467434706
0.6479188081321222,5.631032093292465,7.179359758211633,-5.331994620294994
0.7042291290650469,5.726540611593488,7.126039812008683,-5.579019624861786
0.7614945351809818,5.759363313727847,7.070249615760065,-5.730003229974315
0.8190881683182603,5.710415925943935,7.012949583460322,-5.758964306433803
0.8761923275776996,5.5748295024012675,6.955359940395984,-5.660165661223317
0.9319406226017123,5.3660005425759,6.89875828378375,-5.453724090826449
0.9856006280274713,5.109582326785606,6.8442210428754855,-5.177036470194631
1.0366964512953274,4.832350733903994,6.792450678173539,-4.86901574263726
1.0850199586343674,4.5544506790206185,6.743760520747166,-4.559127806217154
1.1305644654245737,4.287723306095856,6.698169242684995,-4.265019114454867
1.1734416984855323,4.037543388293418,6.6555190515404465,-3.9951033539380694
1.2138171323684663,3.80530407063846,6.615568018001066,-3.7520693825157014
1.251870173074851,3.5903120597964104,6.578047324175909,-3.5355640076152195
1.287773293672815,3.3909479463462913,6.542691684099757,-3.3438412344926016
1.321682773136278,3.2052939583031903,6.509253271754831,-3.174660485608628
1.3537357127193097,3.031442657101233,6.477506666898745,-3.0257333749439965
1.384050139290322,2.8676322059967845,6.447249333149305,-2.8949238731108027
1.41272646135029,2.712293271489563,6.418300094418197,-2.780321824178573
1.4398493940651855,2.5640536168805537,6.390496876176411,-2.680255005105708
1.465489930233991,2.421724213594186,6.363694326125354,-2.5932736264317016
1.4897071723699329,2.284278739302065,6.337761589861037,-2.518124296989532
1.5125499597629535,2.150832109974129,6.312580346891141,-2.453721659436352
1.5340582808626948,2.020620532109738,6.288043130296778,-2.399121399804958
1.5542644861837922,1.8929839963439625,6.264051916298729,-2.3534960859592435
1.5731943261472319,1.7673513877787286,6.240516955439136,-2.3161142043941334
1.5908678400250191,1.6432280568878654,6.217355813395195,-2.2863222713677502
1.6073001205938977,1.5201855685894028,6.194492590681517,-2.2635296970979666
1.6225019762797916,1.3978533189155162,6.171857293710538,-2.247196028449888
1.6364805094689467,1.275911724311494,6.149385333426039,-2.236820208498335
1.6492396267120617,1.154086720914838,6.127017131341056,-2.231931531509963
1.66078049392121,1.0321453471916158,6.104697816025956,-2.2320820201301235
1.6711019473931263,0.9098922171865608,6.082376995824655,-2.2368399989679144
1.680200869564992,0.7871667211212323,6.060008595834976,-2.245784681586715
1.6880725367762042,0.6638408146543453,6.0375507490191085,-2.258501624885633
1.6947109449227475,0.5398172781198948,6.014965732770253,-2.274578935925344
1.7001091177039465,0.41502834314187137,5.9922199434109995,-2.293604141815601
1.7042594011353651,0.2894345969545613,5.969283901992844,-2.315161653891782
1.7071537471049107,0.1630240852931218,5.946132285453926,-2.3388307736082026
1.708783987957842,0.035811543559889275,5.922743977717844,-2.364184199848479
1.7091421033934409,-0.09216230626596403,5.899102135719359,-2.3907870061126424
1.7082204803307812,-0.2208314483044554,5.875194265658233,-2.418196061653487
1.7060121658477367,-0.35010530330771905,5.851012305041698,-2.445959873449634
1.7025111128146595,-0.4798695381119722,5.826552706307202,-2.473618826284559
1.6977124174335398,-0.6099869875396194,5.801816518044356,-2.5007057965600414
1.6916125475581436,-0.7402987143930789,5.776809460078756,-2.5267471122894842
1.6842095604142129,-0.8706252250351274,5.751541988955861,-2.551263827553659
1.6755033081638615,-1.0007678498816783,5.726029350680324,-2.5737732752013387
1.6654956296650447,-1.1305102902970636,5.700291617928311,-2.5937908574446342
1.654190526762074,-1.2596203263278727,5.6743537093538645,-2.6108320309647155
1.6415943234987953,-1.3878516739422848,5.6482453890442175,-2.6244144419128967
1.6277158067593724,-1.5149459764633428,5.622001244625088,-2.6340601673776516
1.612566346994739,-1.640634913144098,5.595660642951311,-2.639298023936111
1.596159997863298,-1.7646424086532129,5.56926766271195,-2.639665911022457
1.578513573776766,-1.886686930755999,5.542871003601726,-2.6347131669173205
1.559646704469206,-2.0064838695779383,5.516523871932553,-2.624002927719543
1.5395818657734266,-2.1237480001302607,5.490283842655358,-2.6071144938401134
1.518344385772124,-2.2381960395611835,5.464212697716957,-2.5836457231051706
1.495962425376512,-2.349549320877745,5.438376240485905,-2.5532154828713822
1.4724669321677346,-2.4575366144110586,5.412844085657191,-2.515466203778461
1.447891566023624,-2.5618971356359506,5.387689423619407,-2.4700665828838377
1.4222725946672645,-2.662383781584978,5.362988757790569,-2.4167144819588033
1.3956487568514147,-2.7587666365476338,5.338821612970981,-2.355140055910843
1.3680610904859383,-2.8508367797594714,5.315270212411872,-2.285109125323507
1.3395527226883435,-2.9384104124966,5.292419121158637,-2.206426775368193
1.3101686185633774,-3.021333299118226,5.270354853404955,-2.1189411211964497
1.2799552855721952,-3.0994854866390886,5.24916544219299,-2.0225471289123176
1.2489604307058042,-3.172786231798442,5.228939970903867,-1.917190324255302
1.2172325683878198,-3.2411990257964827,5.209768067661314,-1.802870162510894
1.1848205781298549,-3.3047365684091115,5.191739366036205,-1.6796427785156105
1.1517732124457638,-3.363465509487064,5.174942938251049,-1.5476227914938196
1.118138557350893,-3.4175107519037415,5.159466710336111,-1.4069838127518437
1.0839634498318556,-3.467059100932984,5.145396872208592,-1.257957301335194
1.0492928588225257,-3.512362055332952,5.13281729919524,-1.1008294384208703
1.014169238269196,-3.553737568275416,5.121809004811031,-0.9359357475663208
0.9786318625864419,-3.59157066282976,5.112449647335368,-0.763653273399776
0.9427161559581443,-3.6263128655401804,5.10481311460137,-0.5843902400811974
0.9064530273027425,-3.6584805185013303,5.098969212200558,-0.3985732327981322
0.8698682221177292,-3.6886521385284006,5.094983479872576,-0.20663206707199883
0.8329817007324452,-3.7174651031151313,5.092917159201856,-0.008982616057345072
0.7958070497012938,-3.7456120479734762,5.092827333041282,0.19399206043301193
0.758350929221559,-3.773837452108573,5.094767253645612,0.40196191338724835
0.7206125547004733,-3.8029349580130307,5.098786872779485,0.6146710837493241
0.682583205120343,-3.833746024450179,5.104933583616978,0.8319598046873129
0.6442457448758412,-3.867160538958697,5.113253181663851,1.0537869120184415
0.6055741394862542,-3.904120031396418,5.123791050784035,1.280253041364638
0.56653293917229,-3.945624134950859,5.1365935811976815,1.5116248212680288
0.5270766978227814,-3.9927409422513005,5.151709829410362,1.7483606209532483
0.48714928840026844,-4.0466219006444675,5.169193435619895,1.9911386531420334
0.44668306939382374,-4.108521867175629,5.189104822151315,2.240888423638207
0.40559785072206744,-4.179824855961049,5.211513706387698,2.4988265832534595
0.36379960216245694,-4.262075756349086,5.236501972220232,2.7664980241784374
0.32117884459896606,-4.357017663682797,5.264166952462016,3.045822271424775
0.2776086679621381,-4.466633004117536,5.294625175176264,3.3391432421922222
0.23294233792096275,-4.593183459938512,5.328016607598186,3.649276052555276
0.18701050332157762,-4.739237027490262,5.364509368123739,3.979535269057645
0.139618133046675,-4.907656825194079,5.404304720814315,4.333709909112689
0.09054156479473421,-5.1014986329361625,5.447641819905441,4.715911993833046
0.03952657846537259,-5.3237098320118275,5.494800939843771,5.130149725554839
-0.013710519854745688,-5.576420317267938,5.54610243709932,5.579333831662708
-0.06947472302742508,-5.859441278508149,5.601895775415946,6.063181429775346
-0.12806913581250656,-6.167353480858579,5.6625275897137,6.574153716483127
-0.18974267062109235,-6.484492684370229,5.728269126878531,7.0904592346142925
-0.25458759746479465,-6.7781061592317355,5.799173719224674,7.566506324103326
-0.322368659057112,-6.993934166190437,5.874838782465708,7.926763211427298
-0.39230800071901634,-7.06588499716866,5.9541064145799805,8.079367695533708
-0.4629668506907029,-6.950288706631131,6.0349000915353175,7.964126009609163
-0.5324697377570142,-6.663622980994011,6.114541351631409,7.605213185616723
-0.5991059675669543,-6.275189564554074,6.190593483487577,7.100642478159053
-0.6618578632124951,-5.85891155683633,6.261599908269168,6.554657685199265
-0.7204469787808584,-5.4610296109061025,6.32714648512116,6.032624859621229
-0.7750572748899194,-5.100470158848823,6.387472733717372,5.561662217858238
-0.8260619764784076,-4.780575411232506,6.443089355895954,5.147080252780503
-0.8738677305907326,-4.498123928105695,6.494560158423759,4.784989630610712
-0.9188489698717895,-4.247925206357321,6.542410054729866,4.468716445508366
-0.9613282219353627,-4.024726089577794,6.58709721918495,4.191465301966917
-1.0015754828311407,-3.8238622016597903,6.629011872204619,3.9472326333596173
-1.0398141048477387,-3.641395516540438,6.6684841985382155,3.731003485477077
-1.076228060013143,-3.4740653693623615,6.705794233392986,3.538687470326286
-1.1109687137067668,-3.3191861625340984,6.7411811080962485,3.366979280626132
-1.1441605753321078,-3.1745420320304403,6.77485090090251,3.2132137047228775
-1.1759059956524123,-3.0382949608777725,6.806983037949738,3.0752381333502647
-1.20628894526119,-2.908909737136216,6.8377354192832405,2.951307366487156
-1.2353780426325522,-2.7850945129014075,6.867248492948112,2.8399990835030144
-1.2632289877615663,-2.665754422646262,6.895648483783142,2.740146538350369
-1.289886531988029,-2.549955666607567,6.9230499491666455,2.650784973175345
-1.3153860886541047,-2.4368978135509236,6.9495577988983985,2.5711087371983194
-1.3397550667896139,-2.325892500636293,6.975268886270381,2.5004367000890886
-1.3630139917959767,-2.216347091443263,7.000273253271272,2.438184100466916
-1.3851774627104094,-2.1077521659158918,7.024655094275942,2.383839427085277
-1.4062549843695684,-1.9996719589586038,7.048493488546795,2.336945292454648
-1.4262517039591545,-1.8917370486327525,7.071862941471341,2.297082539435629
-1.445169074445482,-1.7836387330891466,7.0948337668656976,2.263857036099863
-1.4630054617763735,-1.6751246390762533,7.117472337226697,2.236888776406968
-1.4797567081671361,-1.565995183707954,7.139841224990766,2.2158030246249103
-1.4954166600042156,-1.4561005728768157,7.161999255237015,2.2002233279018455
-1.5099776657329838,-1.3453380703273683,7.184001488516034,2.1897662798385307
-1.5234310464362575,-1.2336493156388175,7.205899151314419,2.18403795267797
-1.5357675395926456,-1.1210175106968292,7.227739530841199,2.182631930270746
-1.5469777146996138,-1.007464335081499,7.249565850143907,2.18512887131032
-1.5570523580504287,-0.8930464925871519,7.27141713885701,2.1910975154455268
-1.5659828229763002,-0.7778518342863399,7.293328114011465,2.200097016994685
-1.5737613413191636,-0.6619950477138189,7.315329084181412,2.2116804557355776
-1.5803812917963018,-0.5456129456122303,7.337445888738768,2.2253993356791986
-1.5858374212524242,-0.42885942931241855,7.359699882095559,2.240808845206292
-1.5901260155455483,-0.31190023883362306,7.382107970547622,2.257473619856633
-1.5932450179338846,-0.19490763164998323,7.404682706746189,2.274973726502633
-1.5951940942503844,-0.07805515244758111,7.427432444011215,2.2929105779735486
-1.5959746457748603,0.03848733468666271,7.4503615497909506,2.3109124926519966
-1.5955897724279937,0.15455818326011683,7.47347067471747,2.3286396349135745
-1.5940441905953926,0.27000791724363066,7.496757071066606,2.3457881086788674
-1.5913441114229563,0.38470247230518406,7.5202149521533945,2.3620930253744703
