th1 (rad),w1 (rad/s),th2 (rad),w2 (rad/s)
3.0403977494954972,0.7699504911331435,5.8200694473476595,2.429917797134062
3.0480972544068288,0.8055716814693934,5.844368625319,2.5049126864784297
3.0561529712215227,0.8415072752133661,5.869417752183785,2.578167329033583
3.0645680439736562,0.8775983073381829,5.895199425474121,2.649449082062262
3.073344027047038,0.9136714637728904,5.9216939162947435,2.718511446706268
3.082480741684767,0.9495403972633858,5.948879030761806,2.785095771206782
3.0919761456574006,0.985007495437977,5.976729988473874,2.848933465902035
3.1018262206117804,1.0198661179192352,6.005219323132894,2.909748743581172
3.1120248817909726,1.0539033021088937,6.034316810568706,2.9672618787951395
3.1225639148120616,1.0869029166027508,6.063989429356657,3.0211929560968454
3.133432943978089,1.1186492178020326,6.094201358917625,3.0712660507956384
3.1446194361561095,1.1489307403286502,6.124914019425582,3.1172137580148243
3.156108743559396,1.177544426874003,6.1560861570057295,3.1587819584114145
3.167884187828136,1.2042998799840612,6.187673976589844,3.1957346839608562
3.179927186627977,1.229023599057595,6.219631323429453,3.227858926999916
3.192217422618553,1.2515630525456953,6.2519099126994515,3.2549692224772695
3.2047330531440097,1.2717904297785525,6.2844596049242245,3.2769118289882524
3.217450957441795,1.289605920310711,6.317228723214107,3.293568339992711
3.2303470166449024,1.3049403817665135,6.350164406614034,3.304858573150081
3.2433964204625676,1.3177572796287758,6.383212992345535,3.3107426125117905
3.2565739932588555,1.328053813087864,6.416320418470653,3.3112219139485215
3.269854531389734,1.3358611779588105,6.449432637610138,3.3063394263134067
3.283213143169322,1.3412439581274738,6.482496031873272,3.296178726418799
3.296625582750597,1.3442986779691959,6.515457819137461,3.2808622115315074
3.310068569530289,1.3451515866130788,6.548266441252776,3.2605484353705343
3.3235200853964195,1.3439557780105456,6.5808719256064805,3.2354287094982337
3.336959643176525,1.3408877763007636,6.613226212701463,3.205723119194574
3.350368520939533,1.336143732530845,6.645283443893408,3.1716761199594656
3.3637299582648414,1.329935385853906,6.677000205093003,3.133551887250786
3.3770293121233803,1.3224859402251299,6.708335723965511,3.091629588431138
3.3902541715256316,1.3140259974171888,6.739252019849822,3.0461987334533105
3.4033944314998035,1.3047896704984483,6.769714007184355,2.9975547414200547
3.4164423282047878,1.2950109806895758,6.799689554598555,2.9459948359747696
3.4293924380116834,1.2849206167471212,6.829149502958303,2.89181435573912
3.4422416441791546,1.2747431116070302,6.858067646515694,2.835303538775799
3.454989075295225,1.2646944675764942,6.886420681903451,2.776744814066687
3.46763601997099,1.2549802401445476,6.914188130044118,2.7164106095952345
3.4801858223724356,1.2457940723457732,6.94135223614007,2.6545616667015244
3.4926437630958933,1.237316657024478,6.967897852807085,2.5914458344107296
3.505016929666138,1.2297150934345649,6.993812311151192,2.5272973055250403
3.517314080600484,1.2231425972255332,7.019085284206443,2.4623362482292994
3.529545506572739,1.217738518662922,7.043708646688736,2.3967687823985133
3.541722891759368,1.213628622444418,7.067676334512721,2.330787248191482
3.5538591779838122,1.2109255831753507,7.090984206994636,2.264570715292601
3.565968433815566,1.2097296529284607,7.1136299141475625,2.1982856837454037
3.5780657303448504,1.2101294608344189,7.135612770985016,2.13208693116688
3.5901670249531947,1.2122029088907296,7.156933640296685,2.066118465764882
3.602289054042102,1.2160181327669362,7.177594824954334,2.0005145496023156
3.6144492353697717,1.2216345010273413,7.197599970450358,1.9354007616416207
3.626665580380045,1.2291036306640957,7.2169539780667735,1.8708950750176163
3.638956616686686,1.2384704009732113,7.23566292881695,1.8071089275507477
3.6513413206964183,1.2497739515083226,7.253734018092458,1.7441482686083554
3.6638390602115014,1.2630486530507667,7.271175500778542,1.6821145689773642
3.676469546742009,1.2783250432128233,7.287996646468315,1.6211057833916873
3.689252797174137,1.2956307204415476,7.3042077043022315,1.5612172577507897
3.7022091043785528,1.3149911918279538,7.319819876879739,1.5025425748779049
3.715359016296832,1.336430671274597,7.334845302628518,1.44517433391227
3.728723323009578,1.359972825262608,7.349297045967641,1.3892048591279185
3.742323051262204,1.3856414637160948,7.36318909455892,1.334726834139734
3.7561794658993652,1.4134611733142812,7.376536362900318,1.2818338571095131
3.770314077632508,1.4434578900722137,7.3893547014714125,1.2306209117088664
3.78474865653323,1.47565940711657,7.401660910588501,1.1811847472335493
3.799505250604396,1.5100958123359696,7.413472758060837,1.1336241593905074
3.8146062087277555,1.5467998489925376,7.424808999654742,1.0880401608846966
3.830074207217681,1.5858071904475952,7.435689401263589,1.0445360280048759
3.845932279122157,1.6271566178827845,7.446134761543638,1.0032172059342899
3.862203845300985,1.67089008729503,7.45616693360298,0.9641910514876177
3.8789127461739352,1.7170526691230596,7.4658088441178565,0.9275663874071931
3.896083272865166,1.7656923406516636,7.475084507991928,0.8934528372691981
3.9137401962716827,1.8168596078851587,7.484019036364621,0.8619599045189649
3.9319087923505345,1.8706069299615844,7.4926386354098105,0.8331957532882994
3.95061486165015,1.9269879155134675,7.500970592942694,0.8072656426302736
3.969884740805285,1.9860562568438047,7.509043249368997,0.78426995991274
3.989745303373723,2.047864364621189,7.516885948968124,0.7643017937322755
4.010223947019935,2.1124616633352975,7.5245289669054465,0.7474439823817242
4.031348563653288,2.1798925064242587,7.532003406729264,0.7337655713372472
4.0531474887175305,2.2501936703349044,7.539341062442636,0.7233176133356212
4.075649425420879,2.3233913894761247,7.546574238575992,0.7161282485208307
4.09888333931564,2.3994978998702083,7.553735521061201,0.7121970112097956
4.122878318314342,2.478507469206261,7.560857491173299,0.7114883256331085
4.147663393006405,2.5603919059462403,7.56797237442963,0.7139241772896675
4.173267312065867,2.645095561151381,7.575111616202526,0.7193759811383783
4.199718267677381,2.7325298647587832,7.58230537601391,0.7276557145036711
4.227043566324969,2.822567473958421,7.5895819331589465,0.7385064428060182
4.255269241064553,2.9150361556124698,7.596966997587007,0.7515924410330888
4.2844196026206784,3.0097125773670177,7.604482921997338,0.7664892033785976
4.314516728394349,3.1063162426253275,7.612147814031124,0.7826737365960492
4.345579890820602,3.204503871436875,7.6199745513970845,0.7995156465935047
4.377624929534971,3.3038646001402276,7.627969707863019,0.8162696478085425
4.410663575536373,3.403916443622609,7.6361324043411045,0.8320702436512917
4.444702739972599,3.504104530318469,7.644453106777617,0.8459294336704225
4.479743785275784,3.6038016750495556,7.652912401114322,0.8567383858823853
4.51578180202628,3.7023118903095096,7.661479784973146,0.8632740544787625
4.552804920929375,3.7988774425322656,7.670112525517934,0.8642117042696067
4.590793695354697,3.8926900241269786,7.67875464256063,0.858144201291425
4.629720595595967,3.98290652048906,7.687336084573545,0.8436087197440368
4.6695496608008575,4.0686696882817674,7.695772171770985,0.8191211748459122
4.710236357683675,4.149133811755157,7.703963383519444,0.7832181995158345
4.751727695801226,4.2234950560517746,7.711795565514602,0.7345058307381505
4.793962646361744,4.291025787761411,7.719140623821983,0.6717132694750103
4.836872904239359,4.351111597544045,7.725857756516733,0.593749167452035
4.880384020214799,4.403289176750361,7.731795248191253,0.49975695847325496
4.924416911982303,4.447282640799571,7.736792817775986,0.3891649227036309
4.968889738390299,4.483035460178678,7.740684467003022,0.26172612417574326
5.013720092992086,4.510734980835831,7.74330172824478,0.11754328919929363
5.058827442800444,4.530826712492473,7.744477161136773,-0.04292573280040507
5.104135709925369,4.544016219645642,7.744047903808769,-0.21888497649191993
5.149575872121825,4.551257569429135,7.74185905404385,-0.40924089867561547
5.195088447816117,4.553728767751149,7.737766645057094,-0.6126650733045467
5.240625735493628,4.552796235684023,7.731639994324048,-0.8276751758399844
5.286153697850469,4.549971856588181,7.723363242565648,-1.0527283153911051
5.3316534164163505,4.546867176679588,7.712835959411738,-1.286319559793008
5.377122088183146,4.545149767763057,7.699972763813808,-1.5270784223337932
5.422573585860777,4.546506507837462,7.68470197959047,-1.7738571665964207
5.468038650939151,4.552617714256926,7.666963407924506,-2.0258068116512686
5.513564828081721,4.565144914117635,7.646705339807993,-2.2824392818610773
5.559216277222897,4.585733852335888,7.623880946989383,-2.543676794493797
5.605073615746256,4.616033391320188,7.598444179044445,-2.809891944479252
5.651233949659457,4.657730438457196,7.5703452595996525,-3.0819438212431067
5.697811254044029,4.712601035768069,7.539525821387222,-3.361216848742229
5.74493726440171,4.782578246388348,7.5059136528998,-3.6496699817491876
5.792763046865593,4.869838368456693,7.469416953082308,-3.949904563650406
5.84146143055016,4.9769080719533685,7.429917907445804,-4.265259588341375
5.891230511269693,5.106795812753748,7.38726531156239,-4.599942974400032
5.9422984693972305,5.263150240020541,7.34126588181839,-4.959205492931257
5.994929971797436,5.45044364676146,7.2916738268890775,-5.349556713742891
6.049434408265051,5.674163384174073,7.238178259751648,-5.779000919223758
6.106176042106791,5.940952851501016,7.18038825055941,-6.257213583553023
6.1655855706218015,6.258538190856854,7.11781611472388,-6.795432807697626
6.22817095253037,6.635017994836347,7.049861786646903,-7.405480477288254
6.294521132478733,7.076488561297343,6.975806981874021,-8.096484993427364
6.365286018091707,7.580706571502812,6.894842131939747,-8.866100905116774
6.441093083806735,8.122553562465441,6.806181122888579,-9.680301174503128
6.52231861943139,8.627665221924044,6.709378111143548,-10.436625602527513
6.60859527165063,8.948530718053346,6.605011855118272,-10.930837733373057
6.6980805788311635,8.909716728871581,6.4957034777845415,-10.920151921846443
6.7871777461198795,8.472624967650688,6.386501958566077,-10.353092157418013
6.871903995796386,7.811907114332332,6.282971036991897,-9.474819588321532
6.95002306693971,7.132229880115347,6.188222841108682,-8.570640948377907
7.021345365740863,6.530079013432433,6.1025164316249025,-7.774526872696287
7.0866461558751865,6.022251542743469,6.02477116289794,-7.109835293896008
7.146868671302621,5.597296742630114,5.95367280995898,-6.561025003721314
7.2028416387289225,5.238824689685917,5.888062559921766,-6.105922415075116
7.2552298856257815,4.932319833635497,5.827003335771015,-5.725076618186946
7.304553083962136,4.666287684770053,5.769752569589145,-5.4032959820920174
7.351215960809837,4.4318941020797675,5.715719609768225,-5.129124571776345
7.395534901830635,4.222358160226342,5.664428364050462,-4.8939915334660995
7.437758483432898,4.03242093901349,5.6154884487158006,-4.691470796662999
7.478082692823032,3.8579419432769684,5.56857374074917,-4.516717371601606
7.516662112255802,3.6956069630284962,5.523406567033154,-4.366054456340562
7.553618181886087,3.5427207994087655,5.479746022469748,-4.236672029211154
7.589045389880175,3.3970622210420336,5.437379302177637,-4.126403358503208
7.623016012090595,3.256784533387268,5.396115268592604,-4.03355432971344
7.6555838574244675,3.120350167282557,5.35577972529547,-3.9567676801413314
7.686787359097293,2.986491238805619,5.316212048494057,-3.894909704270059
7.71665227148535,2.8541902472625886,5.277262951451356,-3.8469711854545476
7.745194173957976,2.72267618964605,5.238793239596811,-3.8119777531679437
7.772420935854436,2.591431576197896,5.200673462065132,-3.788907975947373
7.798335251616415,2.4602053274275018,5.1627843823056585,-3.776620498361386
7.82293730489069,2.3290255806387954,5.125018177322045,-3.7737943828439997
7.846227560697078,2.1982054364215555,5.087280233493605,-3.7788891896748784
7.868209615061294,2.0683342052941582,5.049491341596856,-3.790132588922248
7.888892957114235,1.9402474478318295,5.011590015707633,-3.8055426448839684
7.9082954315925535,1.8149716123818151,4.973534589258794,-3.8229886803893227
7.926445147716372,1.6936435086067163,4.935304702454901,-3.8402887398278964
7.943381582802439,1.577410609716991,4.896901815056622,-3.8553340647060397
7.9591556888996084,1.4673238148830048,4.858348474409562,-3.866223708493604
7.973828927048438,1.364237914364779,4.819686237324626,-3.8713880511640966
7.987471306192086,1.2687349833450745,4.780972356812985,-3.8696806108728095
8.000158656025537,1.1810818566493297,4.742275550704257,-3.8604236143279422
8.01196947459203,1.1012258336336602,4.703671314560977,-3.8434025891400374
8.022981732928367,1.0288250988262024,4.6652372886695765,-3.8188156251586003
8.033269983916629,0.9633043973767201,4.627049132417991,-3.7871907329476455
8.042903027890397,0.9039237374399689,4.589177225088514,-3.7492880572551956
8.051942265264795,0.8498484096133468,4.551684344515962,-3.7060025968572243
8.060440749360929,0.8002114382557037,4.51462431854739,-3.658278979341945
8.068442863743485,0.7541633193974497,4.4780415287539705,-3.6070446650048904
8.07598449693746,0.7109073711124793,4.4419710821039216,-3.553163286775256
8.083093570648584,0.669721556828717,4.406439449236169,-3.4974065203973184
8.089790786216872,0.6299690811618894,4.371465384032196,-3.440441078275494
8.096090477028492,0.5911005732026644,4.337060973249441,-3.3828268579770637
8.10200148276052,0.552650566235549,4.303232704669671,-3.325022522691555
8.107527988422875,0.5142305487577791,4.269982479442755,-3.267395445161985
8.112670293910453,0.4755203178642219,4.2373085249911355,-3.210233718264524
8.117425497089096,0.43625884538856263,4.20520618780849,-3.153758653378436
8.121788085542981,0.3962354331237493,4.173668601274706,-3.0981367744552655
8.125750439874219,0.3552816037934732,4.142687233530153,-3.043490753775345
8.129303255912154,0.3132639420399088,4.1122523259924,-2.989909038968955
8.132435895332552,0.2700779467992774,4.08235323560271,-2.9374541166601724
8.135136674800545,0.2256428632494591,4.052978694436108,-2.8861694742450217
8.13739310343304,0.17989741131815337,4.024116999693658,-2.836085382355259
8.139192077546221,0.13279630441599202,3.9957561458701054,-2.7872236456567574
8.140520040590381,0.0843074461691338,3.967883909413538,-2.7396014727411404
8.141363115052073,0.03440969718441985,3.9404878946861266,-2.693234606593623
8.141707212023917,-0.01690888655296211,3.9135555486201903,-2.648139841745811
8.141538123158387,-0.06965243023592234,3.887074150202732,-2.6043370366615783
8.140841598856028,-0.1238183061035459,3.8610307798361165,-2.561850712448175
8.139603415794992,-0.1793979513478319,3.835412272711635,-2.5207113128637584
8.137809436281515,-0.2363774902483383,3.8102051595829973,-2.4809561863710017
8.135445661379032,-0.2947382034564187,3.7853955977192872,-2.4426303388296957
8.132498279344468,-0.3544568793492458,3.7609692943309905,-2.405786995269895
8.128953710550975,-0.41550607553898034,3.7369114243782917,-2.3704880008662848
8.124798649795586,-0.4778543128131093,3.713206544369629,-2.336804084520064
8.120020106667456,-0.5414662188468979,3.6898385035244283,-2.3048150031117816
8.114605444478986,-0.6063026348244287,3.6667903534933104,-2.2746095802917674
8.108542418130742,-0.6723206945036434,3.6440442576903926,-2.2462856504179647
8.101819211185706,-0.7394738821559783,3.621581401186213,-2.2199499157508895
8.094424472364146,-0.8077120731158608,3.5993819020287043,-2.195717723112275
8.086347351632988,-0.8769815583219623,3.5774247247975817,-2.173712764769666
8.077577536049768,-0.9472250521702044,3.555687597149885,-2.1540667072059945
8.068105285528066,-1.0183816811922568,3.5341469300778248,-2.1369187505712834
8.057921468716144,-1.0903869494990563,3.512777742572112,-2.1224151209099955
8.047017599221153,-1.1631726755730956,3.491553591363012,-2.110708496644457
8.035385872465422,-1.236666893850329,3.4704465063965673,-2.1019573702189467
8.02301920352692,-1.310793713603379,3.4494269326943776,-2.096325345231196
8.009911266390885,-1.3854731269283207,3.4284636792420655,-2.0939803687726046
7.9960565351216015,-1.4606207571579575,3.4075238755543396,-2.0950938980536016
7.981450327550022,-1.536147538789072,3.3865729365738035,-2.0998399997081996
7.966088852162132,-1.6119593200368536,3.3655745365767213,-2.1083943794679127
7.949969258961763,-1.6879563794369334,3.344490592782042,-2.1209333392000778
7.933089695167394,-1.7640328485277517,3.323281259390041,-2.1376326576640277
7.915449366682116,-1.840076033590119,3.3019049328134007,-2.158666390809976
7.897048606346215,-1.9159656307267676,3.280318268905301,-2.184205587103971
7.8778889500389475,-1.9915728302653708,3.2584762130342613,-2.2144169132963967
7.857973221736294,-2.0667593085993072,3.2363320439012973,-2.249461186363485
7.8373056286503004,-2.141376108178064,3.2138374320376624,-2.2894918081559914
7.81589186756852,-2.215262409459892,3.1909425139561023,-2.334653100712082
7.7937392434739206,-2.288244202276401,3.1675959829489813,-2.3850785423659415
7.770856801451156,-2.36013286825862,3.143745197525322,-2.4408889078469174
7.74725547276857,-2.4307236907512415,3.1193363084468526,-2.5021903196519046
7.7229482358610575,-2.4997943139926537,3.0943144052503335,-2.5690722232135292
7.697950292721131,-2.56710317923271,3.068623683018198,-2.6416053048885217
7.672279260928804,-2.63238797183191,3.042207629969313,-2.719839379636561
7.645955381210485,-2.695364120121065,3.0150092361729475,-2.8038012844910383
7.619001740009274,-2.7557233937262136,2.986971223328037,-2.8934928245255405
7.591444506072012,-2.8131326559328524,2.9580362950827817,-2.988888829907802
7.563313179512684,-2.867232831143339,2.9281474067837037,-3.089935395632541
7.53464085120125,-2.91763815413999,2.8972480528273783,-3.196548389357257
7.5054644696598505,-2.963935772164619,2.8652825689338055,-3.3086123270323564
7.475825111938204,-3.0056857731118907,2.832196445663482,-3.425979730190422
7.445768254207085,-3.0424217126494124,2.7979366483615777,-3.548471092176421
7.41534403708059,-3.0736517089685753,2.7624519374398133,-3.6758755924711886
7.3846075199909045,-3.0988601652180714,2.7256931815151013,-3.8079527076879884
7.353618918338724,-3.1175101655395254,2.6876136544382216,-3.944434873843135
7.322443816683329,-3.1290465701235397,2.64816930569979,-4.085031356149697
7.291153350982094,-3.1328998070862775,2.607318992138293,-4.229433478977776
7.259824352911231,-3.128490323737129,2.5650246573485154,-4.377321359089902
7.2285394496738595,-3.115233616861185,2.5212514437576163,-4.5283722694688295
7.197387113505248,-3.092545711407829,2.475967721062928,-4.68227073919111
7.16646165639117,-3.059848900580795,2.429145013671017,-4.838720467720283
7.135863167385362,-3.016577499723183,2.380757808993814,-4.997458101361151
7.10569739238813,-2.962183304502985,2.3307832279802025,-5.158268887958542
7.0760755593431,-2.8961403847214786,2.279200539100617,-5.321004196545613
7.047114155495885,-2.8179487937654626,2.225990497135161,-5.485600865304177
7.018934667558231,-2.727136736865992,2.171134488482119,-5.652102327381055
6.991663300189571,-2.6232607273016044,2.1146134652083086,-5.8206814616934155
6.965430692916555,-2.50590327972694,2.0564066505913745,-5.991665122791885
6.940371660119285,-2.374667760164975,1.9964899993634557,-6.1655603101181855
6.916624982517636,-2.229170158503292,1.9348343962622738,-6.343081917715713
6.894333280932603,-2.0690278150161494,1.8714035770851167,-6.525181908791937
6.873643002782441,-1.8938455944814876,1.8061517579971973,-6.7130794851511535
6.854704546837627,-1.7032007993240694,1.7390209631456857,-6.9082911816374
6.8376725388443855,-1.4966295011960158,1.6699380513293116,-7.112658464328203
6.8227062438324255,-1.2736194113787862,1.5988114666860296,-7.328367715689207
6.809970049718638,-1.0336187398628007,1.5255277895291375,-7.557952302337421
6.79963386232001,-0.7760781939618717,1.4499482665057633,-7.804256686885197
6.791873080380391,-0.5005568879049556,1.3719056996369112,-8.070324691067695
6.786867511501342,-0.2069465705194546,1.2912024527262342,-8.359142194752616
