th1 (rad),w1 (rad/s),th2 (rad),w2 (rad/s)
3.460321540526166,-2.8172654806294295,1.4329189504644892,-2.2032214278399107
3.432148885719872,-2.8136874742511755,1.4108867361860902,-2.227475122095008
3.40401201097736,-2.8134714629584887,1.3886119849651402,-2.2528598763747296
3.3758772963477752,-2.8166067713978955,1.3660833862013928,-2.2791257576642847
3.347711228633796,-2.823081393393953,1.34329212862475,-2.306021118144551
3.3194804146998567,-2.8328813808396363,1.3202319174433044,-2.3332916500489143
3.2911516008914603,-2.845990206187394,1.2968990009428152,-2.360679436673285
3.2626916988295864,-2.862388106551707,1.2732922065760823,-2.387922008339823
3.2340678177640694,-2.882051418056276,1.2494129864926842,-2.414751413042162
3.2052473035835067,-2.9049519099454177,1.2252654723622625,-2.4408933126476438
3.1761977844840525,-2.9310561291299466,1.200856539235786,-2.466066116861767
3.146887223192753,-2.960324767249557,1.1761958780671682,-2.4899801686249634
3.1172839755202575,-2.9927120639989937,1.1512960763809186,-2.5123369961550495
3.0873568548802677,-3.0281652623705964,1.126172706419368,-2.5328286484005433
3.057075202256562,-3.066624133590333,1.1008444199353626,-2.5511371321451617
3.0264089609206586,-3.1080205918381796,1.075333048613911,-2.566933970298337
2.995328755002277,-3.152278421305821,1.0496637089109275,-2.579879901894873
2.9638059707892186,-3.1993131407017117,1.0238649098919788,-2.5896247448584306
2.9318128393822014,-3.24903203289809,0.9979686624433944,-2.5958074424802984
2.8993225190532206,-3.301334369944167,0.9720105880185914,-2.598056313619055
2.866309175353779,-3.356111866046878,0.9460300248824008,-2.5959895245995
2.83274805669331,-3.4132493932338672,0.9200701296364059,-2.5892157974116485
2.7986155627609715,-3.472625996140515,0.8941779716622894,-2.5773353637861627
2.763889302799566,-3.534116243576613,0.8684046180244278,-2.5599411677335357
2.7285481403638,-3.5975919551059423,0.8428052063470924,-2.536620309851109
2.6925722208127407,-3.6629243407090817,0.8174390032485813,-2.506955714798037
2.6559429774056498,-3.729986590629911,0.792369446100601,-2.470527988508881
2.6186431114993507,-3.7986569507270036,0.7676641662155121,-2.426917413702602
2.580656541992081,-3.8688223161571487,0.7433949920784861,-2.3757060108589876
2.5419683188305093,-3.940382373241198,0.7196379319698962,-2.3164795669928226
2.502564495098097,-4.013254316316946,0.696473136299968,-2.248829506295544
2.462431951934928,-4.087378163917274,0.6739848412370125,-2.1723544452117816
2.421558170295755,-4.162722697655034,0.6522612967848948,-2.086661240087231
2.3799309433192044,-4.239292049008895,0.6313946843840225,-1.9913652985862336
2.3375380228291154,-4.3171329654103925,0.6114810313981601,-1.8860898871012342
2.2943666931750113,-4.396342799635015,0.5926201325271477,-1.7704641257819766
2.250403265178661,-4.4770782878676245,0.574915491269328,-1.6441193208449079
2.205632482299985,-4.559565214618209,0.5584742980608789,-1.5066832404203085
2.160036830153803,-4.64410910975427,0.5434074656566759,-1.357771894902005
2.1135957390562603,-4.7311071870563435,0.5298297467076558,-1.1969783348076641
2.066284667185697,-4.821061817097558,0.5178599633595792,-1.0238579278720434
2.0180740490147215,-4.914595930621919,0.5076213840808588,-0.8379095230930228
1.9689280897085024,-5.012470869399453,0.49924228884992855,-0.6385518572305097
1.918803381014508,-5.11560733038265,0.4928567702776235,-0.42509452261686914
1.8676473077106814,-5.225110162528123,0.4886058250514548,-0.19670282799359853
1.8153962060854,-5.342297822269654,0.4866387967715188,0.04764397810113333
1.7619732278627036,-5.468737164739064,0.4871152365525301,0.3092012298393074
1.707285856215313,-5.606283720118722,0.49020724885092315,0.5895131879468751
1.6512230190141257,-5.757126223967925,0.4961023807303919,0.8904699759904207
1.5936517567744464,-5.923831020072098,0.5050070804902961,1.2143589808618849
1.5344134465737254,-6.1093751942291705,0.5171506702989149,1.5638924588321963
1.4733196946314338,-6.317143274691784,0.5327895948872369,1.9421725319652063
1.4101482618845158,-6.550833963415991,0.5522113202068889,2.3525137654977923
1.344639922250356,-6.814167571055762,0.5757364578618668,2.797963744838213
1.2764982465397985,-7.110180213386038,0.603716095310249,3.2802137639184212
1.2053964444059382,-7.43971302356158,0.6365182329494332,3.7973418521762863
1.1309993141703223,-7.798469902543197,0.674491651471196,4.339505286050534
1.0530146151448903,-8.171954994920123,0.7178867043317014,4.881630813428114
0.971295065195689,-8.52860008429386,0.7667030124659826,5.373606770155326
0.8860090643527504,-8.815374946848669,0.8204390801675359,5.734189875327699
0.7978553148842638,-8.967360973712255,0.8777809789208129,5.865086130382817
0.7081817051471412,-8.941220960598372,0.936431840224641,5.699433231234478
0.6187694955411575,-8.751815562594965,0.9934261725369857,5.255111089180237
0.5312513399152078,-8.46550852215817,1.0459772834287882,4.626250840685923
0.44659625469362607,-8.154021657628668,1.0922397918356475,3.9175100770513396
0.3650560381173394,-7.862762874408595,1.131414892606161,3.1978201845067264
0.2864284093732534,-7.610403740026423,1.163393094451228,2.498565890403375
0.2103243719729892,-7.399909136955303,1.1883787533552619,1.8287019506388202
0.13632528060343618,-7.227314096684233,1.20666577286165,1.1871880476631094
0.06405213963659386,-7.086298823884175,1.2185376533382812,0.5696679307001401
-0.006810848602247899,-6.970129664693536,1.2242343326452827,-0.028557652459220928
-0.07651214524918326,-6.8723458845193495,1.2239487561206905,-0.6113738977844221
-0.14523560409437675,-6.786928237697993,1.2178350171428463,-1.1814874892604803
-0.21310488647135667,-6.7082832706306,1.2060201422502415,-1.7403871255178633
-0.28018771917766266,-6.631183611187302,1.1886162709950627,-2.288432599524024
-0.3464995552895357,-6.55071928973059,1.1657319449998225,-2.824995627381004
-0.4120067481868416,-6.4622787893586215,1.1374819887260124,-3.3486252558688934
-0.4766295360804278,-6.361562907583399,1.1039957361673234,-3.857229533601835
-0.5402451651562618,-6.2446274488011975,1.065423440831305,-4.348270721616209
-0.6026914396442737,-6.107947239940751,1.021940733615143,-4.818971387154474
-0.6637709120436812,-5.948492027558109,0.9737510197435982,-5.266526786760862
-0.7232558323192623,-5.763803805723824,0.9210857518759896,-5.688316682577551
-0.7808938703765005,-5.5520648702819555,0.8642025850502141,-6.082107986946382
-0.8364145190793201,-5.312146394180212,0.8033815051807502,-6.446238807676234
-0.8895359830211222,-5.043628601219831,0.7389191171039879,-6.779774748289991
-0.9399722690333205,-4.746785686045356,0.671121369621088,-7.082629746423496
-0.9874401258937741,-4.422531422434848,0.6002950721568531,-7.355646256171311
-1.0316654401181224,-4.072324744433656,0.52673860959514,-7.600633043225829
-1.072388687562459,-3.6980381579895236,0.45073227916288167,-7.820362979507907
-1.1093690691423543,-3.3017951983821585,0.3725286493678026,-8.018537553570056
-1.142387021126176,-2.8857858011743476,0.29234327383210207,-8.199728768124801
-1.1712448791379195,-2.452070027446984,0.21034598615085404,-8.369312002877216
-1.1957655794123894,-2.0023810310664323,0.12665286612208188,-8.533404564317784
-1.2157893897230536,-1.537938006079043,0.041318820478904034,-8.698823192027323
-1.231168769783844,-1.0592805420458131,-0.0456694114413692,-8.873068414507316
-1.241761575204302,-0.5661402864670859,-0.13440009558644234,-9.064331539353002
-1.247422978068973,-0.05737982075602244,-0.22504341097997238,-9.281494798475228
-1.2479967762765332,0.4689363920604621,-0.31785835896472464,-9.534042346466178
-1.2433074123559285,1.015195555477336,-0.4131987824293864,-9.83168875135446
-1.2331554568011551,1.5833062367594244,-0.511515669942931,-10.183302361600829
-1.217322394433561,2.172558440094444,-0.6133486935589393,-10.59425759462487
-1.1955968100326164,2.775143426698853,-0.719291269505188,-11.06063257920436
-1.167845375765628,3.3678298316925077,-0.8298975952972315,-11.55809343763967
-1.134167077448703,3.8998274309032945,-0.9454785296736282,-12.025294701236671
-1.09516880313967,4.285100886515048,-1.0657314766859949,-12.352800812212552
-1.0523177942745194,4.423813553545857,-1.1892594848081204,-12.411093886484565
-1.0080796587390608,4.270071890130193,-1.313370423672966,-12.141122392202329
-0.9653789398377589,3.884925182586532,-1.4347816475949893,-11.624209702426832
-0.9265296880118936,3.388880456675322,-1.5510237446192576,-11.016450825624355
-0.8926408834451404,2.8770221892459498,-1.661188252875501,-10.43607190472848
-0.8638706615526809,2.3943115055104864,-1.765548971922786,-9.933906562242365
-0.8399275464975761,1.9531770903104686,-1.8648880375452095,-9.519160235378347
-0.8203957755944714,1.552049106517134,-1.960079639898993,-9.184523433772561
-0.8048752845293,1.1849756251527106,-2.0519248742367187,-8.918577868222048
-0.793025528277773,0.8454481555438711,-2.141110652918939,-8.710380505753987
-0.7845710467223342,0.5276550087313274,-2.228214457976479,-8.550727089414634
-0.7792944966350209,0.226757697089307,-2.3137217288706253,-8.432234298298747
-0.7770269196641278,-0.061159748796843216,-2.398044071853613,-8.349075161079135
-0.7776385171520963,-0.3392260377806778,-2.481534823464404,-8.2966600429183
-0.7810307775299031,-0.6099188422358451,-2.5645014238935873,-8.271352470384109
-0.7871299659522616,-0.8751774149680328,-2.6472149485974286,-8.270237973773344
-0.7958817401019419,-1.1364878432714898,-2.729917328335162,-8.290941619123075
-0.8072466185346568,-1.3949437635506754,-2.812826744526393,-8.331484521486521
-0.8211960561701636,-1.65128682902438,-2.896141589741258,-8.390169848150652
-0.8377089244604073,-1.9059310133486835,-2.9800432882227645,-8.465490527472866
-0.8567682345938942,-2.15897420203912,-3.064698193497493,-8.556052693377886
-0.8783579766142854,-2.4101999023165543,-3.150258720431272,-8.660510415178994
-0.902459975637451,-2.6590714117644643,-3.236863824583062,-8.777508421295286
-0.9290506897550956,-2.904720438438271,-3.3246389087960146,-8.905630361263249
-0.9580978941394783,-3.1459319405343114,-3.4136952124086473,-9.043350727688036
-0.9895572135448214,-3.3811268369014877,-3.5041287196855277,-9.188988953496475
-1.0233684819138362,-3.60834423834083,-3.5960186092204927,-9.340664503904458
-1.0594519242972444,-3.8252250096422844,-3.6894252542595374,-9.49625212764571
-1.0977041743936673,-4.028998888126493,-3.7843877755359943,-9.653337004343177
-1.1379941632749322,-4.216478198752478,-3.880921145579426,-9.80917057349883
-1.180158945262457,-4.384062584694501,-3.9790128513144145,-9.960629647156257
-1.223999571109402,-4.527761237507792,-4.078619147785977,-10.104184255950146
-1.26927718348448,-4.643241811682223,-4.179660990345479,-10.235883644692535
-1.3157096016013023,-4.725918128312281,-4.282019826792404,-10.351374597750237
-1.3629687828844252,-4.771090910453122,-4.385533572769907,-10.445970817381626
-1.4106796919889564,-4.774155425139432,-4.489993280943723,-10.514794453513337
-1.4584212462403507,-4.730884738700187,-4.595141225478856,-10.553008277908917
-1.5057300936273526,-4.637785149132801,-4.700671308257945,-10.556146398015184
-1.5521079451186806,-4.492500567013041,-4.806232772238097,-10.52053111105168
-1.597032950788811,-4.294217773957471,-4.911438083348614,-10.443735230177083
-1.6399751285283857,-4.044001648318524,-5.0158754356503845,-10.32501982943136
-1.680415145011571,-3.744979175313262,-5.119125633944698,-10.16565838775587
-1.7178649367647036,-3.4023033294826397,-5.220782217822257,-9.969061963044348
-1.75188797005953,-3.0228659049086026,-5.320472837452701,-9.7406523377593
-1.7821166291086161,-2.6147838098680483,-5.417879360830294,-9.487485108961419
-1.8082644672072965,-2.1867378178859664,-5.5127542119199076,-9.217684606703779
-1.8301318453861561,-1.7472758881650434,-5.604931057986946,-8.939795311435537
-1.8476046042678065,-1.304193164880116,-5.694329011101301,-8.662165194173388
-1.8606465359166076,-0.8640703333999601,-5.7809506630430345,-8.392454595140718
-1.8692872392506072,-0.4320056144678841,-5.864875208994442,-8.137322393253331
-1.873607295395286,-0.011530910283181317,-5.946248432926975,-7.902296751035892
-1.873722604498118,0.39532809766186494,-6.025271400437334,-7.691804349647237
-1.8697693235214992,0.7879009458264501,-6.102189443933806,-7.509315393665812
-1.8618903140632346,1.1666816892864444,-6.177282597870464,-7.357560150378346
-1.8502234971703702,1.5331394588545795,-6.250858199374248,-7.2387810458036865
-1.8348921025818243,1.8895584935511882,-6.3232460098322845,-7.154996704418662
-1.8159965176463124,2.2389245599023586,-6.3947959768764715,-7.108266689353311
-1.7936072720472889,2.5848664554722993,-6.465878643770004,-7.100955863197131
-1.767758607492566,2.931656086396087,-6.536888202401975,-7.13600429326168
-1.738442046628605,3.284266986446341,-6.608248245334592,-7.217211654627239
-1.7055993767641415,3.648486113945366,-6.680420361880865,-7.349541819097296
-1.6691145156246878,4.031061127278779,-6.7539157800718375,-7.5394369198730695
-1.6288039043519,4.439831137886054,-6.829310149270568,-7.795082617722023
-1.5844055929730394,4.883700322375974,-6.907260975447788,-8.126442710236592
-1.5355685897492797,5.372094016185414,-6.988525402550154,-8.544574833184786
-1.4818476495874255,5.913018631379314,-7.073971150882002,-9.059014851700493
-1.4227174632736324,6.507738143479749,-7.164561299399007,-9.670462601494178
-1.3576400818388348,7.138275785987661,-7.261265925413949,-10.35345363815636
-1.286257323978958,7.743746140667476,-7.364800461795513,-11.02334158418772
-1.2088198625722832,8.194791480994365,-7.47503387763739,-11.500329137049228
-1.1268719477623397,8.320859462449285,-7.590037169007882,-11.546728087917872
-1.0436633531378467,8.052767902673414,-7.70550444988706,-11.064420338407944
-0.9631356741111126,7.528458627979276,-7.8161486532711395,-10.2406087806878
-0.8878510878313198,6.951593982213104,-7.918554741078018,-9.351193620612927
-0.8183351480091888,6.43517930050943,-8.012066677284148,-8.54614947787231
-0.7539833550040945,6.00795197108743,-8.097528172062871,-7.8602624253026985
-0.6939038352932202,5.6643184543955,-8.176130796315897,-7.282325089211011
-0.6372606507492652,5.390717547208449,-8.248954047208008,-6.791052178498362
-0.5833534752771807,5.174246207429762,-8.316864568992992,-6.366550245355931
-0.5316110132028831,5.004565649363933,-8.380530071446552,-5.99268299720162
-0.4815653567092437,4.8738350187716595,-8.440456901418568,-5.656842015337972
-0.4328270065215271,4.776213303317995,-8.497025321571947,-5.349204195606722
-0.38506487348834717,4.707358965188118,-8.550517363528014,-5.0620450760140985
-0.337991283836466,4.6640170017135345,-8.601137814288155,-4.789224702913939
-0.29135111381933065,4.6436888023146015,-8.649030061317294,-4.525842817742031
-0.24491422579618463,4.644359433732867,-8.694288489494715,-4.268037587988441
-0.19847063145885596,4.664257100427352,-8.7369688653746,-4.012904576533957
-0.15182806045458244,4.70162534953611,-8.77709791113994,-3.758518126237008
-0.10481180695922135,4.754496759673244,-8.81468309240231,-3.504038689220275
-0.05726683936248891,4.8204675972470845,-8.849723479294513,-3.2498839316903663
-0.009062163390018058,4.896487046523515,-8.882222318611417,-2.9979274567253524
0.0399027070752171,4.978691694175519,-8.91220159317867,-2.7516677705679093
0.0896896240169723,5.062332653236981,-8.939718270884349,-2.51628705196834
0.1403129505493421,5.141851746614683,-8.964881141404032,-2.2985057988099395
0.19173146801548893,5.211154341429395,-8.987866199392132,-2.106151724478376
0.24384301142978287,5.26409153245566,-9.008927716636915,-1.9474132398249226
0.2964839267543395,5.295105219641668,-9.028401849035165,-1.829838716087589
0.34943497895075615,5.299923914847976,-9.04670023619604,-1.7592470473958242
0.4024342180992359,5.276154595721625,-9.064292706669999,-1.7387870064159285
0.4551957640564522,5.223622664941429,-9.081680576734158,-1.7683795932436566
0.5074319907058664,5.144372447837288,-9.099364372666594,-1.8446880613299916
0.5588757151842393,5.0423321401976855,-9.117811253279895,-1.9616168666936815
0.6092990365862161,4.922733025871184,-9.137427421946832,-2.1112016216217313
0.6585263668449279,4.791422585189217,-9.15853943816305,-2.284668936819454
0.7064405926968201,4.6542135680686805,-9.181386127531244,-2.4734390939483317
0.7529827283775069,4.516374717940042,-9.206120518470728,-2.66990324897214
0.7981464755569073,4.382313659286199,-9.23281955096045,-2.8678969021714016
0.8419696121497693,4.255449690553381,-9.261498519982164,-3.062876862430458
0.8845241090553031,4.138238196637125,-9.292127288606467,-3.251866065551676
0.9259064910216743,4.032293484504449,-9.324645949261985,-3.433252811556721
0.9662294258667188,3.938559235154554,-9.358978477377551,-3.6065253543993836
1.0056150182182644,3.8574878870950444,-9.395043730921545,-3.7720021726882207
1.0441898970892147,3.7892049677477613,-9.432763752648427,-3.9305943482899477
1.0820819467666922,3.733647097459663,-9.472069696131326,-4.083616429725805
1.119418417741289,3.6906712862419626,-9.512905860428583,-4.232648558015794
1.1563251306037086,3.6601382777616647,-9.555232346008742,-4.379445120964963
1.1929265133813252,3.641974967044354,-9.599026797218391,-4.5258821501033495
1.2293462630517686,3.6362213558965584,-9.644285618719424,-4.673935311132786
1.2657084766107343,3.6430669193458587,-9.691024971830752,-4.8256812426040945
1.3021391458041929,3.6628801168991107,-9.739281784256793,-4.983316171737501
1.338767946973184,3.6962332484125144,-9.789114945974168,-5.1491864714059945
1.375730279457309,3.743922758190481,-9.840606810688229,-5.325825467009481
1.4131695070392138,3.806981876450414,-9.893865065358323,-5.515988463514054
1.451239325803718,3.8866770097761782,-9.949024949993463,-5.72267208247174
1.4901060959014798,3.9844694072600704,-10.00625167081818,-5.949091686251884
1.5299507899740805,4.101905495965978,-10.065742587680699,-6.19856666695012
1.5709698449337404,4.240366471164919,-10.1277282543502,-6.474218764992994
1.6133735096453896,4.400551100240778,-10.19247044200013,-6.778310467176252
1.6573790206477974,4.581478170044065,-10.260253546671894,-7.110928494757735
1.703193802348238,4.778694934063982,-10.33136283161947,-7.467575696474188
1.7509807516888778,4.981385383521202,-10.406038588584213,-7.835238229084746
1.8007946055240898,5.168580242951854,-10.48439097087506,-8.187188457716914
1.8524804079536084,5.306463436070201,-10.566262855452228,-8.479259345688323
1.9055450423143103,5.352063126909318,-10.651055448909112,-8.654888693012605
1.9590656735834036,5.269304179576751,-10.737604335839238,-8.66717359266672
2.011758715379171,5.052139118738434,-10.824276071765906,-8.510530519616749
2.0622801065665555,4.732175294224552,-10.909381376962074,-8.230697546454554
2.109601859508801,4.358885625278135,-10.99168835242662,-7.896990720132774
2.1531907157615824,3.9738022805146076,-11.070658259627947,-7.566843011168147
2.1929287385667284,3.600562561887143,-11.14632668973963,-7.272631262443971
2.2289343641855996,3.2482891955790962,-11.219053002364069,-7.026812027164514
2.2614172561413906,2.9179204047855594,-11.289321122635714,-6.830859899669211
2.290596460189246,2.6067373418812863,-11.357629721632406,-6.681539426947123
2.316663833608059,2.3107751103233998,-11.424445115901877,-6.574186299564245
2.339771584711293,2.0259141091647987,-11.490186978897519,-6.504152747813027
2.360030725802941,1.748305588497436,-11.555228506375649,-6.467337501708116
2.3775137816879153,1.47449764982512,-11.61990188139273,-6.460307614449603
2.3922587581861663,1.2014400736162683,-11.684504957537227,-6.48025501623376
2.404273158922329,0.9264490401673962,-11.749307507699564,-6.524895283493013
2.413537649324003,0.6471668417721872,-11.814556460534494,-6.592352845627738
2.420009317741725,0.36153097239149135,-11.880479988990771,-6.681048758756204
2.4236246274656397,0.06775794200357743,-11.947290476578333,-6.7895953158563325
2.4243022068856757,-0.2356567070014045,-12.015186429736897,-6.9166972378926035
2.421945639815662,-0.5499224349879034,-12.084353402115823,-7.061057994491324
2.4164464154657828,-0.8759230537309313,-12.154963982060737,-7.22129018736241
