th1 (rad),w1 (rad/s),th2 (rad),w2 (rad/s)
4.775634329298592,0.5440182967524976,2.0683480283508033,1.370339724776378
4.781074512266117,0.6380778319384706,2.082051425598567,1.3707944371219656
4.787455290585502,0.7325775479466203,2.0957593699697865,1.3724642971007655
4.794781066064968,0.8276005434682727,2.1094840129407944,1.3755620142210725
4.8030570714996506,0.9232264645826193,2.123239633083005,1.3803009798091377
4.812289336145477,1.0195311379541578,2.1370426428810965,1.3868945203866123
4.822484647525018,1.1165862215599045,2.1509115880849627,1.39555517019977
4.833650509740617,1.2144588464127593,2.1648671397869603,1.4064939259341895
4.845795098204745,1.31321122579913,2.178932079046302,1.4199194509168167
4.858927210462736,1.4129002114443856,2.19313127355547,1.4360371999646402
4.87305621257718,1.513576778824719,2.2074916455551166,1.4550484396028722
4.888191980365427,1.615285426647146,2.2220421299511455,1.4771491417999125
4.904344834631899,1.7180634784228428,2.2368136213691447,1.50252873283085
4.921525469416127,1.8219402771708624,2.251838908697453,1.5313686825797181
4.939744872187836,1.9269362677161486,2.26715259552325,1.563840923722035
4.9590142348649975,2.033061964885696,2.2827910047604703,1.6001060949869998
4.979344854513855,2.140316810241091,2.2987920657103404,1.6403116082598195
5.000748022616265,2.2486879248703495,2.3151951817929386,1.6845895457951425
5.023234901864969,2.358148771217201,2.33204107725089,1.7330544013716003
5.046816389577141,2.4686577429257857,2.349371621264606,1.7858006878586605
5.071502967006399,2.5801567081397057,2.3672296281431926,1.842900443338469
5.0973045340877965,2.6925695384658517,2.385658632576577,1.9044006784693552
5.124230229472455,2.8058006626694434,2.404702639361271,1.970320818912525
5.1522882360991495,2.9197336908024822,2.4244058475503962,2.040650207950289
5.1814855730071745,3.0342301605020943,2.444812349629899,2.1153457453420477
5.2118278746121955,3.1491284621809843,2.4659658070833195,2.1943297482974526
5.243319159234005,3.264243003277033,2.487909104566294,2.277488128387009
5.2759615892667755,3.379363673126188,2.510683985850164,2.364668983380246
5.309755225998037,3.4942556688924897,2.5343306756839663,2.4556817045108517
5.344697782686962,3.608659738928023,2.558887492729075,2.5502966966938065
5.380784380076243,3.722292892670606,2.5843904596960128,2.648245801095074
5.418007309002949,3.8348496156269585,2.6108729177069634,2.7492234957646695
5.456355805159219,3.9460036142679176,2.63836515266461,2.852888930713423
5.495815841301898,4.0554100991655675,2.6668940419717444,2.9588688291752936
5.536369942293553,4.162708596069986,2.6964827302634973,3.066761257628341
5.577997028254253,4.267526254724671,2.7271503428397805,3.1761402346635736
5.6206722908015,4.369481605097798,2.7589117451864165,3.286561114587909
5.664367106852478,4.468188691497319,2.7917773563322954,3.3975666475958213
5.709048993767452,4.563261497871765,2.8257530228082537,3.5086935864414395
5.75468160874617,4.654318563494171,2.8608399586726683,3.6194796817398998
5.8012247943811115,4.740987677993879,2.897034755490067,3.729470886050045
5.84863467116105,4.822910538865668,2.9343294643505673,3.8382285720816625
5.896863776549707,4.899747253345306,2.972711750071384,3.9453365635660007
5.94586124908316,4.971180569760159,3.012165115707044,4.050407778794926
5.9955730547807615,5.036919730708329,3.052669193494993,4.1530902962666305
6.045942252087845,5.096703851021198,3.0942000964576595,4.25307266845547
6.096909290598057,5.150304736605239,3.136730823142214,4.350088332225676
6.14841233796411,5.197529075067929,3.1802317064644705,4.443918991341491
6.200387628714789,5.238219944670908,3.2246708963778854,4.534396876280944
6.252769828161497,5.272257603885972,3.270014865140695,4.621405817552185
6.305492404200357,5.299559539072153,3.3162289233162165,4.704881099497046
6.358487999591079,5.320079762134741,3.363277734311187,4.784808090929599
6.411688797212426,5.333807363233719,3.411125815220483,4.861219675957661
6.4650268708447625,5.340764335602331,3.4597380119800594,4.934192532327078
6.518434514200786,5.341002700374517,3.5090799373033303,5.003842325257724
6.571844541204531,5.334600969171551,3.5591183605559076,5.070317901924955
6.625190550896247,5.321659991324963,3.609821539575157,5.133794585651167
6.678407150809496,5.302298241359377,3.6611594854316687,5.194466679913377
6.73143013322309,5.276646611153655,3.7131041522308026,5.2525393010723445
6.784196599334626,5.244842780561145,3.765629545241526,5.308219666135027
6.8366450271402375,5.207025250819381,3.818711741902876,5.3617079689441525
6.888715279648431,5.163327137537278,3.8723288215923177,5.413187986230238
6.940348551023804,5.113869835220235,3.9264607014546202,5.462817565439391
6.991487249376006,5.058756684025802,3.981088877109014,5.510719160778738
7.042074816216265,4.998066792526683,4.0361960687168015,5.556970604146354
7.0920554841415315,4.931849198281329,4.091765774758265,5.601596325034541
7.141373976124345,4.860117581133568,4.147781738008611,5.644559269200416
7.1899751519356805,4.782845781804695,4.204227330700615,5.685753810180198
7.237803609753727,4.699964418807019,4.261084868802417,5.724999999592643
7.2848032539417975,4.611358936737972,4.318334868798344,5.76203955876315
7.330916843309177,4.516869453343754,4.375955264385975,5.796534070111764
7.376085537842615,4.4162927937540575,4.433920605087092,5.828065873485457
7.420248465780155,4.309387097920888,4.492201263821947,5.85614219821783
7.463342336759363,4.1958793494034525,4.550762685804125,5.880203050890436
7.505301130253398,4.075476087086065,4.60956471631303,5.899633313913262
7.546055891124258,3.9478774140675674,4.668561049452163,5.913779373245116
7.585534665264934,3.8127942017489165,4.727698843184614,5.92197037015641
7.623662607282423,3.6699681019866386,4.786918546886178,5.923543855198924
7.66036228830229,3.519193638210709,4.846153985438168,5.9178752193125055
7.695554224684397,3.3603412754533526,4.9053327376312925,5.904409812744703
7.729157637438931,3.193380014010468,4.964376835758739,5.882696184254643
7.761091437579036,3.018397770834115,5.023203797601286,5.852418448223165
7.791275415287377,2.835617671989479,5.0817279820835175,5.813425495964754
7.819631592007272,2.6454084374987317,5.1398622370431655,5.76575468894266
7.846085676382259,2.4482873334567703,5.197519783932592,5.709647865464942
7.870568549716827,2.2449146954433767,5.254616262587242,5.645557980060005
7.893017696671261,2.0360797464598273,5.311071842387842,5.57414544535077
7.913378494135859,1.8226782526356735,5.36681329684135,5.496264174726416
7.931605276662216,1.6056833618157806,5.421775938588614,5.412938302820283
7.9476621102803735,1.386111629087103,5.475905321616817,5.325331444375561
7.961523226571244,1.1649866463646414,5.529158636060572,5.234711008788793
7.973173093034891,0.9433028022121209,5.58150574614846,5.1424104282800425
7.982606121057012,0.7219915014343374,5.63292985043126,5.049792153440025
7.9898260360713556,0.5018917233294012,5.68342777196566,4.958213954393739
7.99484495330465,0.2837261820874082,5.733009911509598,4.8690005216737635
7.997682215125524,0.06808367670065937,5.781699916726335,4.783421696928039
7.998363051892531,-0.1445924229283476,5.829534133695616,4.702677989624774
7.996917127663247,-0.35401014059301106,5.876560913591864,4.627893442441109
7.993377026257317,-0.5600302832057552,5.922839848016275,4.560115454571997
7.9877767234252595,-0.7626644621432372,5.9684410025619945,4.50032088511631
7.980150078803827,-0.9620710493908866,6.013444211413158,4.4494276361220955
7.970529368309918,-1.1585503620752486,6.057938487774379,4.408310935601433
7.958943864689165,-1.3525402926099894,6.102021597130394,4.377823673844013
7.945418461763065,-1.5446134945550858,6.145799833868834,4.358820358634658
7.929972326817515,-1.7354771259461517,6.18938803745518,4.352184516211055
7.912617555558053,-1.925976061862678,6.232909882617291,4.358859648521274
7.893357794939426,-2.1171004232599295,6.276498479102504,4.379884137918702
7.872186790706827,-2.3099982194247928,6.320297320481691,4.416430734674425
7.849086808512579,-2.505993830099678,6.364461627828435,4.469851412887655
7.824026870211583,-2.7066128763296042,6.409160141957312,4.541728321451881
7.796960741448287,-2.913613571674651,6.454577425171831,4.633931052053437
7.7678246057315405,-3.1290235532930257,6.500916735692365,4.748679010574604
7.73653437019861,-3.3551787525777903,6.548403525798111,4.888604325210543
7.702982582672832,-3.5947556490950547,6.597289569050217,5.056803464388382
7.667035026181882,-3.8507774199078537,6.6478576036941,5.256850599034785
7.628527251982804,-4.126552503864147,6.700426109684448,5.49271495160636
7.5872617269441625,-4.4254605443532355,6.755353259200512,5.768463309828725
7.54300712150063,-4.750417762995399,6.8130378922988,6.087512480235192
7.495502943870676,-5.102707940639134,6.8739130171011515,6.450991283966304
7.444475864464285,-5.479652458328118,6.938422929940814,6.854471584198859
7.3896793398810035,-5.8704433326004715,7.006967645782803,7.28211394155084
7.3309749065549985,-6.249977452464355,7.0797887851983115,7.69798728477961
7.268475132030355,-6.573267808576436,7.156768658046108,8.03815397760923
7.202742453944591,-6.7792896009327,7.2371501978222,8.215927152453608
7.134949557935264,-6.816216379607087,7.319309469346736,8.157081708970289
7.066787394139193,-6.67968665138493,7.400880286436439,7.853372232381458
6.999990527625344,-6.422035053429886,7.479414008760253,7.375546841470415
6.935770177091045,-6.115406142734462,7.553169477174958,6.822043207992263
6.8746161156637005,-5.813368106048243,7.62138990925488,6.2656616329247905
6.816482434603218,-5.542500462981278,7.684046525584128,5.741952523153696
6.761057429973405,-5.311226174045092,7.7414660508156645,5.261488817357726
6.707945168232954,-5.119228254455668,7.794080938989242,4.822886269995962
6.656752885688397,-4.9629372541626635,7.842309801689201,4.4203610201669585
6.607123513146771,-4.8380467961316125,7.886513411890871,4.047181015923243
6.558743045185455,-4.740492345141798,7.926985222050103,3.697006628167226
6.511338121734037,-4.666749191730747,7.963955288331775,3.3643041721609026
6.46467062981673,-4.613857306369573,7.997598330053384,3.0443935931234436
6.418532056753034,-4.579349382073615,8.028042265984618,2.733371889281023
6.372738562932298,-4.5611536875416565,8.05537598487743,2.428009674544956
6.327127026056882,-4.5574986923722,8.079656081622879,2.1256568670470424
6.28155203913316,-4.566828183856679,8.100912650293349,1.824168245806043
6.2358837572945935,-4.5877286129043675,8.119154332751409,1.521849628544711
6.19000647116555,-4.618868122818542,8.134372829036856,1.2174216883403353
6.143817789937364,-4.65894632516474,8.14654704592026,0.909997157145576
6.097228326685716,-4.706654190455216,8.155647017491715,0.5990668136029691
6.050161784781164,-4.760643889910458,8.161637685627744,0.28448964055093656
6.002555345882059,-4.819508810195428,8.164482582033253,-0.03351729646610807
5.954360257780105,-4.88177413679968,8.164147409068592,-0.35439333718329546
5.905542516412108,-4.94589829557213,8.160603475696758,-0.6772565352986559
5.8560835334563865,-5.010285136351134,8.153830910343771,-1.0009362702994442
5.805980682092875,-5.073306071975333,8.143821547640776,-1.3240173270055746
5.7552476213731225,-5.1333305439951395,8.13058137437072,-1.6448950246796241
5.703914315933171,-5.188762320721583,8.114132424123925,-1.9618393064371373
5.652026692725956,-5.238078422282801,8.094514031059553,-2.2730641880273605
5.599645908503128,-5.27986708159711,8.071783389179279,-2.5767978793383697
5.546847237687157,-5.31286120731701,8.046015410385895,-2.8713484482847225
5.493718625613987,-5.3359643439499616,8.017301925903048,-3.1551601972129886
5.440358982174487,-5.3482670533604,7.985750323930918,-3.4268569201758114
5.386876311640883,-5.349052814105647,7.95148175472916,-3.685269718616287
5.333385783499827,-5.337793750681852,7.914629057542998,-3.9294487950829575
5.280007845993008,-5.314137571522714,7.875334569592168,-4.158660322053342
5.226866470277781,-5.277887871208604,7.833747966371634,-4.372370848439926
5.174087591565695,-5.22898037150212,7.790024257887235,-4.57022260854724
5.121797787850674,-5.167457743608289,7.7443220318017625,-4.75200349428218
5.070123210414591,-5.093445431035209,7.696801996858941,-4.917615389696149
5.019188756104239,-5.0071304665755845,7.64762584296198,-5.067044152646697
4.969117451438484,-4.908744738230651,7.596955401435513,-5.200333886127835
4.920030004056177,-4.798553582067189,7.544952062574234,-5.317567386292175
4.872044468235505,-4.676850017211422,7.491776388711313,-5.418853873641311
4.825275968063391,-4.543954420343611,7.4375878499749,-5.504324366390242
4.779836423859955,-4.400218980310224,7.382544606310997,-5.5741343738947435
4.735834234056853,-4.2460358874417405,7.326803262572049,-5.628472991591235
4.693373875182435,-4.08184790701459,7.270518532656137,-5.667576980670824
4.652555396112289,-3.908159776677216,7.213842762849429,-5.691748031789421
4.613473798345517,-3.725548772670631,7.156925282531534,-5.7013711639085525
4.576218310618811,-3.534672828915085,7.0999115708924485,-5.696932121237503
4.54087158232966,-3.3362747798459393,7.042942249680073,-5.679031723927843
4.507508834531201,-3.1311816316822543,6.986151932440794,-5.648395409823798
4.476197018214378,-2.9202982270222844,6.9296679783425565,-5.605876662468387
4.446994035944155,-2.704595211623448,6.873609211717873,-5.5524536163551925
4.419948083827921,-2.485091778678096,6.818084675554321,-5.489218801363293
4.395097166041141,-2.26283418401038,6.763192487540688,-5.41736265523328
4.372468824201037,-2.038871427773309,6.709018860988355,-5.3381520134576546
4.352080109923303,-1.8142297332764654,6.655637340853779,-5.2529052098231785
4.333937812590539,-1.5898874969563348,6.603108288755546,-5.162965643197456
4.318038937620975,-1.3667522413374549,6.551478632323572,-5.0696756751066605
4.3043714152076005,-1.1456408091061974,6.500781875572505,-4.974352539347991
4.292915007116538,-0.9272636443202005,6.451038350179025,-4.878267616520247
4.283642370673336,-0.712213576951854,6.402255674013823,-4.782630014635268
4.276520234903818,-0.5009591159103561,6.35442937386747,-4.68857496533307
4.271510643744715,-0.2938419069764646,6.307543624214139,-4.5971571480686
4.26857222467495,-0.09107775184962152,6.261572052733453,-4.509348730534489
4.267661447156454,0.10723957879281298,6.216478565428108,-4.4260416829858125
4.268733842944382,0.3011325778847779,6.17221814859825,-4.348053790932334
4.27174516872323,0.490733117771919,6.128737610688927,-4.276137746165867
4.276652499900949,0.6762752309280677,6.085976233227268,-4.210992723874272
4.28341525221023,0.8580882490452334,6.043866305988526,-4.153277934018991
4.291996134700683,1.0365908920398184,6.002333526648336,-4.103627748736668
4.3023620436210805,1.2122867971367854,5.961297249160969,-4.062668136855133
4.314484911592448,1.3857618860882293,5.920670567792418,-4.031034266762979
4.32834253045333,1.5576838885176987,5.880360225124788,-4.0093892563588724
4.343919369338507,1.7288042673939017,5.840266332561199,-3.9984441390217884
4.361207412012446,1.8999627162376496,5.800281891170981,-3.998979157186951
4.380207039174822,2.0720942918408807,5.760292099599111,-4.011866456527146
4.400927982093231,2.2462390654753683,5.720173435033839,-4.038094073858069
4.423390372747985,2.423553838573531,5.679792494295258,-4.0787906815555015
4.44762591113372,2.6053248311607704,5.639004587479703,-4.135249672369772
4.473679159445328,2.792979055763329,5.5976520907560054,-4.208949483844203
4.501608950002961,2.988089880407915,5.555562595917563,-4.301563933361496
4.53148984880704,3.1923682638007236,5.512546956583948,-4.414950642212873
4.563413531445048,3.407623952789305,5.468397450161819,-4.5510954537574895
4.597489770972941,3.6356683647861288,5.422886495624245,-4.711972991801704
4.6338464546208025,3.878109758986913,5.375766765706228,-4.899253673225736
4.672627552210671,4.135958292680959,5.326774228973971,-5.113740849340922
4.713987135137481,4.4089144399391325,5.275636820480561,-5.354359321170364
4.758076279536873,4.6941780358801575,5.222093227268858,-5.616464888065492
4.805018059895675,4.98465970246754,5.165928578388203,-5.889306161185032
4.85486465692035,5.266787628386971,5.107035516776353,-6.152906490345694
4.90753253320422,5.518976956258837,5.045506451872896,-6.375863660518246
4.962722302766808,5.713254422914662,4.981747815267713,-6.517574558812702
5.019854846995955,5.82294618093451,4.916572069679586,-6.5389899720036855
5.0780843088053,5.835315299968889,4.851182169959549,-6.420371379742353
5.136437461804989,5.76021683199268,4.786978456162125,-6.17353927142866
5.194039630124916,5.625587097277671,4.725243063447839,-5.835714113712836
5.250295501097693,5.463524047982436,4.66688592231071,-5.450157406818164
5.304930741577517,5.299151961077033,4.612384348242529,-5.050639633011466
5.357922261188287,5.147608403410339,4.561877951912414,-4.657200935798434
5.409398345222391,5.016094719134587,4.51530594255443,-4.278957584395795
5.459559292413736,4.906948633760239,4.4725163667104715,-3.918337396215593
5.508628778751339,4.819979233994471,4.433332992748316,-3.5743012891375465
5.556828571091284,4.753865998387627,4.3975899798569404,-3.244276512259523
5.60436723107516,4.706895299751271,4.365147214734345,-2.925180549422107
5.651436184072672,4.677310630355954,4.335895409240124,-2.613917911079817
5.698209290376232,4.663457837802912,4.309756230129326,-2.30760028703879
5.744843868754261,4.663827691626491,4.286680227258938,-2.003631243441225
5.791482145670526,4.677049565775806,4.2666439148245265,-1.699729529541601
5.838252641328284,4.701863405805836,4.249646619529111,-1.3939281815901328
5.885271275386342,4.737083349382329,4.23570733771321,-1.0845673203477533
5.932642108880165,4.781559475653008,4.224861664509732,-0.7702886487446419
5.980457703636695,4.834140854366002,4.217158778022286,-0.4500345885722875
6.028799112180355,4.893641587571416,4.212658432136563,-0.1230523461809423
6.077735528056069,4.958810965509584,4.211427908674754,0.21109824815985
6.127323637711164,5.0283087076691215,4.213538891156352,0.5525351121705216
6.177606724787855,5.100686262104378,4.2190642422780575,0.9010449531666336
6.2286135874088995,5.174375133976221,4.228074691809724,1.2560776446189754
6.2803573387486615,5.247683112705381,4.240635468255913,1.6167465504388632
6.332834169875715,5.318799014347703,4.2568029337603015,1.9818370783803703
6.386022160019192,5.3858061404011695,4.276621304544105,2.3498251263698036
6.439880221423204,5.446704106761126,4.300119555807803,2.71890621477214
6.494347262490815,5.4994380879397236,4.3273086179555245,3.087035062026382
6.549341643370212,5.541933953488138,4.358178968575788,3.45197430282256
6.604760982905094,5.572137357635559,4.392698711604014,3.811350141750367
6.66048235648145,5.588054673678866,4.430812213021518,4.162712150956292
6.716362903218238,5.587793789460125,4.472439334531081,4.50359427802185
6.772240841112839,5.569603180493842,4.517475277311299,4.83157446215505
6.827936872917777,5.531908263318584,4.56579102193285,5.144330988164463
6.883255955550963,5.473344658572735,4.617234331814495,5.4396946660230725
6.93798940213669,5.392788493322901,4.671631278474726,5.715696874879695
6.991917287069919,5.289384095677994,4.728788247223522,5.970614212350619
7.044811128026699,5.162569289959017,4.788494389347028,6.20301075184792
7.0964368209262885,5.012097982769907,4.850524496865508,6.411778641020008
7.146557800753987,4.83805893282379,4.914642283275708,6.596177009299587
7.194938390082225,4.640888703186775,4.980604053368705,6.7558680580777954
7.241347277114093,4.4213760449726855,5.048162733949482,6.890948052713497
7.28556103756382,4.180654606007148,5.117072214476617,7.001970041911721
7.327367583623891,3.9201810921949,5.187091914895735,7.089954796149352
7.366569394545841,3.6416969139046986,5.257991462857229,7.156386882593111
7.402986363684888,3.347172848722547,5.32955533168316,7.203194015954779
7.4364580921721135,3.038738109023164,5.401587271842708,7.232709689067186
7.466845473262345,2.718597064329918,5.4739143687333796,7.247621273912428
7.494031443905644,2.3889383473937174,5.546390581472504,7.2509078839635315
7.517920827379582,2.051841849784004,5.618899660312139,7.245773910126167
