th1 (rad),w1 (rad/s),th2 (rad),w2 (rad/s)
5.424023691022915,2.5703877387912932,5.086686790793472,1.9911034582021983
5.449727568410828,2.5961637632174543,5.106597825375494,2.079862296431212
5.475689206043002,2.617700458681565,5.127396448339806,2.1727405362717183
5.501866210629818,2.634924992353829,5.149123853702523,2.2696179733368926
5.528215460553357,2.6477788240639835,5.171820033435893,2.3703426253290316
5.554693248793996,2.6562192412510193,5.195523459689183,2.474730820366529
5.5812554412065065,2.6602212625693036,5.220270767892848,2.582567280600095
5.607857653832199,2.6597799829885487,5.2460964406988495,2.693605094105001
5.634455453662085,2.6549134276280553,5.273032491639899,2.8075654601844025
5.661004587938366,2.6456659732931724,5.301108146241743,2.9241370871610504
5.687461247671298,2.632112385269806,5.330349517113354,3.0429751181854066
5.713782371523996,2.614362501374458,5.360779268295208,3.1636994610619
5.739925996537741,2.5925665738119164,5.392416262905828,3.285892405180185
5.7658516622758595,2.5669212493985665,5.42527518695763,3.409095426268016
5.791520874769845,2.5376761264365855,5.45936614122031,3.5328051133603107
5.816897636034211,2.505140767136415,5.494694192353913,3.6564682092750873
5.841949043705575,2.4696919622278326,5.531258874446664,3.779475844651024
5.866645963327853,2.4317809332098697,5.569053632893174,3.9011571756468717
5.890963772659952,2.3919400124858354,5.608065204649642,4.020772815305735
5.91488317278481,2.350788160614544,5.6482729328026995,4.137508683156172
5.938391054390956,2.309034468168097,5.689648019634261,4.250471183222142
5.961481399072637,2.267478564144773,5.732152731466483,4.358684938600421
5.9841561847140845,2.227006648089397,5.775739580852488,4.461094619640007
6.006426251194979,2.188581736184535,5.820350527048888,4.556572631086553
6.028312068556824,2.1532267433879713,5.865916253359753,4.643934467756646
6.049844335990704,2.1219993108958755,5.91235559803732,4.721963281651107
6.071064329099663,2.0959579216848425,5.959575230853831,4.789444503243816
6.092023908316511,2.076119873447118,6.007469675886269,4.845210156568349
6.112785107050982,2.0634130509102966,6.055921777451952,4.888190850365246
6.133419237560085,2.0586249737476097,6.104803685955605,4.91747154088139
6.154005487297561,2.062353961213958,6.1539784013644185,4.932345460116365
6.174629026909701,2.0749680296842783,6.203301855965583,4.932359618293841
6.195378707206544,2.0965769438918302,6.252625452148521,4.9173455035565015
6.216344476645462,2.12702150439977,6.301798907184087,4.8874302317053315
6.23761469168946,2.165881836032966,6.3506732095011404,4.843026231114304
6.259273510049789,2.2125036468887505,6.399103471812284,4.784800939829803
6.281398546518677,2.266038843637854,6.446951481210582,4.713631071951821
6.304058934955055,2.3254951411403217,6.4940877919301006,4.630548002614379
6.327313886366459,2.389788730295397,6.540393271956244,4.536681328976384
6.351211773669412,2.4577946283209107,6.585760085246008,4.433206776388823
6.375789719952621,2.5283906885261436,6.630092153009897,4.32130279915703
6.401073626837882,2.600492922533359,6.673305181001467,4.202118083584386
6.427078556063216,2.6730813660996677,6.715326361837311,4.076750224503608
6.453809369724213,2.745216934322884,6.756093864082348,3.946234430740402
6.481261539067441,2.816050470669333,6.795556208389752,3.8115403090025533
6.509422043774134,2.88482553586871,6.833671611479778,3.673574504100828
6.538270299132821,2.950876514592951,6.870407356520786,3.533187081110598
6.567779064278751,3.0136234616078212,6.9057392273318925,3.391179857204986
6.597915298894829,3.072564867870718,6.939651025903943,3.2483152930971677
6.628640947573537,3.1272692727949845,6.9721341788349145,3.1053249461698647
6.659913640301487,3.1773664230796177,7.003187428296613,2.9629168203175604
6.691687304532283,3.2225384989576256,7.032816596499789,2.821781202849851
6.7239126895218595,3.2625117977223876,7.061034408528287,2.6825947576416533
6.756537807499083,3.2970491754071594,7.087860356104703,2.546022757881057
6.789508299253155,3.3259434898461806,7.113320583683514,2.412719407801063
6.822767734151617,3.349012250052173,7.137447777761524,2.2833262385208073
6.856257856652138,3.3660936461118425,7.1602810401467325,2.1584685859114745
6.889918793113257,3.377044099815727,7.181865726005848,2.0387501841492863
6.923689234111414,3.381737429738664,7.202253227847341,1.9247459509996185
6.957506608408801,3.380065658456981,7.221500687357337,1.816993110274485
6.991307264993371,3.371941400251443,7.239670618460082,1.7159808988888052
7.025026678995886,3.3573016557035107,7.2568304274489694,1.6221392394086565
7.058599695552921,3.3361127114388256,7.273051819843056,1.535826914418999
7.09196082266731,3.3083757116641617,7.288410088987246,1.457319937612159
7.1250445797839514,3.274132351715371,7.302983288363367,1.3868009509553738
7.1577859033011055,3.23347006488398,7.316851297872921,1.32435055536878
7.1901206039499455,3.1865260541977416,7.330094803426609,1.2699414728950573
7.221985864491923,3.1334895766046085,7.342794218155559,1.223436319397809
7.253320760257969,3.074602022786502,7.355028581349537,1.1845895335712815
7.284066780485834,3.0101545411593946,7.3668744766852505,1.1530536780389873
7.314168325897429,2.940483203782546,7.37840501346564,1.128389941439434
7.343573157935254,2.8659619680841057,7.389688912880034,1.1100822823663903
7.372232777616095,2.786993911403548,7.4007897357036985,1.0975543266543895
7.400102716730131,2.70400137121098,7.411765278970242,1.0901879088961592
7.427142730442241,2.6174156921013623,7.422667158059204,1.0873420662222988
7.453316887363254,2.5276672585135276,7.433540578721427,1.0883713495447904
7.478593559948389,2.4351763934221746,7.444424292216875,1.0926424920038074
7.502945323882611,2.340345553307986,7.4553507171369136,1.0995487264875536
7.526348779415691,2.2435530781858395,7.466346204401789,1.1085213277257604
7.548784310197549,2.1451485895918556,7.477431417679047,1.119038227410513
7.570235796093468,2.0454499893201197,7.488621799953152,1.1306297818662208
7.590690295986669,1.944741908480572,7.499928097771814,1.142881943616904
7.610137715071475,1.8432753927944066,7.5113569172079835,1.1554371964556893
7.628570468999419,1.741268582279356,7.522911289172541,1.1679936638372541
7.645983154822212,1.6389081442264068,7.534591225810913,1.1803028039598926
7.662372236264476,1.5363512389554572,7.5463942538505115,1.1921660753067957
7.6777357486540305,1.4337278300406568,7.55831591460358,1.2034309066405484
7.6920730269544375,1.331143187761555,7.570350223669985,1.2139862462999214
7.705384458832053,1.2286804715445534,7.582490086132984,1.2237579051638012
7.717671263547499,1.1264033109608163,7.594727665184622,1.232703851127683
7.728935296657107,1.024358333755973,7.607054703695899,1.2408095633940128
7.739178879994666,0.9225776127919285,7.619462799329839,1.2480835136019843
7.748404656122585,0.8210810217683788,7.631943634465859,1.2545528079586414
7.7566154663402695,0.7198785026345673,7.644489162545446,1.2602589995542992
7.7638142513666155,0.6189722563289063,7.657091752540989,1.2652540621172412
7.770003973929905,0.5183588735229471,7.669744293162162,1.2695965046948654
7.775187562665134,0.41803142392998927,7.682440258209111,1.2733476003503603
7.779367876904434,0.31798152186029843,7.695173734212614,1.2765677003275064
7.782547692123037,0.21820138230678215,7.7079394112158885,1.2793126078632069
7.784729705946105,0.11868587603532851,7.720732537294521,1.2816299927147607
7.785916564706458,0.0194345839461815,7.733548837221669,1.2835558384582264
7.786110910545919,-0.07954615965429154,7.746384395606251,1.2851109297079537
7.785315448949376,-0.17824125825080275,7.75923550490333,1.2862974055508825
7.783533036366868,-0.27662491739344397,7.7720984789588385,1.2870954284178555
7.780766787192934,-0.3746588376342042,7.784969433243017,1.2874600436686625
7.777020198816592,-0.4722906095567456,7.797844033679703,1.2873183330901825
7.772297292721024,-0.5694524016193172,7.8107172170106045,1.2865669932467756
7.766602768704831,-0.6660600462015045,7.823582886943072,1.285070494194857
7.759942168242816,-0.76201263860232,7.8364335918850205,1.2826599915459667
7.752322041856792,-0.8571927645935944,7.8492601918004805,1.2791331705416662
7.743750114210856,-0.9514674611557178,7.862051523505897,1.2742551897124654
7.734235439599299,-1.044689989304954,7.874794075403022,1.2677608593791936
7.723788539706249,-1.1367024557572538,7.887471683996814,1.2593581339021125
7.712421515148677,-1.2273392619335792,7.900065265335836,1.2487329162783625
7.700148122529341,-1.316431287713344,7.912552594498619,1.23555507356543
7.686983809652207,-1.403810639836719,7.924908145234273,1.219485450464343
7.67294570325384,-1.4893157203473573,7.937102999738916,1.2001835593729686
7.658052546050367,-1.5727963101790914,7.949104835332646,1.177315534271982
7.642324582948576,-1.6541183280238962,7.960877990675366,1.1505618789949743
7.625783399668337,-1.7331679235347683,7.972383609465315,1.119624530507052
7.608451720432989,-1.8098546004586629,7.983579854770386,1.0842328009221138
7.590353174428403,-1.8841131369562925,7.994422182779607,1.0441478555393795
7.571512043058839,-1.9559041683730496,8.004863661335001,0.9991655166633922
7.551953001375109,-2.025213408576593,8.014855316501635,0.9491173359758269
7.531700867289343,-2.092049594192897,8.024346489861394,0.8938700302022811
7.510780371347415,-2.1564413273911645,8.033285190163417,0.8333235055300807
7.489215958073503,-2.218433056977545,8.041618425218717,0.7674077906521957
7.467031627503728,-2.278080469670804,8.049292503125239,0.6960792489169817
7.444250822807019,-2.3354455644209526,8.05625329561441,0.6193164471648392
7.420896367162809,-2.3905916579090722,8.062446460086058,0.5371160291395098
7.3969904505837185,-2.443578527042386,8.067817620377452,0.44948888548614896
7.372554665313294,-2.4944578431582336,8.072312509232313,0.35645684209071826
7.347610086881712,-2.5432690006956706,8.075877077653221,0.2580500146086798
7.322177396874755,-2.5900353962993385,8.078457577799307,0.15430490771930655
7.296277042911762,-2.6347611764355716,8.080000626876501,0.04526327814047591
7.269929431147406,-2.6774284442525396,8.080453259657906,-0.06902826689980017
7.243155146704881,-2.717994899556296,8.079762976988908,-0.188517999129673
7.215975197709318,-2.756391878232101,8.077877796997612,-0.313148214300415
7.1884112789269965,-2.7925227574390536,8.074746314854607,-0.4428538961750784
7.160486051352606,-2.826261698468622,8.070317775892857,-0.5775610122291599
7.13222343436792,-2.857452708374013,8.064542165770565,-0.717184559365585
7.10364890728418,-2.885909012649183,8.05737032017691,-0.8616264813130747
7.074789817157688,-2.9114127429276553,8.048754055363778,-1.0107735818919805
7.045675689728411,-2.9337149546987633,8.038646319544858,-1.1644955607608787
7.016338540181423,-2.9525359994312557,8.027001363937249,-1.3226433008831242
6.986813180187111,-2.967566282444479,8.013774930928417,-1.4850475396454883
6.957137517362666,-2.978467441692601,7.998924455531962,-1.6515180578607003
6.92735284294574,-2.984873982745445,7.982409274953355,-1.8218435220852474
6.897504103118285,-2.986395401177911,7.9641908397325025,-1.995792114912611
6.8676401491065056,-2.982618814957833,7.944232918583376,-2.1731130842079884
6.837813960956927,-2.973112116055691,7.922501787741296,-2.353539334680326
6.80808283979637,-2.9574276324286553,7.898966394394493,-2.536791172865019
6.778508563472084,-2.93510626911511,7.873598482665843,-2.722581298786522
6.749157500780933,-2.9056820711946902,7.846372669677978,-2.9106211137533142
6.7201006800689855,-2.8686871231437627,7.817266458540445,-3.100628383591764
6.691413808837548,-2.823656670644342,7.786260174704527,-3.2923362600037476
6.663177242131105,-2.7701343250235393,7.753336812104489,-3.485503619514037
6.635475898880869,-2.7076771911014355,7.718481775909349,-3.6799266292619475
6.6083991269698545,-2.6358607515531567,7.68168250961673,-3.875451390482542
6.582040519454323,-2.554283352011827,7.642927995711904,-4.0719874410105845
6.556497685934205,-2.462570170694621,7.602208121301798,-4.26952181149378
6.531871984227259,-2.360376637790868,7.55951290318686,-4.4681332148267465
6.50826821784935,-2.247391412562649,7.5148315710385925,-4.668005784390658
6.485794303723724,-2.123339258671144,7.468151513194686,-4.869441529616258
6.464560911137013,-1.9879845238300697,7.4194570978985235,-5.072870290477912
6.4446810658987115,-1.8411364944524236,7.368728394993744,-5.278855354524931
6.426269700954188,-1.6826587602105636,7.315939841448495,-5.488091907396866
6.409443113352082,-1.5124860388684767,7.261058922374526,-5.701393900462156
6.394318252963397,-1.3306538982571343,7.204044983369905,-5.919662412923416
6.381011713980826,-1.1373497666999965,7.144848359240671,-6.143824713084215
6.369638216313826,-0.9329978868423475,7.083410112109829,-6.374727446363682
6.360308237445402,-0.7183966695649351,7.019662837646192,-6.612959261793506
6.353124270749753,-0.49493388632929125,6.9535332450282565,-6.858568024221501
6.34817493188646,-0.2649111667298216,6.884947564786041,-7.110628155367374
6.345525820219161,-0.03200788394651613,6.813841283232367,-7.366613017982479
6.345205741379696,0.1981095175494003,6.740175153052543,-7.621556009295232
6.34718683655519,0.41710211926264235,6.663959592959591,-7.867081408613926
6.351357857747817,0.6134308326748842,6.585288778873451,-8.090604510067593
6.357492166074565,0.7724788935612762,6.5043827337727755,-8.27535065182274
6.365216955010178,0.8780318249181227,6.421629227254548,-8.402141269104394
6.373997273259359,0.9155925933517503,6.337607814563504,-8.453601166735345
6.3831531991928765,0.8768921879948839,6.253071802896151,-8.419952166230445
6.391922121072826,0.7633644456847205,6.168872281233846,-8.303435474685983
6.399555765529673,0.5860953496267034,6.085837926486986,-8.11809049344625
6.40541671902594,0.3620164690350399,6.004657021552524,-7.884673461972557
6.40903688371629,0.10884111780761363,5.925810286932799,-7.624103002166637
6.410125294894366,-0.15852504608851303,5.849569256911132,-7.35301313350917
6.40854004443348,-0.4292519494186769,5.77603912557604,-7.0824095880813145
6.404247524939294,-0.6962478101575079,5.705215029695227,-6.818377301312033
6.397285046837719,-0.9552145136842134,5.637031256682106,-6.563488144653014
6.387732901700876,-1.2037078389353257,5.571396375235576,-6.318119266295894
6.375695823311523,-1.440422167584339,5.508215182572617,-6.081424829261186
6.3612916016356795,-1.6647130802670065,5.447400934280005,-5.8519699088156125
6.34464447083301,-1.8763034246208692,5.38888123519185,-5.6281142423492385
6.325881436586801,-2.075113254349865,5.332600092768357,-5.4082320771335075
6.305130304043303,-2.2611676151542985,5.278517771997022,-5.190831411680233
6.2825186278917595,-2.4345509981186924,5.22660945788022,-4.974613728885735
6.258173117910572,-2.595388608953673,5.176863320591362,-4.758499230023752
6.232219231821036,-2.7438422046764575,5.129278328291125,-4.541632207209869
6.204780809774271,-2.8801130672545234,5.083862006219026,-4.323374910349512
6.175979679101726,-3.0044476637034867,5.0406282571155305,-4.103294612118712
6.145935202464691,-3.117143377612293,4.999595310994343,-3.8811465231868105
6.114763768688568,-3.21855283867948,4.960783845762475,-3.656854101613665
6.082578240301773,-3.3090861003486016,4.924215304746339,-3.4304877319547877
6.049487379298287,-3.3892103839141012,4.88991042742679,-3.202242479212495
6.015595275459146,-3.459447414563095,4.857888002634666,-2.9724155070221054
5.981000801313516,-3.520368574343385,4.828163847564444,-2.7413837045848286
5.945797115570082,-3.5725882197320638,4.8007500105185965,-2.5095820453547613
5.910071233372761,-3.6167555756190692,4.775654190065049,-2.277483177300882
5.87390367761657,-3.653545635021139,4.752879358292041,-2.0455787087607598
5.837368221266359,-3.683649473532134,4.732423571204433,-1.8143626034797837
5.800531726531037,-3.707764336800894,4.714279945169635,-1.5843170369188835
5.763454083163029,-3.726583784859413,4.698436774800446,-1.3559010000162284
5.726188245314435,-3.7407880849263533,4.684877764800284,-1.1295418744599584
5.688780364465171,-3.751034939664054,4.673582346055684,-0.9056301534921104
5.651270015068531,-3.7579505251666747,4.6645260445207635,-0.6845174518067239
5.613690509816864,-3.762120695725215,4.657680870002697,-0.46651794302541416
5.576069302859612,-3.7640820936343404,4.653015690572443,-0.25191338673613545
5.538428481923269,-3.7643127852717084,4.6504965567050816,-0.04096195853825152
5.500785354070552,-3.763221934638033,4.650086937119699,0.16608883051123083
5.4631531347241715,-3.7611379324739214,4.6517478254248115,0.3689847598611946
5.425541755399433,-3.758294342070814,4.655437673023424,0.5674426513074681
5.3879588119787245,-3.7548130366491264,4.661112099536498,0.7611228504788786
5.350410681612233,-3.7506840465517954,4.668723328041287,0.9495962300075762
5.312903841146715,-3.745742000158526,4.678219290341363,1.1323059937590159
5.27544642114513,-3.7396397632832596,4.689542350278953,1.3085255368946276
5.238050023512297,-3.7318211241283024,4.7026276056478995,1.477315313177787
5.200731812271014,-3.721496293813891,4.717400758779678,1.6374842983680382
5.163516849332876,-3.7076266427580222,4.733775601763358,1.7875652737743162
5.126440582905295,-3.6889282012769984,4.751651254501101,1.9258173954746955
5.089551300892525,-3.663906134557705,4.770909428455848,2.0502731052223133
5.052912239546949,-3.6309328878397307,4.791412159508071,2.1588468823988944
5.016602910668551,-3.5883784320250913,4.81300062833206,2.2495170520055807
4.9807191263483,-3.5347896951620315,4.835495798852116,2.3205756298942983
4.94537122939668,-3.4690979758253415,4.858701555151059,2.370915297029923
4.9106802496384265,-3.390813086608744,4.882410708121358,2.4002944869657874
4.876772118772339,-3.300151669906333,4.906413652991016,2.409506131229805
4.843770602073276,-3.1980554111281285,4.930508714303314,2.4003880805108304
4.811790047961995,-3.086084941769382,4.954512595108422,2.375656473784103
4.7809291985443005,-2.966215178610205,4.978269159846263,2.3386002526650764
4.7512670467581986,-2.840587514839429,5.001655162372914,2.292716911493982
4.722861171609805,-2.711279455113771,5.024582331487854,2.2413763780889875
4.695748377058667,-2.5801343687573626,5.046996095268743,2.187573838616102
4.669947033371093,-2.448666490971156,5.068871833654904,2.1337926712916646
4.645460368461381,-2.318033271525389,5.090209760367821,2.0819656200927232
4.622280035746128,-2.1890553781292303,5.111029416568748,2.033505476655088
4.600389481964836,-2.0622631659563835,5.131364471335298,1.9893744561777507
4.579766850305272,-1.937952775258409,5.151258215897076,1.950167761000758
4.560387322552688,-1.8162410200815087,5.170759893507083,1.9161955055064483
4.542224912351873,-1.6971134503050227,5.189921848562148,1.8875547351466968
4.525253777848823,-1.5804635834913248,5.2087973959136145,1.8641885237914917
4.50944914201391,-1.4661234026574705,5.227439281151529,1.8459322015236745
4.494787907987336,-1.3538862173668618,5.245898603166766,1.8325482443823309
4.481249045813667,-1.2435233123006673,5.264224085610589,1.823751856728095
4.46881381269066,-1.1347957768250807,5.28246160417787,1.819229252774355
4.457465854922408,-1.0274627220115728,5.300653896705613,1.818650387268503
4.447191227702293,-0.9212868603244293,5.318840400578298,1.8216775597432633
4.4379783590990485,-0.816038202675089,5.337057176175731,1.8279710029641931
4.429817977072298,-0.711496439689607,5.3553368862053725,1.8371922971462937
4.4227030126754014,-0.607452423687274,5.3737088091768355,1.8490062352105385
4.416628488438529,-0.5037090520840265,5.392198871528941,1.863081597293044
4.411591397917689,-0.4000817659751563,5.410829687501871,1.8790911671296255
4.407590580257937,-0.29639881341147384,5.429620599173167,1.8967112303357874
4.404626592123822,-0.19250137991786984,5.448587711476525,1.9156207273384869
4.402701578324644,-0.0882436546539332,5.4677439187499095,1.9355001854773712
4.4018191417781045,0.016507124197186238,5.487098920604684,1.9560305206186108
4.401984213020077,0.12187061933702757,5.5066592258108695,1.976891774730918
4.403202919213447,0.2279533274442554,5.526428143558179,1.9977618394278784
