th1 (rad),w1 (rad/s),th2 (rad),w2 (rad/s),a1 (rad/s^2),a2 (rad/s^2)
4.980982484015269,1.4431214356391573,2.851789407455836,0.4146546380505689,10.587821962897024,4.575495874607744
4.99541369837166,1.5489996552681276,2.8559359538363416,0.46040959679664634,10.668587962703473,5.005507806407572
5.010903694924341,1.6556855348951622,2.860540049804308,0.5104646748607221,10.754075048133064,5.465040556553786
5.027460550273292,1.7632262853764928,2.8656446965529154,0.56511508042626,10.843722520513209,5.9537104277364925
5.045092813127058,1.8716635105816248,2.871295847357178,0.6246521847036249,10.936805553855843,6.470976120766477
5.063809448232874,1.9810315661201832,2.8775423692042144,0.6893619459112897,11.032411065847464,7.016107217466611
5.083619763894076,2.0913556767786576,2.884435988663327,0.7595230180859558,11.129413056420768,7.588150178586577
5.104533320661862,2.2026498073428655,2.8920312188441866,0.8354045198718216,11.226447949175908,8.185892402066584
5.126559818735291,2.3149142868346244,2.900385264042905,0.9172634438924875,11.32189061071089,8.80782512494983
5.149708961603638,2.428133192941733,2.9095578984818298,1.0053416951419858,11.413831870280621,9.452106214603559
5.1739902935330555,2.5422715116445396,2.9196113154332495,1.0998627572880213,11.500058508059835,10.116524169891187
5.1994130086495005,2.657272096725138,2.9306099430061296,1.2010279989869332,11.57803681203106,10.798464922875342
5.225985729616752,2.7730524648454487,2.942620222995999,1.3090126482156867,11.644900904976243,11.494883272396146
5.253716254265206,2.889501473895211,2.9557103494781556,1.4239614809396481,11.697447094929117,12.20228096197951
5.282611269004158,3.006475944844502,2.969949964287552,1.5459842905594432,11.732135483492753,12.916693500254423
5.312676028452603,3.12379729967943,2.9854098071931467,1.6751512255619874,11.74509995542861,13.633687773833644
5.343914001449397,3.241248299233716,3.0021613194487666,1.8114881033003238,11.732167451628799,14.348372283028917
5.376326484441734,3.3585699737500043,3.02027620048177,1.954971826130613,11.688887084495097,15.055421409174777
5.409912184179235,3.4754588445949555,3.039825918743076,2.105526040222361,11.610569189499971,15.749114481800294
5.444666772625184,3.591564536489955,3.0608811791452997,2.2630171850403635,11.49233383450723,16.42338955894323
5.4805824179900835,3.7064878748350276,3.0835113509957033,2.4272510806297958,11.329167663798296,17.07191079790883
5.517647296738434,3.8197795514730104,3.1077838618020013,2.597970188608884,11.115987292555227,17.688147144516737
5.555845092253164,3.9309394243985625,3.13376356368809,2.7748516600540514,10.847706866370064,18.26545891065792
5.595154486497149,4.039416493062263,3.1615120802886305,2.9575062491606308,10.519306952275297,18.79718778065536
5.635548651427772,4.144609562585016,3.191087142780237,3.1454781269671845,10.125901734281125,19.276745048766173
5.676994747053622,4.245868579927827,3.2225419240499087,3.3382455774548463,9.662801645382755,19.697692614369277
5.719453432852901,4.342496596381655,3.255924379824457,3.535222503598539,9.125569159149686,20.05381160712912
5.762878398816717,4.433752287973152,3.2912766048604425,3.73576061966983,8.510066532883927,20.33915460465084
5.807215921696448,4.518852953301991,3.3286342110571407,3.9391521657163384,7.812495837209798,20.54807930196857
5.852404451229468,4.596977911674089,3.368025732714304,4.144632958736024,7.029433558281854,20.67526417516496
5.898374230346209,4.667272247256908,3.4094720623016643,4.351385600487674,6.157864282494878,20.71571003097388
5.945046952818778,4.728850890081857,3.452985918306541,4.558542700797413,5.19522025873559,20.664735121980215
5.9923354617195965,4.780803092669212,3.4985713453145153,4.765190052017215,4.1394356939824375,20.51797539258932
6.040143492646289,4.822197449609037,3.5462232458346876,4.9703698059431085,2.9890261178462234,20.27140495470737
6.0883654671423795,4.852087710787499,3.595926943894119,5.173083855490182,1.743203632944574,19.92139452427742
6.136886344250255,4.869519747116945,3.647657782449021,5.372297800732956,0.4020378919319956,19.464826648595157
6.185581541721424,4.873540126036264,3.7013807604563502,5.5669460672189075,-1.0333302548726562,18.89928544046154
6.234316942981787,4.863206823487538,3.7570502211285395,5.755938921623523,-2.5604207183254957,18.223334545997094
6.282949011216662,4.837602616304283,3.8146096103447746,5.938172267083494,-4.175097798004746,17.43688967042569
6.331325037379704,4.795851638324235,3.8739913330156095,6.112541163787751,-5.871221820516958,16.541680921899562
6.379283553762947,4.737139420119066,3.935116744653487,6.277957973006746,-7.640297346755988,15.541785767684749
6.4266549479641375,4.660736446651506,3.9978963243835546,6.433375830683594,-9.471159435105044,14.444196543162509
6.473262312430653,4.566024852300456,4.06223008269039,6.577817796115219,-11.349751093257854,13.25936918080455
6.518922560953658,4.452527341367877,4.1280082606515425,6.710411487923264,-13.25905270442822,12.00168510908288
6.563447834367336,4.3199368143235946,4.195112375530775,6.830428339014093,-15.179224774339826,10.689749864989917
6.6066472025105725,4.168144566580196,4.263416658920916,6.937325837663992,-17.08801596972497,9.34645379442294
6.648328648176374,3.9972644068829464,4.332789917297556,7.0307903756082215,-18.961467443810065,7.9987353883426655
6.688301292245203,3.8076497324448457,4.403097821053638,7.110777729491648,-20.774912389563255,6.677017399682255
6.726377789569652,3.599900608549213,4.474205598348555,7.17754790348847,-22.504230059239234,5.414327900063384
6.762376795655144,3.3748583079568206,4.5459810773834395,7.231691182489104,-24.127272520076097,4.245167338844551
6.796125378734712,3.1335855827560595,4.6182979892083305,7.27414285587755,-25.6253485583874,3.2042300211744994
6.827461234562272,2.8773320971721854,4.691039417767106,7.3061851560892945,-26.984630854441207,2.325124646298589
6.8562345555339945,2.6074857886277734,4.764101269327999,7.329436402552281,-28.1973559493077,1.6392554872173717
6.8823094134202725,2.3255122291346964,4.8373956333535215,7.345828957424454,-29.262713302502682,1.1750192721659274
6.905564535711619,2.0328850961096694,4.910853922927766,7.357579150146114,-30.18736623446323,0.9574442216812437
6.9258933866727155,1.731011433765037,4.984429714429226,7.367153592362926,-30.985605477107935,1.0083538157829675
6.943203501010366,1.4211553789939577,5.0581012503528555,7.377237130520755,-31.67919470298354,1.3470890993093598
6.957415054800306,1.1043634319641222,5.131873621658063,7.3907080215138485,-32.29701643481767,1.9917806044494082
6.968458689119947,0.7813932676159455,5.205780701873202,7.410625827558342,-32.874658480670114,2.9611324698923407
6.976272621796106,0.45264668280924436,5.279886960148786,7.440237152257266,-33.45409116551689,4.276669699488843
6.980799088624199,0.11810577115407545,5.3542893316713585,7.483003849252155,-34.08357145990795,5.965399271458504
6.981980146335739,-0.22272994344500407,5.42911937016388,7.54265784196674,-34.81786579024128,8.062829611835943
6.979752846901289,-0.5709086013474169,5.504545948583547,7.623286138085099,-35.71879013877422,10.616242523497947
6.974043760887815,-0.9280965027351591,5.580778809964398,7.729448563320078,-36.855873105705065,13.687935480637275
6.964762795860463,-1.2966552337922097,5.658073295597599,7.866327918126451,-38.30653098629526,17.357671867649632
6.9517962435225416,-1.6797205436551623,5.736736574778863,8.039904636802948,-40.15421695085865,21.72239327877859
6.93499903808599,-2.0812627131637487,5.8171356211468925,8.257128569590733,-42.480923110186104,26.888465637092747
6.914186410954352,-2.5060719442656096,5.8997069068428,8.52601322596166,-45.34576186248975,32.94537866458268
6.889125691511696,-2.9595295628905074,5.984967039102417,8.855467012607487,-48.731245801603635,39.89583120094354
6.859530395882791,-3.446842020906544,6.073521709228491,9.254425324616923,-52.418474224539146,47.48856996246774
6.825061975673726,-3.971026763151935,6.1660659624746605,9.7293110242416,-55.71886759053818,54.85265663210631
6.7853517080422066,-4.528215439057317,6.263359072717076,10.277837590562664,-56.97106734395724,59.80219716250063
6.740069553651633,-5.097926112496889,6.366137448622703,10.87585956218767,-52.87906993102789,57.906205614746746
6.689090292526664,-5.626716811807168,6.47489604424458,11.454921618335138,-38.63581050083043,42.61526860678502
6.632823124408593,-6.013074916815473,6.589445260427931,11.881074304402988,-11.428513978051795,10.03103969454381
6.572692375240438,-6.1273600565959905,6.708256003471961,11.981384701348427,22.42788052113893,-31.3375859269218
6.511418774674478,-5.903081251384601,6.828069850485445,11.668008842079209,48.40316734422948,-61.92693074779833
6.452387962160632,-5.419049577942307,6.944749938906237,11.048739534601225,58.80355498386536,-71.72105658646748
6.398197466381209,-4.831014028103653,7.055237334252249,10.33152896873655,58.00629016072521,-67.0208501850662
6.3498873261001725,-4.2509511264964015,7.158552623939615,9.661320466885888,52.80399645987914,-57.05517134384484
6.307377814835209,-3.72291116189761,7.255165828608474,9.09076875344744,46.96010527019427,-46.75129478024033
6.270148703216233,-3.253310109195667,7.3460735161429485,8.623255805645037,41.807369718644075,-37.73224032434633
6.237615602124276,-2.8352364120092264,7.432306074199399,8.245933402401574,37.62069698599734,-30.23638069286789
6.2092632380041834,-2.459029442149253,7.514765408223415,7.943569595472895,34.32657248195924,-24.0770265117206
6.184672943582691,-2.1157637173296604,7.594201104178143,7.702799330355689,31.77016262712641,-18.99088259379208
6.163515306409394,-1.7980620910583962,7.6712290974817,7.5128905044177685,29.800270345347528,-14.742029092831714
6.14553468549881,-1.5000593876049209,7.746358002525878,7.365470213489451,28.29029651650252,-11.143117843077748
6.130534091622761,-1.2171564224398956,7.820012704660773,7.254039035058674,27.138942594897145,-8.05203915329385
6.118362527398362,-0.9457669964909241,7.892553095011359,7.173518643525735,26.265595568490724,-5.36323520474013
6.108904857433452,-0.6831110408060168,7.964288281446617,7.119886291478334,25.60516060844051,-2.9993756003241847
6.102073747025392,-0.42705943472161173,8.0354871443614,7.089892535475093,25.10365899835233,-0.9047073102351655
6.097803152678176,-0.17602284473808844,8.106386069716152,7.080845462372741,24.714801360879108,0.9599434046845919
6.096042924230795,0.07112516887070264,8.177194524339878,7.090444896419587,24.397435330583072,2.6208680877712767
6.096754175919502,0.31509952217653336,8.248098973304074,7.1166535772973,24.113716404249057,4.094242550048462
6.099905171141267,0.556236686219024,8.319265509077047,7.157596002797785,23.827875796108998,5.388272552352779
6.105467538003457,0.794515444180114,8.390841469105025,7.211478728321313,23.505497013011272,6.504958391051004
6.113412692445258,1.0295704143102267,8.462956256388239,7.276528312231823,23.113242964567505,7.441655108825035
6.12370839658836,1.2607028439559018,8.535721539510558,7.350944863320073,22.618991390442815,8.192549413924517
6.136315425027919,1.48689275786033,8.609230988143759,7.4328703574593185,21.99233678910949,8.750122346366346
6.151184352606522,1.7068161257514247,8.683559691718353,7.520371580922982,21.205402828865353,9.106615554799378
6.1682525138640365,1.9188701540400783,8.758763407527583,7.611437736470975,20.23388370883112,9.255469156371152
6.187441215404437,2.1212089911283893,8.834877784892294,7.703992428034687,19.05820230437178,9.192654973848992
6.208653305315721,2.311791014172107,8.911917709172641,7.795918977773177,17.664646328799716,8.917798595273824
6.231771215457442,2.488437477460104,8.989876898950373,7.885096963725916,16.046332064426995,8.434977035644316
6.256655590232043,2.648900798104374,9.068727868587631,7.969446734082359,14.203858220100063,7.753103680390816
6.283144598213087,2.7909393803053746,9.148422335928455,8.046977770886267,12.145554680925171,6.885869805035575
6.311053992016141,2.9123949271146263,9.228892113637318,8.115836468936623,9.887297752668442,5.85129271693091
6.340177941287287,3.011267904641311,9.310050478326685,8.174349396105931,7.451939886867828,4.671003439293991
6.3702906203337,3.085787303509989,9.391793972287745,8.22105943049887,4.8684651834359025,3.369463907566696
6.401148493368799,3.134471955344348,9.474004566592734,8.254754069574538,2.1710096070323455,1.9733094896515593
6.4324932129222425,3.1561820514146715,9.55655210728848,8.274487164471054,-0.6021359727237194,0.5109557652744722
6.464055033436389,3.150160691687434,9.63929697893319,8.279596722123799,-3.4094864763277695,-0.9875008085163465
6.495556640353263,3.1160658269241566,9.722092946154428,8.269721714038635,-6.207318956052973,-2.4901885002664037
6.526717298622505,3.053992637363627,9.804790163294815,8.24481982903597,-8.95072794175929,-3.9633784639690766
6.557257224996142,2.964485357946034,9.887238361585174,8.20518604439628,-11.594907830356933,-5.371663754367478
6.586902078575602,2.8485362796424645,9.969290222029137,8.151469406852605,-14.096751035314812,-6.678604398931878
6.615387441372027,2.7075687692893164,10.050804916097663,8.084683362863286,-16.416754209418034,-7.847923341796799
6.64246312906492,2.5434012271951363,10.131651749726295,8.006204129445319,-18.521101592697363,-8.845175702430936
6.667897141336871,2.3581902112681625,10.211713791020749,7.91775237242101,-20.383687420809856,-9.639660340967222
6.691479043449553,2.154353337060064,10.29089131474496,7.821355769011338,-21.987787919533968,-10.206246599998002
6.713022576820153,1.934475457864724,10.369104872435072,7.719293303011358,-23.32711859549527,-10.526778962527112
6.7323673313988,1.7012042719097713,10.446297805465186,7.614025513386086,-24.406108835636143,-10.590797770662963
6.749379374117898,1.4571431835534099,10.522438060599047,7.508117535679457,-25.239364500550174,-10.395447663613496
6.7639508059534315,1.2047495385479081,10.597519235955842,7.404163059043322,-25.850430259111874,-9.944594727939027
6.775998301338911,0.9462452359567894,10.671560866546274,7.304717111763932,-26.270070739108267,-9.247297451416364
6.785460753698478,0.6835445285657068,10.744608037663914,7.212244137249768,-26.534342338938472,-8.315848600498052
6.792296198984135,0.4182011051763221,10.816730479036412,7.129085651244788,-26.68272402197755,-7.163617791593868
6.7964782100358985,0.1513738649565466,10.88802133554886,7.057449473328849,-26.756529223615196,-5.802887325439848
6.797991948685464,-0.11619142727960535,10.958595830282148,6.99942060007445,-26.79775323051601,-4.242805624495337
6.796830034412668,-0.3841689595847655,11.028590036282893,6.956992543829497,-26.848441609010575,-2.48750329834067
6.792988344816821,-0.6526533756748713,11.098159961721187,6.93211751084609,-26.950610202223494,-0.5343418390325403
6.786461811060072,-0.9221594776971063,11.167481136829648,6.926774092455764,-27.146712828472676,1.627796982690362
6.777240216283101,-1.193626605981833,11.236748877754206,6.943052062282668,-27.480638588257097,4.020318205400113
6.765303950223283,-1.468432991864404,11.306179398377033,6.983255244336669,-27.999219353485408,6.676980524264665
6.750619620304638,-1.748425185399258,11.3760119508204,7.0500250495793155,-28.75422410261601,9.646384340842186
6.733135368450646,-2.035967426425418,11.446512201316194,7.146488892987738,-29.80477940204963,12.99498377220419
6.712775694186392,-2.3340152204459144,11.517977090246072,7.2764387307097795,-31.220018005317847,16.810530732207226
6.689435541981933,-2.6462154004990928,11.59074147755317,7.444544038031852,-33.08136806538859,21.205329584423133
6.662973387976942,-2.9770290811529785,11.665186917933488,7.656597333876083,-35.4828959990421,26.317331091831935
6.633203097165413,-3.3318580411433993,11.741752891272249,7.9197706447944025,-38.52565992068932,32.30375822791796
6.599884516753979,-3.7171146403502924,11.820950597720193,8.242808227073581,-42.296138755052205,39.31388241752473
6.562713370350476,-4.140076027900815,11.90337867999093,8.635947051248829,-46.80505914515369,47.40856914347651
6.521312610071468,-4.608126619352351,11.989738150503417,9.110032742683595,-51.832778337244456,56.35215513253811
6.475231343877945,-5.126454402724796,12.080838477930254,9.673554294008976,-56.57135501040777,65.12329487125848
6.423966799850697,-5.692167952828873,12.177574020870344,10.32478724272156,-58.902157578785676,70.91656903017066
6.367045120322408,-6.28118952861673,12.28082189329756,11.033952933023267,-54.37089723529584,67.70877624232179
6.304233225036241,-6.824898500969689,12.391161422627793,11.711040695446485,-36.35796742081657,46.45122937339708
6.235984240026545,-7.188478175177854,12.508271829582258,12.175552989180456,-1.8225768915903635,2.9546363938285922
6.164099458274766,-7.206703944093758,12.630027359474063,12.205099353118742,38.03744732810621,-47.465788767681836
6.092032418833829,-6.826329470812696,12.75207835300525,11.730441465441924,63.403379828891204,-77.91200894186484
6.023769124125701,-6.192295672523784,12.86938276765967,10.951321376023275,69.10232498863385,-81.82918950634759
5.961846167400464,-5.501272422637445,12.978895981419903,10.133029480959799,64.15209560022582,-71.83701428675053
5.906833443174089,-4.859751466635187,13.080226276229501,9.414659338092294,56.527648376422,-58.742474772696
5.858235928507737,-4.294474982870967,13.174372869610425,8.827234590365334,49.483817124051036,-46.786623572513555
5.815291178679027,-3.7996368116304566,13.262645215514079,8.359368354640198,43.80163963979562,-36.869560590772835
5.777294810562723,-3.3616204152325,13.34623889906048,7.99067274873247,39.439024130817046,-28.825746472480063
5.743678606410398,-2.96723017392433,13.426145626547806,7.702415284007669,36.16345537604106,-22.272884346053196
5.714006304671155,-2.6055956201639194,13.503169779387882,7.4796864405471375,33.74163429285042,-16.85593941256038
5.687950348469516,-2.268179277235415,13.577966643793353,7.311127046421534,31.982332569274377,-12.296334706031244
5.665268555697162,-1.9483559515426712,13.651077914257568,7.188163699361222,30.736935806514015,-8.387732903925643
5.645784996181735,-1.640986593477531,13.722959551251181,7.104286370321965,29.890267288203823,-4.981266619237047
5.62937513024696,-1.3420839205954926,13.7940024149544,7.054473704129594,29.350969370660195,-1.9717731239852208
5.615954291041006,-1.0485742268888907,13.864547151995696,7.034755972889743,29.043601238299185,0.7127120791975322
5.605468548772117,-0.7581382145058988,13.934894711724594,7.041883093681718,28.90260385124073,3.118467563089547
5.597887166627058,-0.4691121759934915,14.00531354266141,7.073067769312614,28.867839868233855,5.2713887019140655
5.593196044867123,-0.1804337773111529,14.076044220354536,7.125781656331754,28.881425278636275,7.1808503650795314
5.591391707094012,0.10838047547520985,14.147302036917853,7.19759015998255,28.885685217801786,8.842779196607216
5.592475511848764,0.3972373276532277,14.21927793851768,7.286017951948622,28.822182318533372,10.242468113440548
5.596447885125296,0.6854591508385615,14.292138118037165,7.388442633083028,28.63184523166453,11.357559338797818
5.603302476633682,0.9717776031552068,14.366022544367995,7.502018226471006,28.25624791052592,12.161504192910837
5.613020252665234,1.254340082260466,14.441042726632705,7.6236332684001145,27.640040894259347,12.627650485187344
5.625563653487839,1.5307404912030596,14.517279059316706,7.7499097732519875,26.734404716851028,12.733893880406786
5.64087105839987,1.7980845383715698,14.594778157049227,7.877248712056056,25.501190719267374,12.467564342100907
5.658851903783585,2.0530964455642433,14.673550644169786,8.001924355477065,23.917174102231165,11.829945873643267
5.6793828682392276,2.292268186586555,14.753569887724558,8.120223814213498,21.97764194067638,10.839629961601627
5.702305550105093,2.512044605993319,14.834772125866692,8.228620113829514,19.698472452696336,9.53388374337055
5.727425996165026,2.7090293305202824,14.917058327004987,8.32395895126322,17.116015771386593,7.967452270211106
5.754516289470229,2.8801894882341483,15.000297916517619,8.403633473965332,14.284481893907081,6.208708311455791
5.78331818435257,3.0230343071732193,15.084334251257273,8.46572055707989,11.271097832899587,4.333693921991473
