th1 (rad),w1 (rad/s),th2 (rad),w2 (rad/s),a1 (rad/s^2),a2 (rad/s^2)
4.23654738892155,1.098281657702609,3.357817339107557,-1.7076494552993358,8.3144015869763,-2.2744296399856143
4.247530205498576,1.181425673572372,3.3407408445545634,-1.7303937516991919,8.202577338967439,-2.017078662200358
4.259344462234299,1.2634514469620464,3.3234369070375713,-1.7505645383211954,8.094676711570585,-1.7433378650455353
4.271978976703919,1.3443982140777522,3.3059312616543592,-1.7679979169716507,7.992485533780928,-1.4540369939233961
4.285422958844697,1.4243230694155615,3.2882512824846426,-1.7825382869108846,7.897799162367738,-1.149888529955015
4.299666189538852,1.503301061039239,3.2704258996155335,-1.7940371722104347,7.812398220907307,-0.8314432269525163
4.314699200149245,1.5814250432483121,3.252485527893429,-1.80235160447996,7.738028700602934,-0.4990502928023175
4.330513450581728,1.6588053302543415,3.2344620118486294,-1.8073421074079832,7.676387073617734,-0.152823224968024
4.3471015038842715,1.7355692009905188,3.2163885907745495,-1.8088703396576635,7.629110646954795,0.2073882047152658
4.364457195894177,1.8118603074600668,3.198299887377973,-1.8067964576105109,7.597772995814433,0.5820197749668814
4.3825757989687775,1.887838037418211,3.180231922801868,-1.800976259860842,7.583883984578358,0.9718087633866092
4.401454179342959,1.9636768772639948,3.1622221602032594,-1.791258172226976,7.588893623111456,1.3778045640918777
4.421090948115599,2.039565813495109,3.1443095784809896,-1.7774801265860574,7.614198816134862,1.8013746223187181
4.44148660625055,2.1157078016564577,3.126534777215129,-1.7594663803628703,7.661151934796896,2.244206308408809
4.462643684267114,2.1923193210044265,3.1089401134115002,-1.7370243172787823,7.731070056687783,2.708305212314086
4.4845668774771585,2.269630021571304,3.0915698702387124,-1.7099412651556414,7.825243664610227,3.195990096604802
4.507263177692872,2.3478824582174065,3.074470457587156,-1.6779813641895933,7.944943546124111,3.7098844151242223
4.530742002275046,2.4273318936786477,3.0576906439452602,-1.640882520038351,8.091424577585288,4.252903897823262
4.555015321211832,2.5082461394545006,3.041281818744877,-1.5983534810601183,8.265924993740727,4.8282392287835165
4.580097782606377,2.590905389391908,3.025298283934276,-1.550071088772283,8.469659627136863,5.43933231028069
4.606006836500296,2.6756019856632767,3.009797573046553,-1.4956777656694762,8.70380544661717,6.0898440165152055
4.632762856356929,2.7626400401294484,2.9948407953898584,-1.4347793255043242,8.969477534192636,6.783610704382691
4.660389256758223,2.852334815471375,2.980493002134815,-1.3669432184604973,9.267693426881188,7.5245860805149665
4.688912604912937,2.945011749740187,2.96682356995021,-1.2916973576553477,9.599323538935751,8.3167643522097
4.718362722410339,3.041004985129544,2.9539065963736566,-1.2085297141332507,9.965025209945477,9.16407996431912
4.748772772261634,3.140655237228999,2.9418212992323243,-1.1168889144900596,10.36515785529911,10.070278724779518
4.780179324633924,3.24430681578199,2.930652410087424,-1.0161861272422643,10.799676811911764,11.038754869458115
4.812622392791743,3.3523035839011075,2.920490548815001,-0.9057985785476832,11.268003887331897,12.07234878515262
4.846145428630755,3.4649836227744264,2.9114325630295244,-0.785075090696157,11.768873478329787,13.1731009299619
4.880795264858499,3.5826723575577244,2.903581812122563,-0.653344081396538,12.300154596525802,14.341959254793293
4.916621988434076,3.7056739035229826,2.8970483713085975,-0.5099244888486051,12.858651407361942,15.57844047697596
4.953678727469306,3.834260417596602,2.8919491264201116,-0.35414008407884545,13.43988812280785,16.88025023533827
4.992021331645272,3.9686592988246807,2.8884077255793232,-0.18533758172546275,14.037888389974517,18.24287375369843
5.031707924633519,4.109038182724426,2.8865543497620685,-0.002908844188478449,14.644964648830491,19.6591572697085
5.072798306460763,4.255487829212731,2.8865252613201835,0.19368272850860657,15.251539014259395,21.118910925574262
5.11535318475289,4.408003219355325,2.8884620886052694,0.4048718377643492,15.846023442112926,22.6085753115223
5.159433216946443,4.566463453776454,2.892510806982913,0.6309575908795723,16.414792193422358,24.111004922605215
5.205097851484208,4.730611375710678,2.8988203828917087,0.8720676401056244,16.94228237419701,25.60543011518866
5.252403965241315,4.900034199452648,2.907541059292765,1.128121941257511,17.411256700420175,27.067661643239553
5.301404307235841,5.07414676645685,2.91882227870534,1.3987985576899065,17.803254676061574,28.4705950422435
5.35214577490041,5.252179313217465,2.932810264282239,1.6835045081123414,18.099242644218958,29.78505293333165
5.404667568032584,5.433171739659655,2.9496453093633623,1.9813550374456579,18.280449497021472,30.980970220116145
5.458999285429181,5.61597623462987,2.969458859737819,2.2911647396468195,18.32934502097158,32.02888148521036
5.51515904777548,5.799269684839586,2.992370507134287,2.6114535544989232,18.23068614150818,32.90161685767042
5.573151744623876,5.981576546254668,3.0184850426792766,2.9404697230756276,17.972529098136043,33.57606134286505
5.632967510086423,6.161301837236028,3.047889739910033,3.276230336504278,17.547090165370957,34.03479478535642
5.694580528458783,6.336772738889738,3.0806520432750757,3.6165782843578422,16.951340175732103,34.26741670309007
5.75794825584768,6.506286140647059,3.116817826118654,3.959252451388743,16.187241617861726,34.27137964797018
5.8230111172541505,6.668158556825676,3.1564103506325414,4.301966247868445,15.261579191893132,34.052206776694895
5.8896927028224075,6.8207743487446075,3.199430013111226,4.6424883156353935,14.185387886924826,33.62304575912948
5.9579004463098535,6.962628227613855,3.2458548962675797,4.978718773226689,12.973035931318059,33.00359696405004
6.027526728585992,7.092358586927036,3.2956420839998466,5.308754742867189,11.641062140939374,32.21853134331355
6.098450314455262,7.208769208336429,3.3487296314285184,5.630940056300324,10.206890213333667,31.2955674846511
6.170538006538627,7.310838110469766,3.405039031991522,5.943895731146835,8.687543785181084,30.2633996807417
6.243646387643325,7.397713548321577,3.4644779893029902,6.246529727954252,7.098468705291525,29.149659886802176
6.3176235231265405,7.468698235374492,3.5269432865825325,6.538026326822274,5.452540209392907,27.979063765932896
6.392310505480285,7.523223637468421,3.592323549850755,6.817816964481603,3.7593012321643617,26.771846388026677
6.467542741854969,7.560816649790064,3.660501719495571,7.08553542836187,2.0244516079963706,25.5425486013953
6.54315090835287,7.581061165870028,3.73135707377919,7.340960914375823,0.24959132991166252,24.29918004908674
6.61896152001157,7.583557079169145,3.8047666829229483,7.58395271486669,-1.56778394606094,23.042764562685804
6.694797090803262,7.567879239708535,3.880606210071615,7.814380360493549,-3.4340315414546367,21.76726933765255
6.770475883200348,7.533538924293989,3.9587500136765503,8.032053053870074,-5.358838484464843,20.459928465925422
6.845811272443288,7.479950539449341,4.039070544215251,8.236652338529328,-7.354395735292631,19.101988993445183
6.920610777837781,7.406406582096414,4.121437067600545,8.42767222846378,-9.43422884308058,17.669926498224083
6.9946748436587445,7.312064293665609,4.205713789885182,8.604371493446022,-11.611644798890582,16.1371881894737
7.067795486595401,7.195947845676703,4.291757504819643,8.76574337534076,-13.897775016923879,14.476513994406625
7.139754965052168,7.056970095507465,4.37941493857305,8.910508515284826,-16.29924171431393,12.662848516628456
7.210324666007242,6.893977678364325,4.468520023725898,9.03713700045111,-18.815554760115322,10.676779147261179
7.279264442790885,6.705822130763172,4.558891393730409,9.143904791923722,-21.43645707565497,8.508314009188723
7.346322664098517,6.491457560006623,4.650330441649646,9.22898793201561,-24.139565896696016,6.1606562535351035
7.4112372396985835,6.250061901039663,4.742620320969802,9.29059449455096,-26.888775426671536,3.6534659589099205
7.47373785870898,5.981174146772948,4.835526265915312,9.32712915414006,-29.633948001413142,1.0249767846566549
7.53354960017671,5.6848346667588165,4.928797557456712,9.337378921986627,-32.31237240862019,-1.667683754808563
7.590397946844298,5.361710942672614,5.022171346676578,9.32070208443854,-34.85226791324195,-4.350473789367327
7.644015056271025,5.0131882635401945,5.115378367520964,9.277197346544867,-37.17825841434495,-6.936881328570156
7.694146938906426,4.641405679396745,5.208150340986412,9.207828533259166,-39.2182922299655,-9.334510260583846
7.740560995700394,4.2492227570970895,5.300228626319004,9.114483430653328,-40.91106035928946,-11.452964374213035
7.783053223271365,3.840112153504195,5.3913734606255375,8.999953786911197,-42.21271846116616,-13.211796344992043
7.821454344806407,3.4179849688925334,5.481372998494649,8.867835823461277,-43.10175978346808,-14.547179276621796
7.855634194495332,2.986967371057853,5.5700513567292615,8.72236403069506,-43.58123796963632,-15.41619067595884
7.885503868205911,2.5511549913614897,5.657274997036212,8.568202123935471,-43.678104042166204,-15.798109780882202
7.911015418119526,2.114373950939828,5.7429570182755665,8.41022102612665,-43.44002445430873,-15.692753727266878
7.932159157628924,1.6799737063967406,5.827059228536833,8.25329348885398,-42.93050617895231,-15.11642096714717
7.948958894692891,1.2506686446072175,5.909592163425373,8.10212927918251,-42.22335939877531,-14.096328092603603
7.961465581138963,0.8284350506194644,5.990613456217198,7.961165998256473,-41.39747025628042,-12.664474040124048
7.969749931645158,0.4144603480566602,6.0702251161997625,7.834521257855233,-40.532611733896886,-10.851692929190875
7.973894535125725,0.009134230717691372,6.148570328778315,7.726004328563324,-39.70670186373253,-8.682365154904222
7.973985877432901,-0.387932787919634,6.225830372063949,7.639180677014282,-38.9946226421172,-6.1699510022524935
7.970106549553705,-0.777879014340806,6.302222178834092,7.577481166991757,-38.46849399619727,-3.3132700420499233
7.9623277594102975,-1.1625639543027786,6.37799699050401,7.5443484665712575,-38.199157614608595,-0.09332039758711862
7.95070211986727,-1.5445555304488645,6.453440475169723,7.543415262595386,-38.25851987521114,3.5295464409433053
7.935256564562781,-1.927140729200976,6.528874627795677,7.578710727004819,-38.72223165181165,7.618030057187225
7.915985157270772,-2.3143630457190922,6.604661735065725,7.654891027576691,-39.6717517663626,12.259119858878563
7.892841526813581,-2.711080563382718,6.6812106453414914,7.777482226165477,-41.19374926369918,17.561809088896304
7.865730721179753,-3.12301805601971,6.7589854676031464,7.95310031705444,-43.37217329671593,23.64519098814358
7.8345005406195565,-3.556739788986869,6.8385164707736905,8.189552226935875,-46.26225800793448,30.602341889336387
7.7989331427296875,-4.019362369066214,6.920411993043049,8.49557564582924,-49.822404418914005,38.406723814209656
7.758739519039025,-4.517586413255354,7.005367749501342,8.879642883971336,-53.75333924511246,46.69047435814387
7.713563654906472,-5.055119805706479,7.094164178341055,9.346547627552775,-57.15415313063142,54.26726023020106
7.663012456849407,-5.626661337012793,7.1876296546165825,9.889220229854786,-57.90709022508717,58.272410251632124
7.606745843479279,-6.205732239263665,7.28652185691513,10.471944332371107,-52.03007418937613,53.24358141213185
7.544688521086643,-6.726032981157426,7.391241300238842,11.004380146492426,-34.539229566739635,32.27870475832668
7.477428191275068,-7.071425276824823,7.501285101703766,11.327167194075694,-4.776739176509452,-5.614230778203043
7.406713938506821,-7.119192668589918,7.614556773644523,11.271024886293663,26.943456574128373,-46.34243768961556
7.335522011820921,-6.849758102848634,7.727267022507459,10.807600509397508,46.35610540636272,-70.4796205988267
7.267024430792435,-6.386197048785007,7.835343027601434,10.102804303409242,50.68892836599808,-74.46961505541597
7.2031624603045845,-5.879307765125026,7.936371070635526,9.358108152855081,46.59296924329328,-67.52048813401846
7.144369382653334,-5.413378072692094,8.029952152164077,8.682903271514897,39.99449652435787,-57.64884058335312
7.0902356019264134,-5.013433107448515,8.116781184879226,8.106414865681366,33.545082224170756,-48.335375123592904
7.040101270851928,-4.677982285206808,8.19784533353604,7.623061114445437,28.01383396776163,-40.514353936158635
6.99332144799986,-4.397843945529191,8.274075944680495,7.217917575083851,23.461319877501065,-34.190845225757
6.949343008544568,-4.16323074675418,8.346255120431334,6.8760091228262805,19.746508654588084,-29.12380306694801
6.9077107010770264,-3.965765660208299,8.415015211659597,6.5847710921568,16.700536252138164,-25.052958238940885
6.8680530444749435,-3.7987602976869175,8.480862922581165,6.334241509767391,14.176178228203105,-21.759066589290793
6.830065441498074,-3.6569985154048865,8.54420533767884,6.116650843874483,12.056430420949946,-19.07099243942093
6.793495456344025,-3.5364342111953873,8.605371846117585,5.925940919480274,10.251333622135883,-16.858426282508937
6.758131114232071,-3.4339208749740284,8.664631255312388,5.757356656655184,8.692525016588265,-15.022438911977794
6.72379190548233,-3.346995624808146,8.72220482187894,5.607132267535406,7.328311038674945,-13.487206286126483
6.6903219492342485,-3.2737125144213963,8.778276144554294,5.472260204674141,6.119878340900167,-12.193443122430029
6.657584824090034,-3.2125137310123946,8.832998746601035,5.350325773449841,5.038604471058157,-11.093302498187203
6.6254596867799105,-3.162127686301813,8.886502004335533,5.239392748467969,4.06426832236201,-10.14636753256791
6.593838409916892,-3.121485003078193,8.938895931820213,5.13792907314229,3.183937994509914,-9.31643266002957
6.56262355988611,-3.089645623133094,8.990275222551636,5.044764746541994,2.391306619744383,-8.568911349886436
6.531727103654779,-3.06573255693565,9.040722870017056,4.95907563304313,1.686211890981031,-7.868881938315588
6.501069778085423,-3.04887043802584,9.090313626347488,4.880386813659975,1.0740049859201526,-7.179982553152887
6.470581073705165,-3.0381303881666386,9.139117494484088,4.808586988128446,0.5643534673549399,-6.464556496411968
6.440199769823498,-3.032486853493089,9.187203364365372,4.743941423164326,0.1690378435447145,-5.685541916760152
6.409874901288567,-3.030796475057642,9.234642778597015,4.687086003996725,-0.10155376229669548,-4.81043948804773
6.37956693653799,-3.031812012680609,9.281513638636982,4.6389816091162475,-0.24309532120089233,-3.8171144599064992
6.349248816411184,-3.0342429658926178,9.327903454728144,4.600810464517182,-0.2622895380188483,-2.7001826333617447
6.318906386752258,-3.036865861272806,9.373911559373315,4.573808638183564,-0.18049210096298846,-1.4756519753821917
6.28853772813953,-3.038670782282436,9.41964964575515,4.559052118429743,-0.03408706196417559,-0.18111477149540836
6.2581510203167054,-3.0390116529020776,9.465240166939449,4.557240970714789,0.12951983737034084,1.130130047322833
6.227760903787685,-3.037716454528374,9.510812576646597,4.568542271188017,0.25965303799556755,2.4001542148091444
6.197383739242401,-3.0351199241484186,9.556497999358477,4.592543813336108,0.3113750807472637,3.5791987832088696
6.167032540000917,-3.032006173340946,9.602423437491838,4.6283358011681965,0.2525727247952388,4.635750444011306
6.1367124782675075,-3.0294804460929936,9.64870679550352,4.67469330560831,0.06693232703967629,5.560854692713222
6.106417673806577,-3.0288111228225967,9.695453728559603,4.730301852535442,-0.24742367159534004,6.366394051726061
6.076129562578351,-3.03128535953855,9.742756747084957,4.793965793052703,-0.6822094248521362,7.0793892640701355
6.045816708982965,-3.0381074537870716,9.790696405015485,4.864759685693404,-1.2241636986775692,7.7351580296958975
6.015435634445095,-3.0503490907738473,9.83934400187242,4.942111265990363,-1.8595922969254897,8.371537255430008
5.984932143537356,-3.068945013743102,9.888765114532323,5.025826638544663,-2.5775392574527745,9.02519067509091
5.954242693399925,-3.09472040631763,9.939023380917769,5.116078545295572,-3.3715719827727386,9.730030399225765
5.923295489336748,-3.1284361261453575,9.990184166370724,5.21337884928783,-4.240543376529923,10.51726827297847
5.8920111280752945,-3.1708415599106567,10.042317954863602,5.318551532017614,-5.188782309763863,11.416513609205175
5.860302712476188,-3.2227293830082955,10.095503470183779,5.432716668109666,-6.226094106914247,12.45745747113748
5.8280754186461055,-3.284990324077438,10.149830636864875,5.557291242821041,-7.367836602509858,13.671870191717225
5.795225515405331,-3.358668690102536,10.205403549293086,5.694009944738213,-8.635233294221726,15.095801222465607
5.761638828504306,-3.4450210230447533,10.262343648740469,5.844967956962869,-10.056007762629871,16.77197643183443
5.727188618273858,-3.5455811006710523,10.320793328310097,6.012687721281214,-11.665359129264347,18.752426424833857
5.691732807267147,-3.662234691963696,10.38092020552291,6.2002119855295525,-13.507210592505581,21.101327829188623
5.65511046034751,-3.797306797888752,10.442922325378206,6.411225263821438,-15.635480519835562,23.897826783809904
5.6171373923686225,-3.9536616030871072,10.50703457801642,6.650203531659537,-18.114698614012347,27.23805498047366
5.577600776337752,-4.134808589227231,10.573536613333015,6.922584081464274,-21.01828779349605,31.23420133765014
5.53625269044548,-4.344991467162192,10.642762454147658,7.234926094840776,-24.420513832688066,36.0053471532606
5.492802775773858,-4.5891966054890725,10.715111715096064,7.594979566373382,-28.372834075021576,41.64753486035492
5.446910809718967,-4.872924946239288,10.791061510759798,8.011454914976932,-32.84378556688222,48.154495379594756
5.398181560256575,-5.20136280190811,10.871176059909567,8.49299986877288,-37.578007205463244,55.22760487580331
5.346167932237494,-5.577142873962742,10.956106058597296,9.045275917530914,-41.79183454004527,61.85980785633288
5.290396503497866,-5.995061219363195,11.046558817772604,9.663873996094242,-43.607585338008484,65.55451491157942
5.230445891304234,-6.4311370727432795,11.143197557733547,10.319419145210036,-39.35848715987066,61.35519065964984
5.166134520576802,-6.824721944341986,11.246391749185648,10.932971051806534,-23.991594637360848,42.379669272329686
5.097887301133381,-7.064637890715595,11.355721459703712,11.356767744529831,4.456326655975117,5.981503663092906
5.027240922226225,-7.020074624155844,11.46928913714901,11.416582781160761,37.40626010519596,-36.01051676503877
4.957040175984667,-6.646012023103884,11.583454964960618,11.056477613510372,59.711464451903886,-62.93825573879124
4.890580055753628,-6.048897378584845,11.69401974109572,10.427095056122461,66.23828226081524,-68.1577221909179
4.83009108196778,-5.386514555976693,11.798290691656945,9.745517834213281,63.19898798315688,-60.49036132308284
4.776225936408013,-4.754524676145124,11.895745869999077,9.140614220982453,57.21590994748888,-49.03255681348761
4.728680689646561,-4.182365576670235,11.987152012208902,8.650288652847577,51.41834113081979,-37.959047989454916
4.686857033879859,-3.6681821653620372,12.073654898737377,8.270698172953027,46.73516574663117,-28.42635219984701
4.650175212226238,-3.2008305078957253,12.156361880466907,7.986434650954557,43.25089732463562,-20.466457588081926
4.618166907147281,-2.768321534649369,12.236226226976452,7.781770075073737,40.810139519434884,-13.81331155145191
4.590483691800787,-2.36022013945502,12.31404392772719,7.643636959559219,39.22353570457618,-8.177781978006935
4.566881490406237,-1.9679847824092582,12.390480297322782,7.561859139779149,38.32453566208641,-3.3205543280724057
4.547201642582144,-1.5847394257883942,12.466098888720573,7.528653596498425,37.97765895156676,0.9385195495944285
4.53135424832426,-1.2049628362727267,12.541385424685558,7.538038791994369,38.07302338081807,4.727730562408293
4.519304619961533,-0.824232602464546,12.616765812605502,7.585316097618452,38.51822927014161,8.133027944491078
4.511062293936887,-0.43905030976312986,12.692618973581686,7.666646377063363,39.23080743153856,11.205967737161359
4.506671790839256,-0.04674223544774425,12.76928543735232,7.778706054434976,40.13198597910031,13.969667085131015
