th1 (rad),w1 (rad/s),th2 (rad),w2 (rad/s)
5.822001702200234,0.31597203387749145,3.4140331608269654,0.42493391025937055
5.825161422539009,0.38922636650394826,3.418282499929559,0.5063823547290534
5.829053686204048,0.46206042318637863,3.4233463234768498,0.5882134203672265
5.833674290435912,0.5343898131186272,3.429228457680522,0.6705077082867289
5.839018188567098,0.606127115600041,3.4359335347633895,0.7533420268160798
5.845079459723099,0.6771813658051149,3.44346695503155,0.8367886934299951
5.85185127338115,0.747457549883787,3.45183484196585,0.9209148393034806
5.859325848879988,0.8168561118367921,3.461043990358885,1.0057817179956698
5.867494409998356,0.8852724749937263,3.471101807538842,1.091444020214586
5.876347134748293,0.952596581365288,3.482016247740988,1.1779491971392282
5.8858731005619465,1.018712452648282,3.49379573971238,1.2653367953883397
5.896060225088429,1.0834977772352195,3.506449107666264,1.3536378074348854
5.906895202860781,1.1468235282222958,3.5199854857406128,1.4428740420820596
5.918363438143004,1.2085536181219976,3.5344142261614335,1.5330575205521475
5.930448974324224,1.2685445967698616,3.549744801366955,1.6241899048059498
5.943134420291923,1.3266453997666097,3.5659867004150145,1.716261965919559
5.956400874289589,1.3826971557104861,3.58314932007421,1.8092531017070823
5.9702278458466935,1.4365330614376104,3.601241851091281,1.9031309142986874
5.98459317646107,1.4879783354796143,3.6202731602342677,1.9978508600629417
5.999472959815866,1.5368502609358723,3.640251668834897,2.093355986091022
6.014841462425225,1.58295832989632,3.6611852286958073,2.1895767694146846
6.030671045724188,1.626104502377192,3.683080996389954,2.2864310771687606
6.04693209074796,1.666083593363019,3.7059453071616417,2.3838242679689134
6.06359292668159,1.7026838018785797,3.729783549841331,2.481649456766307
6.0806197647003755,1.7356873959153936,3.754600044408994,2.5797879672423014
6.09797663865953,1.7648715663568444,3.7803979240814174,2.678109997265652
6.1156253543230985,1.7900094616122941,3.807179024054074,2.7764755238674494
6.1335254489392215,1.8108714122978629,3.8349437792927485,2.8747354743827396
6.1516341630622,1.8272263518007557,3.863691134036576,2.9727331896305347
6.169906426580208,1.8388434337570827,3.893418465932881,3.0703062030185397
6.188294860917779,1.8454938412126163,3.9241215279630666,3.167288356043049
6.206749799329905,1.8469527744284961,3.955794411523497,3.2635122656274684
6.22521932707419,1.8430015949268181,3.988429534179772,3.358812151998155
6.243649343023458,1.833430092539478,4.022017655699753,3.453027027337512
6.261983643948853,1.818038830155467,4.0565479259731285,3.5460042354330983
6.280164032250408,1.796641507935696,4.09200796832746,3.637603321291343
6.298130447329765,1.7690672755163988,4.128384001540373,3.7277001977461928
6.315821120084928,1.7351629078355748,4.165661003517835,3.816191564226049
6.3331727491632845,1.6947947484914452,4.203822919160095,3.9029995220155005
6.350120696648199,1.6478503148390804,4.242852914380251,3.98807632170654
6.36659919979659,1.5942394521967993,4.282733677597316,4.071409173338384
6.382541594318558,1.5338949212998998,4.3234477693307,4.153025049269687
6.397880543531556,1.466772304015721,4.364978019823397,4.232995415337221
6.412548266571713,1.3928491175000277,4.407307973976769,4.311440838379995
6.4264767577467135,1.3121230361848522,4.450422382360569,4.388535438520724
6.439597988108562,1.224609133509883,4.4943077367457755,4.464511183120479
6.451844079443661,1.1303360699072376,4.53895284857698,4.539662056094761
6.463147440142733,1.029341168523775,4.584349469137928,4.614348180966011
6.473440851827971,0.9216643334585763,4.6304929509475885,4.689000027984638
6.482657495162557,0.8073407746633562,4.677382951227435,4.764122894018554
6.49073090290919,0.6863925069193975,4.725024180167621,4.84030190770478
6.497594827978384,0.5588185856827791,4.773427199244669,4.918207880483228
6.503183013835212,0.4245840291652335,4.822609278049501,4.998604395225214
6.507428854126864,0.2836073544548875,4.872595322001753,5.082356596041985
6.510264927671413,0.1357466291914421,4.923418887962173,5.170442211251666
6.511622393963327,-0.01921608248794912,4.975123310074689,5.263965397492324
6.511430233138447,-0.18159200353199728,5.027762964049613,5.364174018049374
6.509614313103127,-0.3518047307351776,5.081404704230106,5.472480924911395
6.506096265795776,-0.5304110343244564,5.13612951347922,5.590489626998298
6.500792155452531,-0.7181228873612189,5.192034409749203,5.720024250284206
6.493610926578919,-0.9158294053240472,5.249234652252045,5.863162647281693
6.484452632525678,-1.1246156919068546,5.307866278724862,6.022269354112417
6.4732064756066094,-1.3457722991040886,5.368088972265986,6.200020797949394
6.459748752615568,-1.5807827119658773,5.4300891802454805,6.399406796500704
6.44394092549591,-1.8312643884191468,5.4940832482104875,6.623676398561211
6.4256282816117185,-2.098816885660761,5.5603200121961,6.876166139971005
6.404640112755111,-2.3846911154805,5.6290816735958105,7.159894389573967
6.380793201600306,-2.689127079900465,5.7006806174915505,7.4767125692307745
6.353901930801301,-3.0101090860974526,5.775447743183858,7.825665087777516
6.3238008399403265,-3.341190725868822,5.853704394061634,8.200068299337056
6.290388932681639,-3.6681159922012228,5.935705077055004,8.58290512262192
6.253707772759626,-3.9647082462034224,6.021534128281223,8.941136955505549
6.214060690297592,-4.190776256492751,6.110945497836278,9.22265764652965
6.1721529277326646,-4.298339313662395,6.203172074301574,9.36452316963446
6.12916953459604,-4.251570809984293,6.2968173059979184,9.3198800049439
6.086653826496198,-4.051090707371538,6.390016106047358,9.090712725242492
6.046142919422483,-3.737196382231593,6.480923233299783,8.731676405342792
6.008770955600167,-3.365209971233976,6.568239997353211,8.31621732949198
5.975118855887827,-2.979416345801954,6.65140217064813,7.901580411004628
5.945324692429808,-2.605028882015058,6.7304179747581765,7.5187581207257566
5.919274403609657,-2.252627551666043,6.8056055559654345,7.179143655683212
5.896748128092997,-1.92464905905236,6.877396992522266,6.883562693434671
5.877501637502474,-1.6198445867321156,6.946232619456613,6.628300876290973
5.861303191635153,-1.3356499209314152,7.012515628219523,6.408213960312584
5.847946692425839,-1.06928182317896,7.076597767822649,6.218104320466692
5.837253874194049,-0.8181870964606295,7.138778811027316,6.0532393328686425
5.8290720032294425,-0.5801920237847371,7.199311204356002,5.909486528680494
5.823270082991595,-0.35352276480955724,7.258406069642807,5.783293418077751
5.8197348553434995,-0.13677537123383182,7.3162390038235845,5.671614276077215
5.8183671016311616,0.07112996243615677,7.372955146584356,5.5718272065563665
5.819078401255523,0.2709960847462016,7.42867341864992,5.481658270267878
5.821788362102986,0.46339226299229963,7.483490001352599,5.399117943884815
5.826422284732908,0.6486924149582591,7.537481180791447,5.322450417751525
5.832909208882491,0.8271084264596416,7.590705684968962,5.250094454673618
5.8411802931470875,0.9987192985270561,7.643206629515698,5.180654012174601
5.851167486132358,1.1634969289413524,7.695013169637445,5.1128768163158735
5.862802455421771,1.3213292129157366,7.746141937800604,5.045639236941283
5.8760157475509285,1.4720409707125142,7.796598330170017,4.9779360167068765
5.890736157258053,1.6154130315937532,7.846377690337086,4.908873600531421
5.906890287573991,1.751199648442682,7.8954664263423995,4.837665986290708
5.924402284058418,1.8791442960988556,7.943843086205306,4.7636321742307235
5.943193727019406,1.9989938224435069,7.9914794079476135,4.686194438215406
5.963183665243841,2.1105108741979883,8.038341352329768,4.604876782339225
5.9842887739858215,2.213484506243961,8.08439012015316,4.5193030847611375
6.006423619048261,2.307738898925841,8.129583151000771,4.429194566909488
6.02950100803752,2.393140145506378,8.173875096669866,4.334366357839009
6.053432409492584,2.46960112392113,8.217218760248256,4.234723046059754
6.078128420731795,2.5370845251128675,8.259565990708854,4.1302532194686075
6.103499265982923,2.5956041669109053,8.30086852290354,4.021023083357739
6.129455307652032,2.6452247712744668,8.341078753737118,3.9071693134212993
6.155907555364776,2.686060419153454,8.380150446871331,3.7888913437054397
6.182768159556311,2.7182719187182336,8.418039360308386,3.666443309136091
6.209950878743493,2.742063328817668,8.454703793399746,3.540125861160136
6.23737151203167,2.757677871571126,8.490105052011348,3.4102780572029108
6.264948290747381,2.7653934486319938,8.524207832583377,3.2772694950173933
6.2926022252337015,2.7655179482827874,8.55698052753355,3.1414928267338107
6.320257404716529,2.758384498748729,8.588395455800889,3.003356749286308
6.347841249704016,2.7443467903021523,8.618429023293752,2.8632795318358677
6.3752847176070375,2.723774557635813,8.64706181861211,2.721683109667678
6.402522463183396,2.6970492865918856,8.674278649708787,2.5789877494810103
6.429492956049315,2.664560186802594,8.700068527203598,2.435607273575453
6.456138557917341,2.6267004545242014,8.724424599939352,2.2919448198245904
6.482405562462583,2.583863837702535,8.747344048137599,2.148389109515051
6.508244200839608,2.536441507424546,8.76882793923275,2.005311194724505
6.533608615913854,2.4848192354553107,8.788881051179995,1.863061659386651
6.558456808268407,2.429374875509294,8.807511667773861,1.721968252081455
6.5827505570235,2.370476145277909,8.824731350294675,1.5823339326489687
6.6064553184762795,2.308478706192397,8.840554689621165,1.4444353180174903
6.6295401055382035,2.2437245378003547,8.854999042801339,1.3085215145683178
6.651977350916207,2.176540603054523,8.868084257947022,1.1748133246709573
6.673742756946752,2.10723779954508,8.879832391193732,1.0435028137450604
6.694815134942203,2.0361101897262626,8.890267419331183,0.9147532215924803
6.715176236839466,1.9634345006104106,8.899414951547108,0.7886991981952384
6.73481058184557,1.889469880436333,8.90730194352906,0.6654473401640301
6.753705280649934,1.8144578967192029,8.9139564169307,0.5450770000213052
6.7718498596171255,1.7386227571159998,8.919407186930913,0.42764133693624024
6.789236087188286,1.6621717319263696,8.923683600300276,0.31316857473150295
6.805857804507549,1.585295754976832,8.92681528604759,0.20166343118101682
6.821710762057317,1.5081701782284544,8.9288319203594,0.0931086819286589
6.836792463839601,1.4309556547624604,8.929763007178687,-0.012533177210297342
6.851102020387226,1.3537991248334398,8.929637675406584,-0.11531820432878176
6.864640011635561,1.276834880384782,8.928484493363296,-0.21531925428070298
6.877408360439408,1.2001856847072028,8.92633130082049,-0.31262421961860565
6.88941021728648,1.1239639256762106,8.923205058624303,-0.4073342953479948
6.900649856543242,1.0482727831039853,8.919131715670822,-0.4995622893613633
6.911132584374282,0.973207393060723,8.914136092777209,-0.5894309964541129
6.920864658304889,0.898855994443246,8.908241782812668,-0.6770716499436591
6.929853218249321,0.8253010454917185,8.901471066313231,-0.7626224612529999
6.938106228704238,0.7526203002933348,8.893844841700702,-0.8462272544882216
6.945632431707171,0.6808878374985492,8.88538256915582,-0.9280342001099802
6.952441310082157,0.6101750354633517,8.87610222715472,-1.0081946493157377
6.95854306043679,0.5405514897903074,8.866020280661562,-1.0868620687299957
6.963948575334693,0.4720858707569011,8.855151659974263,-1.1641910734401613
6.968669434042262,0.4048467193903094,8.843509749239862,-1.240336555295828
6.972717901236165,0.33890318198129865,8.831106383686905,-1.3154529026774098
6.976106933055978,0.2743256836424265,8.81795185466013,-1.3896933075970332
6.978850189892402,0.2111865421283915,8.804054921584159,-1.463209155977382
6.980962055313686,0.149560523574034,8.789422830024385,-1.5361494972186547
6.982457660549426,0.08952534209496932,8.774061335052199,-1.6086605896668968
6.983352913970376,0.031162105364822244,8.75797472915553,-1.680885519298085
6.983664535024024,-0.025444291640719936,8.741165873962549,-1.7529638897941942
6.983410092107617,-0.08020482253203895,8.723636235064607,-1.825031583176659
6.982608043882296,-0.13302603285316225,8.70538591923284,-1.8972205912495348
6.9812777835537645,-0.18380978875793177,8.686413713320345,-1.9696589192634577
6.979439685666185,-0.23245306891519174,8.666717124127711,-2.0424705644197125
6.977115154977033,-0.27884779754117606,8.646292418483513,-2.115775573071767
6.9743266770016215,-0.32288071640010096,8.625134662752796,-2.1896901817323062
6.97109786983762,-0.36443329348236714,8.603237760935473,-2.2643270482416042
6.967453536902797,-0.4033816658467251,8.580594490453057,-2.3397955806835578
6.963419720244329,-0.4395966137846687,8.557196534646222,-2.4162023728345927
6.959023754106482,-0.472943563023393,8.533034510917876,-2.493651756082853
6.954294318476248,-0.5032826111258913,8.508097993357048,-2.5722464788431134
6.949261492364989,-0.530468573580823,8.482375528568616,-2.6520885254947806
6.94395680662918,-0.5543510443219671,8.455854643313668,-2.7332800877565235
6.938413296185961,-0.574774464617993,8.428521842436103,-2.8159247021390406
6.932665551539781,-0.5915781934957994,8.400362595414713,-2.900128567624488
6.9267497696048235,-0.604596572211265,8.371361309738468,-2.9860020579120716
6.920703803882711,-0.6136589749211171,8.341501289159348,-3.0736614422988957
6.9145672141335,-0.6185898378781509,8.31076467473636,-3.163230828310071
6.908381315754719,-0.6192086605206444,8.27913236645326,-3.2548443372092106
6.902189229149513,-0.6153299742688942,8.246583923081168,-3.3486485199834384
6.896035929406824,-0.6067632794258804,8.213097437881334,-3.444805015500548
6.889968296612565,-0.5933129583974914,8.17864938772633,-3.5434934430511795
6.88403516702859,-0.5747781860977788,8.143214453295817,-3.6449145065461535
6.878287385167612,-0.5509528782281065,8.106765308230356,-3.749293264400987
6.872777856385331,-0.5216257485579323,8.069272375586346,-3.8568824833106956
6.867561598899751,-0.48658059245840407,8.03070355075324,-3.967965939212841
6.862695792975168,-0.44559698321822155,7.991023891361111,-4.082861444994216
6.858239823142986,-0.39845167109918567,7.9501952769111695,-4.2019232572877465
6.854255306431994,-0.34492112878260517,7.908176044338292,-4.325543322245462
6.850806095144168,-0.2847859142427972,7.864920611115838,-4.454150530329809
6.847958236001739,-0.217837856705484,7.820379105812539,-4.588206716268929
6.845779857434684,-0.14389156002726317,7.77449703864985,-4.72819749623306
6.844340941834412,-0.06280242306251717,7.727215063687519,-4.874615090075015
6.843712917603787,0.02550562489482644,7.678468912786769,-5.027928918642224
6.843967973852735,0.12099810541955545,7.628189623600347,-5.1885378723114295
6.84517795490693,0.2234673398251646,7.576304244877233,-5.356695637016544
6.8474126283051815,0.3324407257574856,7.522737288507067,-5.532397434332435
6.850737035562756,0.4470495678264856,7.467413314163743,-5.715213556543521
6.855207531241021,0.5658475848478945,7.410261178598307,-5.904053809849314
6.8608660070895,0.6865719722112051,7.351220640499814,-6.096851188540606
6.867731726811613,0.8058532613730672,7.290252128614408,-6.2901700326854435
6.875790259425344,0.9189114135257479,7.227350428287553,-6.478784871740334
6.8849793735606015,1.0193328634560401,7.16256257957015,-6.655352745602196
6.895172702195162,1.09910363364722,7.096009052114129,-6.810410746971009
6.906163738531634,1.1491392799676732,7.027904944644418,-6.933021227233571
6.917655131331311,1.1605079695038067,6.958574732372083,-7.012330461602196
6.9292602110263495,1.126270757191417,6.888451427756061,-7.0399425786657694
6.940522918598264,1.043382624301827,6.818052001969403,-7.012366077598186
6.950956744841282,0.9137456372557026,6.747928341193421,-6.932323333785706
6.960094201213838,0.7437574846155881,6.678605107855564,-6.808066062939833
6.967531776059994,0.5425462123435187,6.610524447226165,-6.650986418160129
6.9729572381834295,0.3198119656550539,6.544014583044564,-6.472776980364297
6.97615535783998,0.08418685601257514,6.479286813240922,-6.2833451197902805
6.976997226400106,-0.15753584194289355,6.416453362043019,-6.089912864337801
6.9754218679806765,-0.40046410729986154,6.3555542333996415,-5.897050563461603
6.971417226907678,-0.6412970354976858,6.296583727765025,-5.707177634830935
6.965004256552701,-0.8779115784112357,6.239511951416715,-5.521169976276658
6.956225140768589,-1.1089884917810922,6.184300251653949,-5.338892056375887
6.9451352558507775,-1.3337254198336337,6.13091133109019,-5.15959907337167
6.931798001652441,-1.5516370106908246,6.079315340356473,-4.982216647928761
6.916281631545533,-1.7624248857005267,6.029493173877185,-4.80552559299404
6.898657382688528,-1.9658981722803786,5.981437917947245,-4.628279893866897
6.878998400965724,-2.161928553225308,5.935155119008576,-4.449280169998595
6.857379115433471,-2.3504279846919456,5.89066231730859,-4.2674183334912765
6.833874835586551,-2.5313408244700693,5.8479881339736774,-4.081703821629314
6.80856142734185,-2.704644767559091,5.8071710957573845,-3.8912779543707425
6.781514979666259,-2.8703568213084165,5.768258316213677,-3.6954204091372116
6.752811411453175,-3.028541780195531,5.731304112122305,-3.4935501761581813
6.72252599365122,-3.179321473451371,5.696368610360723,-3.2852223690666573
6.690732778916706,-3.3228836009791682,5.663516386670056,-3.070121705326101
6.6575039429069145,-3.4594893414263312,5.632815169616795,-2.8480531941403986
6.622909049492651,-3.589479171316929,5.604334637675391,-2.6189304800488338
6.587014257779481,-3.713276509480553,5.578145332874903,-2.3827623276078618
6.549881492684675,-3.8313889108187884,5.554317709598824,-2.139637860580544
6.511567603576488,-3.9444065772378125,5.532921330993019,-1.889711371599354
6.4721235378041095,-4.052997918622009,5.514024217277025,-1.633187796689968
6.431593558617889,-4.15790175856736,5.497692339310126,-1.3703103232317022
6.390014541032215,-4.259915500815581,5.483989236077808,-1.1013521113075335
6.34741538602406,-4.359878100095751,5.472975714964733,-0.8266148240888072
6.303816605023102,-4.458645944726311,5.464709566723845,-0.5464376790293373
6.259230145575839,-4.557058670462832,5.459245189933552,-0.2612221706758099
6.2136595588712105,-4.655890394675454,5.456632968226794,0.02852039407384105
6.167100654924456,-4.755779836600555,5.456918172167533,0.32208879850762
6.11954285655845,-4.857130378361599,5.460139060152609,0.6184664377618595
6.070971552774834,-4.959968843241454,5.466323724530228,0.9161348687403289
6.021371864342419,-5.063751077797892,5.475485073217631,1.212810412121869
5.97073435356444,-5.167106604681565,5.48761317733885,1.505094508054974
5.919063287517624,-5.267529914192824,5.502664122419399,1.7880511165618609
5.866387988375696,-5.361061958459537,5.5205446335850175,2.0547764057082682
5.812777368791101,-5.44207124558958,5.5410923976421005,2.296119896749169
5.758356656335206,-5.503333947507281,5.564053596609592,2.5008434087897897
5.703323316860133,-5.536676890141338,5.58906203069749,2.6565929856473796
5.64795654795872,-5.534368722625149,5.615627960553964,2.7519420201690403
5.592612860732468,-5.491095139439199,5.6431473807556545,2.7792601375177504
5.537701909338076,-5.405805304669034,5.670939982130832,2.737376570362427
5.483643856291386,-5.2824217110826375,5.698313747834456,2.6325870550829196
5.43081963918056,-5.128871982704186,5.724639618385286,2.477224408039627
5.379530919353518,-4.954924356016163,5.749411862465682,2.2864838056235652
5.3299816757933565,-4.769958310058397,5.7722767005219175,2.0751339708663172
5.282282092692773,-4.581544969188786,5.793028040230581,1.855386310555526
5.2364666430008855,-4.395002494981237,5.811581903336136,1.6361775668323857
5.192516618051073,-4.213610374983682,5.82794367900446,1.4234228950602152
5.1503805143012364,-4.03909188021178,5.842177907955063,1.2206789843730965
5.109989595499119,-3.8721089007825884,5.8543846977987934,1.0298443123211882
5.071268506491293,-3.7126608490782598,5.864683140922005,0.851733910459685
5.03414189800051,-3.5603685817250406,5.873200480026602,0.686495444942605
4.99853821218326,-3.414661342035122,5.880065434476029,0.5338885899739372
4.964391598762909,-3.274893014307495,5.885404320375768,0.39346325707429786
