th1 (rad),w1 (rad/s),th2 (rad),w2 (rad/s),a1 (rad/s^2),a2 (rad/s^2)
0.7879625808397138,-0.27111648513540343,4.039241360996917,-3.1214173422575016,-7.250256172789787,0.4636193859166957
0.7852514159883598,-0.3436190468633013,4.008027187574342,-3.1167811483983345,-7.145250611644931,0.3557024189764525
0.7818152255197268,-0.4150715529797506,3.9768593760903586,-3.11322412420857,-7.041987503922301,0.24373420963181539
0.7776645099899293,-0.4854914280189736,3.9457271348482728,-3.110786782112252,-6.940932150176324,0.1259962458205795
0.7728095957097396,-0.5549007495207369,3.9146192670271502,-3.109526819654046,-6.842374253498965,0.0010806031865759989
0.7672605882145322,-0.6233244920557265,3.8835239988306096,-3.1095160136221804,-6.746416056727194,-0.1321058958686883
0.761027343293975,-0.6907886526229984,3.852428838694388,-3.110837072580867,-6.652970837340015,-0.274350079968182
0.7541194567677451,-0.7573183609963985,3.821320467968579,-3.113580573380549,-6.561769787477771,-0.42615064384471874
0.7465462731577811,-0.8229360588711762,3.7901846622347737,-3.1178420798189963,-6.472375084926632,-0.5877431987752274
0.7383169125690694,-0.8876598097204424,3.759006241436584,-3.1237195118067485,-6.384196991856067,-0.7591292731642681
0.729440314471865,-0.9515017796390031,3.7277690463185165,-3.131310804538391,-6.296513036033156,-0.9401067184335888
0.7199252966754749,-1.0144669099993346,3.6964559382731323,-3.140711871722727,-6.208487662830388,-1.1302994590867148
0.7097806275754815,-1.0765517866276386,3.665048819555905,-3.152014866313594,-6.119191130639895,-1.3291850640206213
0.6990151097092052,-1.1377436979340376,3.633528670892769,-3.1653067169538,-6.027616805914531,-1.5361191403806
0.6876376727298649,-1.1980198659931829,3.601875603723231,-3.180667908357606,-5.932696361750326,-1.7503560161672225
0.675657474069933,-1.2573468296106862,3.570068924639655,-3.1981714685192784,-5.833312675863721,-1.9710655594591768
0.6630840057738262,-1.3156799563693233,3.5380872099544622,-3.21788212411387,-5.728310452758764,-2.1973462736558633
0.649927206210133,-1.372963060896911,3.5059083887133236,-3.2398555868504286,-5.616504762615384,-2.4282350146435134
0.6361975756011639,-1.429128108523065,3.4735098328448193,-3.264137936996864,-5.4966878033065605,-2.662713809381746
0.6219062945159332,-1.4840949865561306,3.4408684534748506,-3.2907650750906816,-5.367634261964968,-2.8997143313201286
0.6070653446503719,-1.5377713291757802,3.407960802723944,-3.319762218403883,-5.228105689175951,-3.138120621764513
0.591687631358614,-1.5900523860675397,3.374763180539905,-3.351143424621528,-5.076854311796416,-3.376770651754926
0.5757871074979386,-1.6408209291855038,3.3412517462936897,-3.3849111311390776,-4.912626707550781,-3.614457307642018
0.5593788982060836,-1.6899471962610115,3.307402634982299,-3.421055704215498,-4.734167751912854,-3.849929363987482
0.5424794262434735,-1.7372888737801402,3.273192077940144,-3.459554997855373,-4.5402252293091765,-4.0818929855192625
0.525106537505672,-1.7826911260732319,3.2385965279615903,-3.5003739277105654,-4.329555478460454,-4.309014278966732
0.5072796262449397,-1.8259866808578364,3.2035927886844844,-3.543464070500233,-4.100930416139226,-4.529923396799698
0.48901975943636133,-1.8669959850192288,3.168158147979482,-3.58876330446823,-3.853146253772065,-4.743220677436528
0.47034979958616907,-1.9055274475569495,3.1322705149348,-3.636195511242595,-3.5850341849889875,-4.947485288036269
0.4512945251105996,-1.9413777894068394,3.095908559822374,-3.685670364122958,-3.29547327633078,-5.141286812915835
0.4318807472165312,-1.974332522170147,3.0590518561811444,-3.7370832322521164,-2.983405734112638,-5.323200198276086
0.4121374219948297,-2.0041665795112733,3.021681023858623,-3.7903152342348774,-2.647854643797142,-5.491824416885677
0.392095756199717,-2.0306451259492446,2.983777871516274,-3.8452334784037343,-2.2879441800512916,-5.645805148889653
0.37178930494022455,-2.0535245677497573,2.945325536732237,-3.9016915298926307,-1.9029221623290826,-5.78386168130222
0.35125405926272696,-2.0725537893730483,2.9063086214333107,-3.959530146705653,-1.49218467976395,-5.904818104025205
0.33052852136899646,-2.0874756361706877,2.8667133199662542,-4.018578327745905,-1.0553023295360628,-6.0076387208719195
0.3096537650072896,-2.098028659466048,2.826527536688795,-4.078654714954624,-0.592047406351535,-6.091467398892419
0.2886734784126291,-2.1039491335295635,2.785740989539249,-4.139569388943548,-0.10242115215630679,-6.155670350471244
0.26763398707733344,-2.1049733450511265,2.7443452956498136,-4.201126092448261,0.41332006640398183,-6.199881586758378
0.24658425362682218,-2.1008401443870865,2.702334034725331,-4.263124908315845,0.9546410266424438,-6.22405000981542
0.22557585218295131,-2.0912937341206623,2.6597027856421724,-4.325365408413999,1.5207079617456527,-6.2284868420645765
0.2046629148417447,-2.076086654503206,2.6164491315580323,-4.387650276834645,2.1103746963496857,-6.213911848747861
0.18390204829671264,-2.054982907539709,2.5725726287896857,-4.4497893953221235,2.7221765047322055,-6.1814966208374065
0.16335221922131554,-2.027761142492387,2.5280747348364647,-4.511604361530497,3.354333618990292,-6.1329030844174905
0.14307460779639167,-1.9942178063024842,2.48295869122116,-4.572933392374672,4.004766229678612,-6.070315421110424
0.12313242973336683,-1.9541701440056982,2.4372293572974133,-4.633636546585777,4.6711226058918935,-5.9964637531009535
0.10359072829330984,-1.9074589179467794,2.3908929918315556,-4.693601184116786,5.3508216082900315,-5.914638289329522
0.08451613911384205,-1.853950701863879,2.343956979990388,-4.752747567010081,6.0411103833609605,-5.828693158923615
0.06597663209520326,-1.7935395980302693,2.296429504320287,-4.811034498599317,6.739137433162147,-5.743039871529304
0.04804123611490056,-1.7261482236986478,2.248319159334294,-4.86846489731461,7.442040592619234,-5.662631222409029
0.030779753877914085,-1.6517278177724555,2.199634510361148,-4.9250912095387,8.147048773852783,-5.592937466377145
0.014262475700189532,-1.5702573300339275,2.150383598265761,-4.981020584202471,8.851595724967448,-5.539917667848211
-0.0014400976001497437,-1.481741372784253,2.1005733924237364,-5.036419760880953,9.553443577524622,-5.509990234711748
-0.016257511327992274,-1.3862069370090069,2.050209194814927,-5.091519663228071,10.250813699881661,-5.510007700999119
-0.030119580698082342,-1.2836988000101903,1.9992939981826463,-5.146619740238061,10.9425223999989,-5.54724178578669
-0.04295656869818425,-1.1742735760102012,1.9478278007802656,-5.202092158095928,11.628119379368528,-5.629385589983395
-0.05469930445828626,-1.057992382216516,1.8958068791993063,-5.258386013995762,12.308027550673696,-5.764580490027247
-0.06527922828045142,-0.9349121067097791,1.8432230190593488,-5.316031818896034,12.983683883770743,-5.961475866405667
-0.07462834934754921,-0.8050752678720716,1.7900627008703884,-5.375646577560091,13.65768228703654,-6.229330304471421
-0.08267910202626992,-0.6684984450017062,1.7363062350947875,-5.437939880604805,14.333921066699782,-6.578163366736926
-0.08936408647628698,-0.5251592343347083,1.6819268362887394,-5.503721514272175,15.017759074018752,-7.018967465307799
-0.09461567881963406,-0.3749816435945208,1.6268896211460175,-5.573911188925253,15.716185984028904,-7.563989658188797
-0.09836549525557928,-0.21781978375423175,1.571150509256765,-5.649551085507141,16.438012796225234,-8.227093010518935
-0.1005436930931216,-0.0534396557919794,1.5146549984016937,-5.73182201561233,17.1940877893492,-9.024205666294954
-0.1010780896510414,0.11850122210151262,1.4573367782455704,-5.82206407227528,17.997539269465957,-9.97386116202458
-0.09989307743002628,0.29847661479617216,1.3991161375228176,-5.9218026838955256,18.864036596087647,-11.097822075502489
-0.09690831128206455,0.4871169807570486,1.3398981106838623,-6.032780904650551,19.812039494073534,-12.421753416103444
-0.09203714147449406,0.685237375697784,1.2795703016373567,-6.156998438811585,20.862961549451068,-13.975857503406308
-0.08518476771751622,0.8938669911922946,1.2180003172492408,-6.296757013845648,22.041085583474537,-15.795269374371758
-0.07624609780559327,1.11427784702704,1.1550327471107844,-6.454709707589365,23.37289450066698,-17.919783801629325
-0.06510331933532287,1.3480067920337098,1.0904856500348907,-6.633907545605658,24.885140322233383,-20.392030091416178
-0.05162325141498578,1.5968581952560437,1.024146574578834,-6.83782784651982,26.60031268439356,-23.252314732202535
-0.03565466946242534,1.8628613220999792,0.9557682961136359,-7.070350993841846,28.526905876737192,-26.526620418215273
-0.017026056241425547,2.148130380867351,0.8850647861752174,-7.335617198023998,30.63955822069377,-30.20102367463208
0.004455247567247963,2.454525963074289,0.8117086141949774,-7.637627434770319,32.84017676499681,-34.17023002912661
0.029000507197990855,2.782927730724257,0.7353323398472742,-7.979329735061585,34.88563246341207,-38.14000844050322
0.056829784505233426,3.131784055358378,0.6555390424966583,-8.360729819466616,36.264494901427845,-41.45833376385935
0.08814762505881721,3.4944290043726562,0.5719317443019921,-8.77531315710521,36.022690697934244,-42.87283744643795
0.12309191510254378,3.8546559113519985,0.48417861273094004,-9.204041531569588,32.628211925186726,-40.33518048553162
0.16163847421606375,4.1809380306038655,0.39213819741524414,-9.607393336424904,24.20415110066664,-31.30283414176153
0.2034478545221024,4.422979541610532,0.29606426405099506,-9.92042167784252,9.707104947681326,-14.333972397712227
0.24767764993820773,4.520050591087346,0.19686004727256987,-10.063761401819642,-9.048354281211113,8.157682073238618
0.29287815584908117,4.429567048275235,0.09622243325437345,-9.982184581087255,-26.93633842037611,29.309400356454123
0.3371738263318335,4.1602036640714735,-0.003599412556499107,-9.689090577522714,-38.989629197333,42.56723811948741
0.3787758629725482,3.7703073720981433,-0.10049031833172625,-9.26341819632784,-44.123981898287276,46.690874947955955
0.41647893669352964,3.3290675531152703,-0.19312450029500466,-8.796509446848281,-44.41616964353647,44.64190015686082
0.44976961222468237,2.8849058566799055,-0.2810895947634875,-8.350090445279672,-42.352557637283304,39.809779372793415
0.4786186707914814,2.4613802803070723,-0.3645904992162842,-7.9519926515517385,-39.53432407480803,34.31172977895037
0.5032324735945521,2.066037039558992,-0.4441104257318016,-7.608875353762235,-36.72829210503092,29.119611337539528
0.523892843990142,1.698754118508683,-0.5201991792694239,-7.317679240386839,-34.22331723658064,24.569390929588298
0.5408803851752289,1.3565209461428767,-0.5933759716732924,-7.071985331090956,-32.08624305247674,20.713648727297958
0.5544455946366577,1.0356585156181093,-0.6640958249842019,-6.864848843817977,-30.294360637915013,17.49894560380167
0.5648021797928388,0.7327149092389591,-0.7327443134223817,-6.68985938777996,-28.795115175908027,14.843002139971174
0.5721293288852284,0.44476375747987884,-0.7996429073001813,-6.541429366380249,-27.530749781513894,12.664742125628031
0.5765769664600272,0.16945625966473987,-0.8650572009639838,-6.414781945123968,-26.447470895930664,10.894095633850851
0.5782715290566746,-0.09501844929456676,-0.9292050204152235,-6.30584098878546,-25.49816472855519,9.473685188506678
0.5773213445637289,-0.35000009658011866,-0.9922634303030781,-6.211104136900393,-24.64261345682626,8.35756019747977
0.5738213435979277,-0.5964262311483812,-1.054374471672082,-6.127528534925595,-23.846878536805995,7.509088274592841
0.5678570812864439,-0.8348950165164412,-1.115649757021338,-6.052437652179667,-23.082523411371447,6.898815457242993
0.5595081311212794,-1.0657202506301555,-1.1761741335431346,-5.983449497607237,-22.325920913649927,6.502573307718346
0.5488509286149779,-1.2889794597666548,-1.236008628519207,-5.918423764530054,-21.55771085274016,6.299900756936686
0.5359611340173113,-1.5045565682940565,-1.2951928661645074,-5.855424756960687,-20.762400374985923,6.272773236913824
0.5209155683343707,-1.7121805720439158,-1.3537471137341142,-5.792697024591549,-19.92807295173117,6.404610251450402
0.5037937626139315,-1.9114613015612276,-1.4116740839800297,-5.728650922077045,-19.046165128783603,6.679530652937044
0.4846791495983192,-2.1019229528490637,-1.4689605932008,-5.661855615547674,-18.11127237526372,7.0818281772186475
0.4636599200698286,-2.283035676601701,-1.525579149356277,-5.591037333775488,-17.12095179017289,7.595642635899442
0.44082956330381157,-2.4542451945034296,-1.5814895226940318,-5.515080907416494,-16.07549797055742,8.204802874878864
0.4162871113587773,-2.615000174209004,-1.6366403317681968,-5.433032878667706,-14.977677859860915,8.892816262894117
0.39013710961668724,-2.764776952807613,-1.6909706605548738,-5.344104716038764,-13.832419972948644,9.642976960793076
0.3624893400886111,-2.9031011525370998,-1.7444117077152614,-5.247674946430833,-12.646462164310877,10.438562704691094
0.3334583285632401,-3.0295657741802087,-1.7968884571795698,-5.143289319383922,-11.42796924872018,11.26308841638641
0.303162670821438,-3.1438454666674103,-1.848321350373409,-5.030658435220058,-10.186136645836614,12.100585436078774
0.2717242161547639,-3.2457068331257766,-1.8986279347256096,-4.90965258085927,-8.930798439842926,12.935877914466193
0.2392671478235061,-3.335014817524206,-1.9477244605342023,-4.780293801714609,-7.672057829099995,13.754832774356961
0.20591699964826404,-3.4117353958152057,-1.9955273985513484,-4.642745473971039,-6.419955265252706,14.544566099519184
0.17179964569011197,-3.475934948467733,-2.0419548532910587,-4.4972998129758475,-5.184185312501659,15.293595992792358
0.13704029620543465,-3.5277768015927493,-2.086927851420817,-4.344363853047924,-3.9738682163570966,15.991938938654785
0.10176252818950715,-3.56751548375632,-2.130371489951296,-4.184444463661376,-2.7973771758864623,16.631152678263657
0.06608737335194395,-3.5954892555151847,-2.17221593458791,-4.0181329368787395,-1.66221804382676,17.204332970899713
0.0301324807967921,-3.6121114359534525,-2.2123972639566976,-3.8460896071697426,-0.574955084233557,17.706074105059667
-0.005988633562742422,-3.617860986795788,-2.250858160028395,-3.669028866119146,0.4588253162243825,18.132403682689908
-0.0421672434307003,-3.6132727336335444,-2.2875484486895865,-3.4877048292922472,1.4345215154014956,18.480701336593768
-0.07829997076703574,-3.5989275184795293,-2.322425496982509,-3.3028978159263094,2.348501954492661,18.749609122193224
-0.11428924595183103,-3.5754424989346028,-2.355454475141772,-3.1154017247043773,3.1980754995352245,18.93893887777876
-0.15004367094117704,-3.5434617439392504,-2.386608492388816,-2.9260123359265897,3.9814516029269287,19.04957936605739
-0.18547828838056954,-3.503647227909981,-2.4158686157480815,-2.7355165422660157,4.69769337453761,19.08340388774362
-0.22051476065966935,-3.456670294164605,-2.4432237811707416,-2.5446825033885796,5.346665170396991,19.043177551047187
-0.2550814636013154,-3.4032036424606353,-2.4686706062046273,-2.3542507278781075,5.928975233974176,18.932462598607223
-0.28911350002592173,-3.3439138901208936,-2.4922131134834085,-2.164926101892035,6.445913323956446,18.755520112641918
-0.32255263892713065,-3.279454756881329,-2.5138623745023287,-1.977370900765616,6.899383110243645,18.517206914095073
-0.35534718649594393,-3.2104609257788925,-2.5336360835099847,-1.792198831624665,7.291829329784101,18.222867352146753
-0.38745179575373284,-3.1375426324810514,-2.551558071826231,-1.6099701581031975,7.626160141628189,17.878220731724284
-0.41882722207854334,-3.0612810310647696,-2.567657773407263,-1.4311879507859546,7.905665670566449,17.48924614484763
-0.44944003238919106,-2.982224374359105,-2.581969652915123,-1.2562954893374783,8.1339342563357,17.062067291799124
-0.4792622761327821,-2.900885031795748,-2.594532607808498,-1.085674816419487,8.314768333161545,16.602840391060127
-0.5082711264507396,-2.8177373484641324,-2.605389355972693,-0.9196464125088857,8.452102090996368,16.117648435159442
-0.5364484999353809,-2.7332163275541688,-2.6145858200977816,-0.7584699281572913,8.549923091734556,15.612404862793404
-0.5637806632109226,-2.647717096636823,-2.6221705193793547,-0.6023458795293573,8.61219984118729,15.09276924097982
-0.5902578341772908,-2.56159509822495,-2.6281939781746484,-0.45141818711955906,8.64281698635833,14.56407686894862
-0.6158737851595404,-2.4751669283613666,-2.632708160045844,-0.3057774184300729,8.645519368469309,14.031283424308098
-0.6406254544431541,-2.3887117346766735,-2.635765934230145,-0.1654645841869919,8.623865671165555,13.498924964846514
-0.6645125717899208,-2.302473077965018,-2.637420580072015,-0.030475334538526744,8.581191912813122,12.971092854534877
-0.687537302569571,-2.216661158836887,-2.6377253334174005,0.09923559400682203,8.5205845846713,12.45142255684777
-0.7097039141579399,-2.131455312990174,-2.6367329774773323,0.2237498195752997,8.444862863149966,11.943094765741547
-0.7310184672878416,-2.0470066843586743,-2.634495479281579,0.3431807672327152,8.35656904107864,11.448847035722022
-0.7514885341314284,-1.9634409939478878,-2.631063671609252,0.4576692375899354,8.257966134516337,10.970993920468594
-0.7711229440709072,-1.8808613326027244,-2.6264869792333525,0.5673791767946214,8.151041523040103,10.511453614634265
-0.7899315573969344,-1.7993509173723234,-2.6208131874654064,0.672493712940964,8.037515460908805,10.071779188371822
-0.8079250665706577,-1.7189757627632354,-2.6140882503359966,0.7732115048246823,7.9188533385149125,9.653192678749269
-0.82511482419829,-1.6397872293780862,-2.60635613528775,0.8697434316121749,7.796280661403456,9.256620527361427
-0.8415126964920708,-1.5618244227640516,-2.597658700971628,0.9623096368857892,7.670799831841761,8.882729103412878
-0.8571309407197113,-1.485116424445634,-2.58803560460277,1.0511369279199179,7.543207951405685,8.531959305453451
-0.8719821049641676,-1.4096843449315772,-2.577524235323571,1.1364565209744524,7.414115000867085,8.204559477173301
-0.8860789484134833,-1.3355431949229064,-2.566159670113826,1.2185021157461855,7.2839618872002845,7.900616092639953
-0.8994343803627124,-1.2627035760509036,-2.5539746489563644,1.297508276672585,7.153037970830821,7.620081857920949
-0.9120614161232214,-1.1911731963425953,-2.5409995661896385,1.3737090952517945,7.021497795728214,7.362801036576372
-0.9239731480866474,-1.1209582183853133,-2.5272624752371207,1.4473371056175584,6.889376838901035,7.128531936079894
-0.9351827302705006,-1.052064449996303,-2.512789104180945,1.5186224249783573,6.756606174041266,6.916966592714169
-0.9457033747704636,-0.9844983882558903,-2.4976028799311614,1.587792090905499,6.623026007266501,6.727747766872602
-0.9555483586530226,-0.9182681281832253,-2.4817249590221064,1.655069568574225,6.48839809256966,6.560483412507467
-0.9647310399348549,-0.8533841472575288,-2.465174263336364,1.7206744026992995,6.352417072532555,6.414758817324565
-0.9732648814074302,-0.7898599765322032,-2.447967519309371,1.7848219908725451,6.21472081808374,6.290146627677983
-0.9811634811727522,-0.7277127683513658,-2.4301192994006455,1.8477234571493248,6.074899861594402,6.186214977023708
-0.9884406088562658,-0.6669637697354217,-2.4116420648291523,1.909585606919562,5.932506032348836,6.102533931814073
-0.99511024655362,-0.6076387094119333,-2.3925462087599567,1.9706109462377028,5.787060414223872,6.038680455877159
-1.0011866336477393,-0.5497681052696946,-2.3728400992975796,2.0309977507964745,5.638060753963601,5.994242075087192
-1.0066843147004363,-0.4933874977300585,-2.3525301217896146,2.0909401715473463,5.484988456333925,5.968819399396566
-1.011618189677737,-0.43853761316671924,-2.3316207200741412,2.150628365541312,5.327315311205709,5.9620276294250445
-1.0160035658094042,-0.38526446005466214,-2.3101144364187283,2.2102486418355625,5.164510108748965,5.973497139601157
-1.019856210409951,-0.3336193589671725,-2.2880119500003726,2.269983613231574,4.996045313974615,6.002873188589789
-1.0231924039996225,-0.28365890582742637,-2.265312113868057,2.330012345117472,4.821403992514295,6.049814759102845
-1.0260289930578967,-0.23544486590228342,-2.242011990416882,2.3905104927085006,4.640087207679031,6.1139924712285
-1.0283834417169195,-0.1890439938254931,-2.218106885489797,2.4516504174207854,4.451622146701759,6.195085443463644
