th1 (rad),w1 (rad/s),th2 (rad),w2 (rad/s)
5.780367149035154,0.629566338726886,4.018727482426931,0.5852196693113635
5.786662812422423,0.6835988312779172,4.024579679120044,0.6747137051607318
5.793498800735202,0.7366411708881851,4.031326816171651,0.7651046652246039
5.800865212444084,0.7885485190097924,4.038977862823897,0.8564419081843933
5.808750697634181,0.8391714920649581,4.0475422819057405,0.9487681293459898
5.817142412554831,0.8883558656943905,4.0570299631992,1.042118864579778
5.826025971211775,0.9359423269996815,4.067451151844998,1.1365220514087506
5.835385394481771,0.9817662821231692,4.078816372359086,1.2319976589755082
5.845203057303003,1.0256577266501232,4.091136348948841,1.3285573997763531
5.855459634569504,1.0674411862989763,4.104421922946605,1.4262045371907357
5.866134046432494,1.1069357351406532,4.118683968318512,1.5249338039194942
5.8772034037839,1.1439550981091755,4.133933306357707,1.6247314474338401
5.888642954764992,1.1783078437812289,4.150180620832045,1.7255754193836723
5.9004260332028045,1.2097976722594839,4.167436375025882,1.8274357265712404
5.9125240099253995,1.2382238014407532,4.185710732291594,1.9302749615169557
5.924906247939807,1.263381452935905,4.2050134819067635,2.0340490307832466
5.937540062469166,1.2850624363897767,4.225353972214596,2.1387080990406764
5.950390686833064,1.303055827891099,4.246741053205003,2.2441977663289943
5.963421245111975,1.3171487345424442,4.269183030868293,2.350460495070449
5.976592732457399,1.327127133073238,4.292687635818997,2.457437302140278
5.989864003788131,1.3327767656410885,4.3172620088404,2.565069729723449
6.003191771444542,1.333884070719659,4.342912706137635,2.673302106854123
6.016530612151739,1.3302371212859663,4.3696457272061755,2.782084111550242
6.0298329833645985,1.3216265364994995,4.397466568321678,2.8913736414685816
6.043049248729593,1.3078463268476557,4.426380304736364,3.0011399992087804
6.056127711998069,1.2886946264903747,4.456391704728452,3.1113673970246545
6.069014658262973,1.263974260482413,4.487505378698698,3.22205878502882
6.081654400867797,1.233493088934972,4.519725966548986,3.333240007292354
6.093989331757147,1.1970640652959763,4.55305836662191,3.444964291824682
6.105959972410107,1.1545049421378824,4.587508009540157,3.5573170834925225
6.1175050218314855,1.105637555594139,4.623081180375082,3.6704212335914903
6.1285613973874264,1.0502866194852547,4.6597853927109965,3.784442565863187
6.139064263582279,0.9882779630940028,4.697629818369628,3.8995958456685518
6.148947043213219,0.9194361538192495,4.736625776826314,4.016151185482521
6.158141404751412,0.8435814596859685,4.776787288681139,4.134440923386101
6.166577219348271,0.7605261303920741,4.818131697915,4.254867007396014
6.174182480652192,0.670070014979051,4.86068036798896,4.377908899737239
6.180883180801982,0.5719955988606197,4.9044594569863325,4.504131968811182
6.1866031367905885,0.4660626486539236,4.949500776674444,4.6341962414113995
6.191263763277128,0.3520028262302141,4.995842739088558,4.768865208401324
6.19478379153943,0.22951491690116066,5.043531391172571,4.909014055078357
6.197078940708441,0.09826178185313195,5.092621531723355,5.055636126021133
6.198061558526972,-0.04212909180375479,5.143177892983567,5.209845474026615
6.197640267608935,-0.1920583204443711,5.195276347723833,5.372871723937586
6.195719684404491,-0.3519354751391518,5.2490050649632085,5.546040788284521
6.192200329653099,-0.5221396186897751,5.304465472846053,5.730730556602603
6.186978933466201,-0.7029459123622445,5.36177277841208,5.928283601852684
6.179949474342578,-0.8943967754556652,5.421055614430607,6.139848001411912
6.171005506588021,-1.0960848082547674,5.4824540944447255,6.366101508557126
6.160044658505473,-1.306800712839095,5.546115109530297,6.606794179477048
6.1469766513770825,-1.5239879102145235,5.612183051325068,6.8600267984458325
6.131736772274937,-1.7429532308529812,5.680783319309526,7.1211895502169975
6.114307239966408,-1.955850738694839,5.751995214811696,7.381573028933383
6.094748732579459,-2.1506576364071766,5.82581094510103,7.626934362869263
6.073242156215388,-2.3107693625460457,5.902080288729723,7.836856707355283
6.050134462589927,-2.4163480410242615,5.980448855803275,7.986438264699304
6.025970982179684,-2.448539860586214,6.060313238450268,8.051834486685054
6.001485583573822,-2.396072357407514,6.1408315833171185,8.019000480654668
5.977524859999747,-2.2607531713555375,6.221021588123665,7.890922316809002
5.954917328286191,-2.057417806352123,6.2999308112917545,7.687350778689508
5.93434315022267,-1.8078864378493715,6.37680431907865,7.436566793962978
5.916264285844176,-1.5334846708653656,6.45116998701828,7.165434110479993
5.900929439135522,-1.2505542517412036,6.52282432812308,6.893651774917433
5.88842389661811,-0.9696245218074195,6.591760845872254,6.632947509910728
5.878727651400036,-0.6965750347862109,6.658090320971361,6.3888523979714025
5.8717619010521735,-0.43421310378410666,6.721978844951075,6.162921914506571
5.867419770014332,-0.1835528471113982,6.783608064096141,5.954479420585766
5.8655842415432184,0.055334261319847394,6.843152858301998,5.761746071006915
5.866137584156417,0.28281121120248265,6.900770319012067,5.582498381124
5.868965696268441,0.49939308542155714,6.956595302823307,5.414423082381188
5.873959627122657,0.7056005448462412,7.0107395336471185,5.2552953824938315
5.88101563257112,0.9018909441910238,7.063292487472057,5.103060157566679
5.89003454201303,1.0886323058188814,7.114323089047724,4.955862350248586
5.900920865071218,1.266100228550925,7.16388171255021,4.812052243170293
5.9135818673567275,1.434486571883908,7.212002234981913,4.670179332133753
5.927926733075567,1.5939137412231086,7.25870402830325,4.528981844294994
5.943865870487798,1.7444511767808777,7.3039938467462004,4.387375297754955
5.961310382255607,1.8861321751781313,7.34786759972375,4.244441547392801
5.980171704007388,2.0189700043470977,7.3903120151976776,4.099418748248483
6.000361404050858,2.1429727240216336,7.431306202680163,3.951692169562276
6.021791131291074,2.2581563720595756,7.470823124375785,3.8007855765958114
6.0443726950116705,2.3645563185586496,7.508830980141743,3.6463528351695653
6.068018258197257,2.462236678343225,7.5452945084934395,3.4881694142157906
6.092640624980689,2.5512977360321245,7.580176202635597,3.3261235244005873
6.11815360234101,2.6318813905434673,7.613437437879603,3.160206712758965
6.144472416246445,2.7041746736322874,7.645039505007193,2.990503820356993
6.171514162982768,2.768411441651759,7.674944543210763,2.8171822935563053
6.199198277399286,2.824872380738204,7.703116366146325,2.6404809139726813
6.227447001206667,2.8738835016606425,7.729521175286052,2.460698074210913
6.256185836223274,2.9158133300670137,7.754128156028162,2.278179773915764
6.285343969523944,2.9510690194460936,7.776909953767319,2.0933075427466212
6.314854659718405,2.980091626892945,7.797843029194786,1.9064865136499105
6.344655575987335,3.003350795327541,7.816907894331285,1.7181338721512336
6.37468908394061,3.0213390803048354,7.834089233052797,1.5286678968658134
6.4049024747436585,3.034566145570768,7.849375912021455,1.338497785121003
6.435248136199366,3.043553030040387,7.862760889872665,1.1480144280083853
6.46568366649977,3.0488266611443073,7.874241034152749,0.9575822641417511
6.4961719331112135,3.0509147568883095,7.883816856794166,0.7675323038697521
6.526681080680096,3.0503412228764177,7.891492179832864,0.5781563787127417
6.557184492908861,3.047622112190596,7.897273743619991,0.38970263735476074
6.587660714030767,3.043262176331358,7.901170769993538,0.202372282512062
6.6180933357940805,3.037751994883194,7.903194492818659,0.016317525193299542
6.648470855742913,3.031565630052869,7.9033576680705915,-0.16835927301585557
6.678786512043441,3.0251587088546636,7.901674075340433,-0.35160529015863085
6.709038099131988,3.018966788681356,7.898158022438847,-0.5334157603953877
6.739227767018801,3.013403808406868,7.8928238648348925,-0.7138312621846732
6.76936180510287,3.0088603628446116,7.885685552213046,-0.8929336486925512
6.799450408731316,3.0057014577191357,7.87675621572612,-1.0708403832939972
6.829507423308507,3.004263298150331,7.86604781189318,-1.247696894467043
6.8595500562900105,3.004848527478693,7.85357084294851,-1.423666365054872
6.889598541564798,3.007719155937621,7.8393341792979605,-1.5989161099891271
6.919675733124174,3.0130861924851406,7.8233450181980695,-1.773599365063817
6.949806595049025,3.0210947163440096,7.805609024547431,-1.9478309061084706
6.980017542212465,3.031802811175248,7.786130715486347,-2.121654462647177
7.010335570324218,3.0451524811989135,7.764914170859875,-2.29499944790194
7.040787095136206,3.06093048618567,7.741964176380855,-2.467624251362113
7.071396399998063,3.0787171965206546,7.717287933867234,-2.639043542391864
7.10218357196327,3.0978224893561004,7.690897498443316,-2.808438278634482
7.133161796856831,3.117210044860595,7.662813115656971,-2.97455031814324
7.164333897305436,3.135416078978357,7.633067612475538,-3.135569974482334
7.19568805809522,3.1504765220963917,7.601711912730715,-3.2890358515927645
7.227192823316184,3.1598881673149393,7.568821554214788,-3.4317821803349644
7.258791704989333,3.1606423186495203,7.534503732411438,-3.559986782718523
7.290398128175829,3.149377375778071,7.4989038645842525,-3.6693835169079794
7.3218919019336095,3.1226873300849314,7.462210029415172,-3.755689529728595
7.353118775234459,3.0775826092446805,7.424653134117887,-3.8152408685126113
7.383894601326906,3.0120266342374356,7.386500725432761,-3.8457282190973343
7.41401486766928,2.9253943566002696,7.348043443241788,-3.846817890273071
7.443268811235283,2.8186753524943318,7.309575264339057,-3.8204119175797127
7.471455564760227,2.6943185017396902,7.27137114516326,-3.7704071609734244
7.498398749777624,2.5557632003709405,7.2336670735535264,-3.702020813401704
7.523956381781333,2.406830030567373,7.19664686541951,-3.6209274371916447
7.548024682087006,2.251170032232021,7.160437591047593,-3.532486665450872
7.570536382409326,2.0918988059482326,7.125112724393085,-3.441236234005955
7.591455370468808,1.9314385061602957,7.090700362053025,-3.350679552918729
7.610769755530411,1.7715201283654465,7.0571935665238374,-3.263298448424276
7.628484956814066,1.6132771302295357,7.024560582039594,-3.1806927911274347
7.644617728116361,1.4573727523752682,6.99275365412832,-3.1037655642261113
7.659191455640114,1.3041252354474895,6.961715998486059,-3.0329031505529
7.6722327079945885,1.153614157629941,6.93138696698053,-2.9681275859377134
7.683768849570888,1.0057633144579703,6.901705691121153,-2.9092147086766853
7.693826482715468,0.8604017625126039,6.872613544034386,-2.855780804796062
7.702430500340594,0.7173069856114022,6.844055735986426,-2.807343567944361
7.709603570196708,0.5762344503511884,6.815982300306982,-2.7633635658036098
7.71536591470022,0.43693726538856553,6.788348664648946,-2.723271582035394
7.719735287354106,0.29917886603219856,6.761115948828592,-2.686486055970532
7.7227270760144275,0.16274089094521446,6.734251088268887,-2.652423760038338
7.72435448492388,0.027427797708278523,6.707726850668504,-2.620505970092487
7.724628762900962,-0.10693070861967469,6.681521790967579,-2.590161711520919
7.723559455814765,-0.2404787046215881,6.65562017385237,-2.5608291746766643
7.721154668768549,-0.3733340507244175,6.630011882105603,-2.531956046270891
7.717421328261305,-0.5055890523693118,6.6046923216428945,-2.5029992614561443
7.712365437737612,-0.6373115831813078,6.579662329028333,-2.473424514164663
7.705992321905798,-0.7685465526994677,6.554928083886686,-2.442705748082828
7.698306856378803,-0.8993176544936028,6.530501026405858,-2.410324770947418
7.689313679833867,-1.0296293654836814,6.506397778696384,-2.3757710789859754
7.67901738617903,-1.1594691895265903,6.482640067906524,-2.3385419381854944
7.667422694283764,-1.288810151642247,6.459254648524669,-2.29814273909458
7.654534592767342,-1.4176135562230727,6.436273221133724,-2.254087618273058
7.640358457205111,-1.5458320250090603,6.4137323449509935,-2.2059003197944973
7.624900136955021,-1.6734128297881123,6.391673341753049,-2.1531152527745445
7.60816600865714,-1.8003015316344742,6.370142189225303,-2.095278684782986
7.590162993340795,-1.926445933757782,6.3491894023774735,-2.0319499957219325
7.570898534003217,-2.051800349311974,6.328869902420254,-1.962702902207332
7.550380530510098,-2.176330179346812,6.309242873398181,-1.8871265488654638
7.528617228716629,-2.3000167899627657,6.290371607909526,-1.8048263506973645
7.505617060817002,-2.422862672076866,6.272323344402552,-1.7154244604644358
7.4813884340962336,-2.544896862338242,6.255169099797907,-1.618559727862654
7.455939465472851,-2.6661805997653545,6.238983502519281,-1.5138870143595091
7.429277659475198,-2.7868131893846657,6.223844632375686,-1.4010757306986938
7.401409527581351,-2.906938040723378,6.209833875068699,-1.2798074756573354
7.372340147174118,-3.026748843686801,6.1970358003121255,-1.1497726782093418
7.34207265873725,-3.1464958338436846,6.185538073530032,-1.0106661861825261
7.310607700398813,-3.2664920777161823,6.175431411668207,-0.862181811214744
7.277942779621651,-3.387119666692831,6.166809593556059,-0.7040059457656342
7.244071582954723,-3.508835629795871,6.159769534098403,-0.5358105348595993
7.2089832266567635,-3.632177234922883,6.154411428749807,-0.3572459484030094
7.172661454307534,-3.757766103601492,6.150838969265776,-0.16793471659009054
7.135083793271519,-3.8863101486226714,6.149159622099876,0.032532246393051495
7.096220691785293,-4.018601650056186,6.149484944563806,0.24459424824510498
7.056034675284731,-4.15550864446422,6.151930887046257,0.4687098869910447
7.014479588840088,-4.297954955340815,6.156617985916167,0.7053295429179327
6.97150003928668,-4.446881258495042,6.163671281345347,0.9548400691965906
6.92703122670173,-4.6031750398859845,6.173219682037312,1.2174640526709162
6.88099947630287,-4.767550599716257,6.185394322564021,1.4930866366645994
6.833323970305708,-4.940351133163501,6.200325188930667,1.7809702597565442
6.783920458974073,-5.12123452644315,6.218134891528233,2.079303522908854
6.732708113709641,-5.308698090405082,6.238927926757321,2.3845223655984245
6.6796211328055906,-5.499409841231883,6.262773150413305,2.6903610504109126
6.624627034393272,-5.687377681185287,6.2896767609174145,2.986683421185429
6.567753257581419,-5.8631556289114855,6.319543595129269,3.258385998630919
6.509121701292305,-6.013595819975206,6.352127455115578,3.4851060375088054
6.448985743092552,-6.122997523924494,6.386978515490666,3.64295272677153
6.3877557678533075,-6.1764180440594725,6.423408042758381,3.709349397357169
6.325991587412712,-6.1647096496469045,6.460501536731953,3.6703538053145404
6.264344490916243,-6.088762788303146,6.497205074785098,3.5268422087671896
6.203456863033212,-5.959743206502671,6.53247349687277,3.294940232657941
6.1438594309681855,-5.794785659526923,6.5654228991993495,2.99988806354406
6.085911574372917,-5.611202409846939,6.5954217798347905,2.6676806448795185
6.029799550274447,-5.422599379135623,6.6220985862835855,2.3193580206530626
5.9755735564830905,-5.2378027600988775,6.645292166490116,1.969301510946135
5.923195528882101,-5.061562063352052,6.664985181599578,1.626109041823258
5.872579908248581,-4.895789456265218,6.681246272017811,1.2942905740549653
5.823622013685929,-4.740663396896581,6.694189177758361,0.9758116943488799
5.776215379716963,-4.595409458129627,6.703947294701849,0.671200556295408
5.730261285135667,-4.458790718752927,6.710659300264803,0.38025073073343374
5.685673377948137,-4.3293937098631945,6.714461807572137,0.10243455552262049
5.642379440849505,-4.2057859830780275,6.7154861531273635,-0.16286847942746008
5.600321581018725,-4.0865981502154485,6.713857468333089,-0.41625444261269573
5.55945559951657,-3.9705634114401183,6.709694923906961,-0.6582418826458587
5.519749965402169,-3.856534038357674,6.703112505080503,-0.8892547659797218
5.481184625018592,-3.7434858608950616,6.694219957420706,-1.1096249550320385
5.443749766409642,-3.6305168271726007,6.683123707870386,-1.3196047454923059
5.407444598137916,-3.5168428433902656,6.669927660415462,-1.5193840468642241
5.372276169704014,-3.4017924905837242,6.65473381994682,-1.7091091198138095
5.338258244798176,-3.2848013303154797,6.637642728748682,-1.8889011105577205
5.3054102314950216,-3.165406042639365,6.618753717643105,-2.05887337927561
5.273756171068628,-3.0432384082248487,6.598164983850348,-2.219147056695599
5.243323786986379,-2.9180190494462535,6.575973513283392,-2.3698645232724918
5.214143596491917,-2.7895508230478896,6.5522748680506675,-2.511200668957978
5.186248088261438,-2.657711774914408,6.527162861361088,-2.6433719026586084
5.159670970512294,-2.5224476048321773,6.500729142334502,-2.7666429626845677
5.1344464944639725,-2.3837636333978316,6.473062712707656,-2.881331644711467
5.110608858129994,-2.241716306725071,6.444249396260542,-2.9878116174098808
5.0881916950627435,-2.096404312628776,6.414371280086443,-3.08651353987627
5.067227651936456,-1.9479594118162826,6.38350614468768,-3.177924729556332
5.047748057818293,-1.7965371079959107,6.351726897392117,-3.262587654029762
5.029782686738334,-1.642307291529325,6.31910102085182,-3.341097534222316
5.013359613823041,-1.485444993033423,6.285690045509597,-3.414099349826049
4.998505163892706,-1.3261213777262997,6.251549052011336,-3.482284529573433
4.985243950115443,-1.1644951006408926,6.216726206715602,-3.546387589151542
4.973598999109034,-1.000704130243917,6.181262330824087,-3.6071829472770527
4.963591957806594,-0.8348581375842361,6.145190501351316,-3.6654821043108194
4.955243376430752,-0.6670315451642213,6.108535680308208,-3.7221313047979336
4.948573060979109,-0.49725734132693833,6.0713143672602286,-3.778009719962895
4.94360048756584,-0.32552180173139333,6.033534270060599,-3.83402806891913
4.940345269548526,-0.15176033308401987,5.9951939893714075,-3.891127432401959
4.938827666217686,0.02414521455848967,5.956282715047388,-3.950277775074485
4.939069118363271,0.2023672029860525,5.916779937296643,-4.012475342918603
4.941092790393132,0.38312991818130515,5.876655183867457,-4.078737582002098
4.944924089574945,0.5667028931933158,5.8358678080474355,-4.150093447549854
4.950591118506878,0.7533875838573328,5.794366873571937,-4.227565816062374
4.958124994345452,0.9434939435771851,5.752091215411313,-4.312141018613922
4.9675599337812235,1.1373017388363575,5.708969805225173,-4.404718098690078
4.978932951169587,1.3349991463262219,5.664922624238272,-4.506027125485481
4.992282942632849,1.5365883579999693,5.619862352983418,-4.616501855973522
5.007648826212849,1.7417451584555608,5.573697334423683,-4.736087995543011
5.0250662777974044,1.9496184201231541,5.526336454468253,-4.863966579264391
5.044562461998636,2.158560101653478,5.477696788675609,-4.998178019790131
5.066148063015171,2.3657941438899055,5.4277150084777075,-5.135156642337035
5.08980600445407,2.567074913808161,5.376363442054338,-5.2692439328819125
5.1154767535921515,2.7564621210559723,5.3236710027255185,-5.392354993716698
5.143041374802711,2.926438225951673,5.269747452788351,-5.4941118689087975
5.172305757062228,3.0686494422968447,5.214806334099263,-5.562836981127951
5.202992251485196,3.175423724382768,5.159177964287983,-5.5876264895281915
5.234746488729024,3.2417951239252294,5.103301699392701,-5.561137437724505
5.267164439968276,3.26720639985077,5.047690325015457,-5.4819483629866905
5.299836503966784,3.255912278481274,4.99287084138559,-5.355142232098105
5.332395626751596,3.2157624448772824,4.939319419064608,-5.190666163304966
5.364553251200369,3.1560483264402293,4.887412757431559,-5.000408885142068
5.396113734464771,3.085512010335602,4.837408668580138,-4.795504511403374
5.426968854568128,3.011193125783361,4.7894536234661045,-4.584784784815788
5.457080785825961,2.938131199664426,4.743605775617946,-4.374396226830871
5.4864620978226055,2.869593427962434,4.699861813349638,-4.16812564421084
5.51515803210223,2.8074952049827697,4.65818055690753,-3.96797894430792
5.543232984152057,2.752814738459533,4.61850076746445,-3.7747445590523117
5.570761131536653,2.7059237906650013,4.580753321873927,-3.588438376761675
5.597820369443303,2.6668240451701233,4.54486893810631,-3.408618509300728
5.624488609895004,2.6353050372805757,4.510782753013303,-3.2345933135034612
