th1 (rad),w1 (rad/s),th2 (rad),w2 (rad/s)
3.0763189018258608,-0.9927839496894119,6.1553970205348385,2.1935046493044354
3.0663910623289667,-0.9907204231648822,6.177332067027883,2.2074375865655274
3.0564838580973177,-0.9939009788994257,6.199406442893538,2.2143119735415984
3.0465448483083235,-1.002413507566127,6.221549562628954,2.214013317473747
3.036520713232662,-1.0162682893681814,6.243689695803691,2.206538420558689
3.0263580303389803,-1.0353963000041704,6.265755080009278,2.1919978743877144
3.0160040673389386,-1.059651180496073,6.287675058753155,2.1706138214813864
3.005407555533978,-1.0888147596760525,6.309381196967969,2.1427131126994774
2.9945194079372173,-1.1226057158855751,6.330808328094964,2.1087163742929564
2.9832933507783617,-1.1606907137843812,6.351895491837894,2.0691238190071424
2.9716864436405177,-1.2026971848379744,6.372586730027965,2.024498851808719
2.959659471792138,-1.2482268524519744,6.392831718546052,1.9754506116057144
2.9471772032676182,-1.2968691340025982,6.4125862246621095,1.9226165565048028
2.9342085119275922,-1.3482136661773734,6.431812390227157,1.866646061458356
2.9207263752658186,-1.4018613710069885,6.4504788508417406,1.8081857860291548
2.9067077615557486,-1.4574336778841679,6.468560708702032,1.747867323682759
2.892133424776907,-1.5145797139268455,6.48603938193886,1.6862973972889412
2.8769876276376385,-1.5729814496142196,6.50290235591175,1.6240506455691406
2.861257813141496,-1.632356925160191,6.519142862367441,1.5616648692588908
2.8449342438898944,-1.692461780068433,6.53475951106003,1.4996384810083663
2.82800962608921,-1.753089364790374,6.549755895870113,1.4384298285912416
2.810478732441306,-1.8140697349018478,6.564140194156026,1.3784580303160856
2.7923380350922877,-1.8752678225683355,6.577924774459186,1.320104965173838
2.7735853568666045,-1.9365810556688636,6.591125824110924,1.2637180879977443
2.754219546309916,-1.9979366594900483,6.603763004990902,1.2096137823286326
2.7342401797150155,-2.059288835699905,6.615859142814188,1.1580810129849546
2.7136472913580163,-2.1206159730575966,6.627439952944038,1.1093850907140352
2.69244113162744,-2.1819180071416637,6.638533803851178,1.0637714088331987
2.6706219515560234,-2.2432140140938106,6.64917151793951,1.0214690541703226
2.6481898114150852,-2.3045400967700926,6.659386208481213,0.9826942308617197
2.6251444104473842,-2.365947600847907,6.6692131507898305,0.9476534655401369
2.601484934438905,-2.42750168299261,6.678689685445232,0.9165465866083854
2.577209917608979,-2.4892802425438827,6.687855151311315,0.8895694894373721
2.55231711518354,-2.551373221658918,6.696750846205689,0.866916714394006
2.5268033829669507,-2.6138822757873412,6.705420013349629,0.8487838765678688
2.5006645602090773,-2.6769208161756652,6.713907852115308,0.8353699958588774
2.473895352047321,-2.740614428350193,6.722261552073896,0.8268797845709291
2.4464892077638187,-2.8051016748848796,6.730530349919606,0.8235259576064403
2.41843819101497,-2.870535297042497,6.738765609495671,0.8255316384781138
2.3897328380445453,-2.9370838380393645,6.747020925880451,0.833132943296039
2.3603619996641516,-3.0049337208149907,6.7553522553134115,0.8465818352651635
2.3303126624560018,-3.074291825504305,6.763818073666063,0.8661493546410921
2.2995697442009586,-3.1453886266451234,6.772479567212474,0.8921293441401231
2.2681158579345073,-3.2184819679405936,6.781400860653875,0.92484280807486
2.235931038255101,-3.2938615736344476,6.790649288734624,0.9646430655376241
2.202992422518757,-3.371854420739015,6.80029571939,1.0119218841843647
2.1692738783113668,-3.4528311258268425,6.810414938231844,1.0671168116293708
2.1347455670530984,-3.537213533774154,6.821086106348138,1.1307199554165321
2.0993734317153567,-3.6254837326856,6.832393305902303,1.2032884976800922
2.063118594388501,-3.7181947562247575,6.844426190879104,1.2854572615697284
2.025936646826253,-3.815983264862252,6.857280763494801,1.3779536620767365
1.9877768141776306,-3.9195845069110247,6.871060300115569,1.4816153519029382
1.9485809691085203,-4.029849820538485,6.885876453634598,1.5974107709454661
1.9082824709031354,-4.147766795105858,6.901850561344053,1.7264625455650964
1.8668048029520767,-4.274481861504915,6.919115186799703,1.8700731109102446
1.8240599843370275,-4.411324333564446,6.9378159179088055,2.0297507667723216
1.7799467410013832,-4.559829415403563,6.958113425576529,2.2072321069704426
1.7343484468473476,-4.721754753983549,6.980185746646233,2.4044924300752557
1.687130899307512,-4.89907952664139,7.004230670946986,2.623727606702666
1.638140104041098,-5.093964615732534,7.030467947014013,2.867275846816189
1.5872004578837728,-5.308633383279666,7.059140705482175,3.137420603988261
1.5341141240509761,-5.545099100497242,7.090514911522058,3.435968345857253
1.4786631330460036,-5.804610259881353,7.12487459498063,3.763417530250951
1.4206170304471901,-6.086607873133618,7.162508770283139,4.117427087384922
1.359750951715854,-6.386921408006168,7.203683041156989,4.490200304299907
1.2958817376357923,-6.695010696433714,7.248585044199988,4.864520840792898
1.228931630671455,-6.990663834831361,7.297230252607917,5.209042650003261
1.1590249923231415,-7.242265774037711,7.349320679107949,5.475865678348547
1.0866023345827645,-7.411269607892099,7.404079335891435,5.607008699894672
1.0124896385038435,-7.466878721233818,7.460149422890382,5.555505461010185
0.9378208512915054,-7.404910798754167,7.515704477500484,5.312587517615427
0.8637717433039637,-7.252928507219711,7.568830352676638,4.915448846090157
0.7912424582317665,-7.054044839448985,7.61798484113754,4.424558235054283
0.7207020098372767,-6.846029041340039,7.662230423488083,3.8938909597205877
0.6522417194238763,-6.652233348426305,7.701169333085288,3.357650914642519
0.5857193859396133,-6.483299130061304,7.734745842231714,2.83231383481445
0.5208863946390002,-6.342007117126479,7.763068980579859,2.323310801677558
0.4574663234677354,-6.22716228816924,7.786302088596634,1.8304993895447867
0.395194700586043,-6.135861884510417,7.804607082492082,1.3514282047918524
0.3338360817409388,-6.064622136333577,7.8181213645400005,0.8830177544395795
0.27318986037760307,-6.0098716036444575,7.826951542084396,0.42235059641452816
0.2130911443411585,-5.968131767020074,7.831175048048541,-0.03298760656665606
0.15340982667095776,-5.936056174509059,7.830845171982874,-0.48478006703063414
0.09404926492586717,-5.91041326336676,7.8259973713125675,-0.9341479946710065
0.034945132292199574,-5.888053663388075,7.8166558913658575,-1.3815634117980755
-0.023935404341681184,-5.865881103139743,7.802840257247877,-1.8268829422925037
-0.08259421537307862,-5.840835591774825,7.784571427824952,-2.2693943960432916
-0.14100257129082688,-5.809892420408373,7.761877483864519,-2.7078744317039645
-0.1991014954949106,-5.770077814528375,7.73479873954748,-3.140657985467936
-0.25680227364019437,-5.718500403576343,7.7033921596928,-3.5657204884037648
-0.3139872776759578,-5.652396448281755,7.667734954808763,-3.98077317407114
-0.37051124215877534,-5.569185746730903,7.627927223068052,-4.383370563905078
-0.4262030996260844,-5.466534269947299,7.584093517429001,-4.771027857609404
-0.48086844232555737,-5.342418876336329,7.536383238852907,-5.141344681738268
-0.5342926310889207,-5.195188965953607,7.484969792035525,-5.4921306179709095
-0.5862445207484568,-5.023619707948107,7.430048485855815,-5.821527243197586
-0.6364807178279379,-4.826951554558512,7.371833213423839,-6.1281211286063115
-0.684750233373523,-4.604911189436786,7.310552002137776,-6.411042408827791
-0.7307993452678909,-4.357709888172124,7.246441578049498,-6.6700441848766365
-0.7743764441496122,-4.0860165123620655,7.1797411362007315,-6.905559199084822
-0.8152366092732328,-3.7909039800514344,7.1106855442098835,-7.11873191973067
-0.8531456490737471,-3.4737699379834543,7.039498225012577,-7.311426336340677
-0.8878833484535816,-3.1362342972858084,6.96638396164917,-7.486212238169522
-0.9192456914264397,-2.780018011347298,6.891521839267474,-7.646335272315465
-0.9470458715399127,-2.4068087008004193,6.815058486544319,-7.795678322739837
-0.9711139585479169,-2.0181192915926323,6.737101703316921,-7.93872335079392
-0.9912951514638433,-1.6151457665154378,6.657714469808982,-8.08052340825236
-1.0074466091289977,-1.1986298214848,6.5769092357264585,-8.226693603328835
-1.0194329073438457,-0.768732585922853,6.4946422996931705,-8.383426547013416
-1.0271202332030742,-0.324928448853827,6.410808034223036,-8.557530434639025
-1.0303695176916126,0.13406297670053935,6.325232729876646,-8.756472319444997
-1.0290288879246072,0.6102664292191273,6.237668006682196,-8.988376149142288
-1.022926223632416,1.1062716713673757,6.147784245190773,-9.261855111084644
-1.0118635069187423,1.6246883262940173,6.0551656940799266,-9.585410972287365
-0.9956166236558021,2.166824850748614,5.959311584357053,-9.965837805863428
-0.9739483751483159,2.7298011228853425,5.859653206298419,-10.404533368465803
-0.9466503639194624,3.30080980104223,5.755607872613761,-10.889907772411757
-0.9136422659090402,3.8473505728525064,5.646708794889643,-11.38415187650519
-0.8751687601805151,4.3057623085365195,5.532867276124591,-11.807323531883867
-0.8321111370951499,4.582146110673025,5.414794040805752,-12.037819361160937
-0.7862896759884197,4.592120820332146,5.294415847194143,-11.96536930086827
-0.7403684677850982,4.331721856096814,5.17476215418546,-11.586018820631026
-0.6970512492241301,3.892931373057306,5.05890196597915,-11.021392504682789
-0.658121935493557,3.3894782611851992,4.948688040932322,-10.417880726426645
-0.624227152881705,2.8938147893986965,4.844509233668056,-9.864147475978598
-0.5952890049877181,2.4349424515616884,4.74586775890827,-9.391182281329293
-0.5709395804721012,2.0182908156657664,4.651955936094977,-9.000233591755615
-0.5507566723154436,1.6401506446896081,4.561953600177421,-8.682104770944958
-0.5343551658685475,1.294375979662851,4.475132552467971,-8.425684234967692
-0.5214114060719189,0.9748986882743225,4.390875710118294,-8.220883358407468
-0.5116624191891758,0.676487958354402,4.30866687653422,-8.059334761941795
-0.5048975396056318,0.3948634078693238,4.228073528914802,-7.934324082986299
-0.5009489055269385,0.12660159782875785,4.148730288084939,-7.840514843083623
-0.4996828895486509,-0.1310024122965412,4.070325139654102,-7.7736585974893595
-0.5009929136716164,-0.3800643456020229,3.9925885536792083,-7.730346268602812
-0.5047935571276366,-0.6222164536011241,3.91528509099318,-7.7078092865939025
-0.5110157216636478,-0.8586891591744558,3.838206998127241,-7.7037646444809065
-0.5196026132553924,-1.090372153531546,3.761169351682432,-7.716294977367926
-0.5305063347907079,-1.3178591726182152,3.6840064019087526,-7.743755465163019
-0.54368492651689,-1.5414802357822497,3.6065688472571225,-7.784700936231405
-0.5590997288747125,-1.7613244293863832,3.528721837894808,-7.837828082114078
-0.5767129731685763,-1.9772556445511367,3.4503435570736674,-7.901928922127143
-0.5964855296140876,-2.1889231036622543,3.371324267852396,-7.9758525551629
-0.6183747606507102,-2.3957680349621806,3.291565742300767,-8.058472849537255
-0.6423324410003319,-2.5970274619279095,3.2109810138053945,-8.14866011295809
-0.6683027156196111,-2.791735753668191,3.1294944126758137,-8.245255020424983
-0.696220073156293,-2.978724340150774,3.047041862471564,-8.3470432305234
-0.7260073165578007,-3.1566198594713373,2.96357143016633,-8.452729274216972
-0.757573515152514,-3.323841025348713,2.8790441374241604,-8.560908556207698
-0.7908119254060012,-3.4785947549428227,2.7934350518620836,-8.670036787358717
-0.8255978729554294,-3.618872665240324,2.7067346839884965,-8.778396999935055
-0.8617865996078327,-3.742450006767557,2.618950713989146,-8.8840656105053
-0.8992110996755083,-3.8468904863005258,2.5301100578840927,-8.984880867367742
-0.9376800045385135,-3.929562163886953,2.4402612492104154,-9.078419421300598
-0.9769756261773831,-3.987671449046957,2.3494770549974096,-9.161989467493319
-1.0168523406678527,-4.018323676280133,2.257857160322476,-9.232651410649938
-1.057035577430654,-4.01861903867709,2.1655306462159767,-9.287278435974043
-1.0972217678174248,-3.9857908071162362,2.072657861856236,-9.322668533581721
-1.137079675888587,-3.9173877832620834,1.979431176520419,-9.335715135426938
-1.176253553721208,-3.8114943273155433,1.8860740251661494,-9.323634702412665
-1.2143684969943633,-3.6669696740756526,1.7928376781420228,-9.284236612833766
-1.2510381937351198,-3.4836758623201773,1.699995312013685,-9.21620568247517
-1.2858749523583215,-3.2626543691747023,1.6078332551889334,-9.11935476879961
-1.3185014960500685,-3.0062100656486375,1.5166397075009372,-8.99479950521161
-1.3485635967065548,-2.717870713330805,1.4266917124488212,-8.84501366045957
-1.3757423038398628,-2.402210741877526,1.3382415758442254,-8.673742809975383
-1.399764411258638,-2.0645547756152967,1.2515041477444715,-8.485781830159976
-1.420409959014791,-1.710601280791702,1.1666463294428717,-8.286649984853835
-1.437515971822708,-1.3460217194298105,1.0837798295943333,-8.082217097434823
-1.450976189017006,-0.9760912788681446,1.002957658619985,-7.878339762583068
-1.4607371018056876,-0.6053946070813323,0.9241742609941545,-7.680557599668393
-1.466791047876501,-0.23762950328886157,0.8473686849974705,-7.493881037331784
-1.4691673429093897,0.12448979033816998,0.7724298746241527,-7.322681086683765
-1.467922445006008,0.47924461557597675,0.699203063757315,-7.170674086277338
-1.4631299988502482,0.8258634562580112,0.6274963228945416,-7.040983739071879
-1.454871364287668,1.1644396138058566,0.5570864855038228,-6.936259213318385
-1.4432269681496095,1.4958391133266016,0.48772389337063893,-6.858830022196262
-1.4282685770163435,1.82161812413905,0.4191355931486763,-6.810883558721759
-1.410052395774953,2.1439640231031345,0.35102675756145874,-6.7946575381145164
-1.3886127555439216,2.4656699638039985,0.28308018218031356,-6.812645821912391
-1.3639560559058816,2.790149827625249,0.21495372396118964,-6.86782134385799
-1.3360545576296292,3.121498323590668,0.14627551052260973,-6.96388340847452
-1.3048395743937224,3.4645983589081752,0.07663667643786452,-7.105537023560669
-1.2701935908046407,3.825271236903718,0.00558130620225783,-7.298805209824933
-1.2319408784356034,4.210446719244128,-0.06740674589599151,-7.5513510103393395
-1.189836411243162,4.628280081808268,-0.1429202559993849,-7.872717830687385
-1.1435536104250794,5.088014967148957,-0.22164743430625877,-8.274219700393687
-1.09267346075359,5.599073632148421,-0.30438963131019564,-8.767772799596413
-1.0366827244321057,6.168114719165608,-0.39206735930615977,-9.361925238687377
-0.9750015772404497,6.791272753854201,-0.4856866116930335,-10.051201803860437
-0.9070888497019076,7.436719785449484,-0.5861986297316378,-10.791941306171726
-0.8327216518474128,8.01501484739906,-0.6941180427933551,-11.46094155160145
-0.7525715033734222,8.360701663371369,-0.8087274583093697,-11.829376612245337
-0.6689644867397084,8.30634872240962,-0.927021224431823,-11.6649821177504
-0.5859009995156123,7.8634537298714955,-1.043671045609327,-10.982290701701714
-0.5072664622168973,7.23954140339236,-1.1534939526263441,-10.064644837789936
-0.43487104818297373,6.624351941431257,-1.2541404010042434,-9.168303525411755
-0.3686275287686612,6.0936056662284095,-1.345823436258361,-8.392183213317951
-0.3076914721063771,5.655712018647865,-1.4297452683915406,-7.74391802042971
-0.25113435191989847,5.298013456469165,-1.5071844485958377,-7.2035084248780965
-0.19815421735520683,5.005175988089758,-1.5792195328446186,-6.748150836249528
-0.14810245747430925,4.764139767739738,-1.646701041207114,-6.358673825740586
-0.10046105979691188,4.56475569322883,-1.7102877794645197,-6.02019443600863
-0.054813502864623574,4.399338382283313,-1.770489723824606,-5.721389736852978
-0.01082011904179045,4.262078665036118,-1.827703621193136,-5.45363983075923
0.03180066760857073,4.148544276567778,-1.8822400195007283,-5.210333871826206
0.07328611037424851,4.055295915975495,-1.9343433582189904,-4.986365640977409
0.11383906953400345,3.9795974105700984,-1.9842070146287645,-4.7777853692822525
0.15363504363970443,3.9191931509658713,-2.031984868321587,-4.581570085471509
0.19282697514936314,3.8721308908521395,-2.0778005691763024,-4.395482257076631
0.23154828405788452,3.8366145885422247,-2.121755391747069,-4.217993871611381
0.2699144299433068,3.8108783202125056,-2.1639353304631825,-4.048257417924183
0.30802321314543185,3.793078428049,-2.2044179046424244,-3.886106049952775
0.34595399742592187,3.781207233824349,-2.2432789651419522,-3.7320629475262153
0.3837660697641654,3.773037649356647,-2.280599594617214,-3.5873356534154692
0.42149644625773186,3.7661127780526917,-2.316472951151369,-3.453767175896472
0.4591575740382588,3.7577960348849895,-2.3510106229103336,-3.3337154379620175
0.4967355343871087,3.7453927386203145,-2.3843477772899537,-3.229840524179744
0.5341894617733118,3.7263416316831757,-2.416646182531751,-3.144798269084162
0.5714528780901436,3.6984552837402194,-2.4480941652225927,-3.080867990906472
0.6084374309275458,3.6601672539744063,-2.4789028451316573,-3.0395738536945407
0.6450391034672899,3.6107304486500262,-2.5092985836686026,-3.021379915030787
0.6811464079537901,3.5503142248541972,-2.5395123828189106,-3.0255351107547717
0.7166495502023321,3.479970172568311,-2.5697677339264584,-3.050111993887188
0.7514492519280153,3.4014713090718702,-2.6002688538653302,-3.092231947125664
0.785463965018734,3.317062864609828,-2.6311911733365867,-3.1484202725158856
0.8186345936648323,3.229181747640798,-2.6626753760617454,-3.2150067491619683
0.8509264111412402,3.1402006749941602,-2.694825443553365,-3.288489197160874
0.8823284178911819,3.0522358503447165,-2.7277103355249737,-3.365803288247974
0.9128507763946291,2.9670335932655187,-2.7613683684074535,-3.44447685359522
0.9425211123272843,2.88593080332853,-2.795813136943406,-3.522677269434637
0.9713804203605696,2.809871744785376,-2.8310399096377523,-3.5991785318312886
0.9994791378084233,2.739459808417888,-2.867031694956065,-3.6732798439545724
1.0268737358926021,2.6750251705836865,-2.903764493395611,-3.744703772921112
1.053623987598439,2.6166944168092274,-2.941211531124822,-3.8134941460176366
1.0797909317665313,2.5644537137341548,-2.9793464725849983,-3.879925592125474
1.1054354689038728,2.5182016202274666,-3.018145728506253,-3.9444299969668735
1.1306174851061475,2.4777906970565238,-3.057590028475922,-4.007540708135375
1.1553953920767126,2.4430588328037373,-3.0976654355572757,-4.06985285732941
1.17982598040475,2.413851997127482,-3.1383639641305696,-4.131997117962203
1.2039645003760249,2.390040317526431,-3.179683935310192,-4.194624040970468
1.2278649035512892,2.3715292318150776,-3.2216301757198966,-4.258396389449882
1.25158019586944,2.358267180611775,-3.2642141396143955,-4.323987346465202
1.2751628676755578,2.35025097794457,-3.3074540130790475,-4.39208293880525
1.2986653774550034,2.3475296826446694,-3.3513748424671,-4.463387418950959
1.32214067428145,2.350207500551502,-3.3960087166566097,-4.538630638035211
1.3456427492869651,2.3584459655811014,-3.4413950230369617,-4.618576601773499
1.3692272089427762,2.372465346094716,-3.4875807890546966,-4.704032405449306
1.3929518624037234,2.3925448528627906,-3.5346211131091896,-4.795856551746953
1.4168773109323514,2.419020712393426,-3.5825796786266593,-4.894965190900831
1.4410675180562855,2.4522804028173297,-3.6315293305356677,-5.002333954840875
1.4655903220844588,2.4927501595002806,-3.6815526700840766,-5.118991569192616
1.4905178236794616,2.5408709909081435,-3.732742585776003,-5.245998979789199
1.515926533588543,2.5970555407049027,-3.7852025755738947,-5.384403825125169
1.541897088995592,2.6616137268428286,-3.8390466138251464,-5.535154068225492
1.5685132262640205,2.734628740682134,-3.8943981545074013,-5.698945818590149
1.5958595136708418,2.815756732563442,-3.9513876126933027,-5.875968789158537
1.6240170809964762,2.9039151223775432,-4.010147300584888,-6.065500753849598
1.6530562322202518,2.9968224406111728,-4.070802308123384,-6.265298542543613
1.6830244566263635,3.090373746555342,-4.1334552935488205,-6.470760527662795
1.7139281940919169,3.1779140476541037,-4.198162898825449,-6.673941177738385
1.745707334568458,3.2496553536190103,-4.2649023106028325,-6.862748195648894
