th1 (rad),w1 (rad/s),th2 (rad),w2 (rad/s),a1 (rad/s^2),a2 (rad/s^2)
3.0795813630746487,-0.8060863725812336,3.3128813657458345,-0.651305880564146,-2.4639072967244835,3.917368843990354
3.0715204993488365,-0.8307254455484785,3.306368306940193,-0.6121321921242424,-2.5540084920006074,3.930820520217724
3.0632132448933516,-0.8562655304684845,3.3002469850189504,-0.5728239869220652,-2.649186817717899,3.951242165607863
3.054650589588667,-0.8827573986456635,3.29451874514973,-0.5333115652659866,-2.749432617003663,3.9784230427788496
3.04582301560221,-0.9102517248157002,3.2891856294970703,-0.49352733483819805,-2.8546924418413515,4.01208365274751
3.036720498354053,-0.9387986492341137,3.2842503561486884,-0.45340649831072294,-2.964864765389052,4.0518680529398114
3.027332511861712,-0.9684472968880042,3.279716291165581,-0.41288781778132483,-3.0797951591278614,4.09733536795651
3.017648038892832,-0.9992452484792829,3.275587412987768,-0.3719144641017597,-3.199271046642939,4.147950647237691
3.007655586408039,-1.0312379589457124,3.27186826834675,-0.3304349576293828,-3.323016194243487,4.203075293383886
2.997343206818582,-1.0644681208881472,3.2685639187704565,-0.28840420469554395,-3.45068515612628,4.261957367538442
2.9866985256097007,-1.09897497244941,3.265679876723501,-0.24578463102015952,-3.581857957967805,4.323722173257439
2.9757087758852068,-1.1347935520290882,3.2632220304132993,-0.20254740928758513,-3.7160353761176053,4.3873636253597335
2.964360840364916,-1.1719539057902641,3.2611965563204235,-0.1586737730339878,-3.8526352468114857,4.451737020773344
2.9526413013070134,-1.210480258258379,3.2596098185900835,-0.11415640282625436,-3.990990315896343,4.515553936949603
2.9405364987244296,-1.2503901614173423,3.258468254561821,-0.06900086345675832,-4.130348206995979,4.577380079248166
2.9280325971102563,-1.291693643487302,3.2577782459272537,-0.02322706266427666,-4.269874134887503,4.63563696748898
2.9151156606753834,-1.3343923848361772,3.257545975300611,0.023129307010613144,-4.408657008786854,4.688608375968481
2.9017717368270217,-1.3784789549240457,3.257777268370717,0.07001539077029795,-4.545719543223469,4.734452400568251
2.8879869472777813,-1.4239361503562804,3.2584774222784203,0.11735991477598046,-4.680032907733143,4.771219900472185
2.8737475857742183,-1.4707364794336117,3.2596510214261802,0.1650721137807023,-4.810536287798919,4.796879832077329
2.859040220979882,-1.518841842311601,3.261301742563987,0.2130409121014756,-4.936161489730762,4.809351646792043
2.8438518025567663,-1.5682034572089087,3.263432151685002,0.26113442856939606,-5.055862400506171,4.806544461329852
2.828169767984677,-1.6187620812139705,3.266043495970696,0.3091998731826946,-5.1686487199483535,4.7864021432571136
2.8119821471725372,-1.670448568413454,3.269135494702523,0.3570638946152657,-5.273622940554998,4.746952819806627
2.7952776614884027,-1.723184797819004,3.2727061336486756,0.404533422813332,-5.37001909802149,4.686360669103283
2.7780458135102126,-1.7768849887992189,3.276751467876809,0.45139702950436483,-5.457241404360059,4.602977263427225
2.7602769636222204,-1.8314574028428194,3.2812654381718525,0.4974268021386371,-5.534900565144713,4.495389289242888
2.7419623895937923,-1.8868064084942666,3.2862397061932387,0.542380695031066,-5.602845432601287,4.362459253889236
2.7230943255088498,-1.9428348628202794,3.291663513143549,0.5860052875699584,-5.661187706268331,4.203355874450688
2.703665976880647,-1.9994467398829627,3.297523566019249,0.6280388463144653,-5.7103176901443415,4.017571269602754
2.6836715094818175,-2.056549916784406,3.3038039544823934,0.6682145590104928,-5.750909645678959,3.804922834789413
2.6631060103139736,-2.114059013241196,3.3104861000724983,0.7062637873583869,-5.783916003760835,3.5655387184226623
2.641965420181562,-2.1718981732788043,3.3175487379460824,0.7419191745426136,-5.810550542304302,3.2998270273658914
2.620246438448774,-2.230003678701847,3.3249679296915087,0.7749174448162724,-5.832261501240871,3.0084301349305043
2.5979464016617557,-2.2883262937142557,3.3327171041396713,0.8050017461655775,-5.850696387190692,2.692166593083304
2.5750631387246132,-2.346833257586163,3.340767121601327,0.8319234120964105,-5.867660819136097,2.3519640257746093
2.5515948061487514,-2.405509865777524,3.349086355722291,0.8554430523541566,-5.88507411407095,1.988786903723873
2.527539707490976,-2.464360606918233,3.3576407862458324,0.8753309213913953,-5.904924376030481,1.6035632286343358
2.502896101421794,-2.523409850678538,3.3663940954597464,0.8913665536777386,-5.929225642847013,1.1971139020602315
2.4776620029150083,-2.582702107107008,3.375307760996524,0.903337692698341,-5.959979208751115,0.770087988850129
2.451834981843938,-2.642301899194519,3.3843411379235073,0.9110385725868423,-5.999140648946562,0.3229063111882946
2.425411962851993,-2.702293305683985,3.3934515236493756,0.9142676356987253,-6.048593406217102,-0.14428505413991713
2.398389029795153,-2.762779239746156,3.4025942000063627,0.9128247851573261,-6.11012913698925,-0.6316506417490333
2.370761237397691,-2.8238805311160484,3.4117224478579358,0.9065082787398357,-6.185434417255276,-1.1396908156668022
2.3425224320865308,-2.8857348752886014,3.420787530645334,0.8951113705831677,-6.27608291790703,-1.6692568710736322
2.3136650833336447,-2.9484957044676716,3.4297386443511657,0.8784188018724314,-6.383531792038819,-2.2215568847550564
2.284180126288968,-3.01233102238806,3.43852283236989,0.8562032330248808,-6.509120771318692,-2.798153300631629
2.2540568160650873,-3.077422230101247,3.447084864700139,0.8282217000185644,-6.654072327602615,-3.4009531649838367
2.223282593764075,-3.143962953377273,3.4553670817003246,0.7942121683687261,-6.819491194158547,-4.032191692554899
2.191842964230302,-3.2121578653188583,3.463309203384012,0.7538902514431771,-7.006361530237978,-4.694409486190263
2.1597213855771136,-3.282221480621238,3.470848105898444,0.7069461565812745,-7.215540027597035,-5.390423285298953
2.1268991707709013,-3.3543768808972088,3.4779175674642566,0.653041923728285,-7.447743277909557,-6.123289615013049
2.0933554019619294,-3.4288543136763043,3.4844479867015394,0.5918090275781545,-7.703527733645836,-6.896260177213712
2.059066858825166,-3.5058895910127625,3.490366076977321,0.5228464258060174,-7.983260598820531,-7.712727292638138
2.0240079629150385,-3.585722197000968,3.495594541235381,0.445719152879636,-8.287079986782963,-8.576157196412648
1.9881507409450287,-3.6685929968687976,3.5000517327641774,0.3599575809155095,-8.614842697052408,-9.490008538205702
1.9514648109763408,-3.7547414238393215,3.5036513085733323,0.2650574955334525,-8.966058020108028,-10.457633082294674
1.9139173967379477,-3.844402004040402,3.506301883528667,0.16048116471050575,-9.33980611739833,-11.48215539526613
1.8754733766975438,-3.937800065214385,3.507906695175772,0.04565961075784444,-9.734639794452406,-12.566328320447585
1.8360953760454,-4.03514646315891,3.5083632912833504,-0.08000367244663142,-10.148468949255983,-13.712361359086447
1.795743911413811,-4.13663115265147,3.507563254558884,-0.2171272860374959,-10.578427705271404,-14.921719818716042
1.7543775998872964,-4.242415429704184,3.505391981698509,-0.3663444842246563,-11.020725300005651,-16.194893872927544
1.7119534455902545,-4.35262268270424,3.5017285368562625,-0.5282934229539318,-11.470483259121066,-17.53113862882165
1.668427218763212,-4.467327515295451,3.496445602626723,-0.7036048092421483,-11.921563281922545,-18.928189022041703
1.6237539436102575,-4.586543148114676,3.489409554534302,-0.8928866994625653,-12.36639258936377,-20.381956901514595
1.5778885121291106,-4.710207074008314,3.4804806875396763,-1.0967062684777111,-12.795796158707576,-21.886221970725963
1.5307864413890275,-4.83816503559539,3.469513624854899,-1.3155684881849707,-13.198848102983678,-23.43233310450249
1.4824047910330735,-4.970153516625227,3.4563579399730493,-1.5498918192299955,-13.562757131282646,-25.008941530484645
1.4327032558668213,-5.105781087938054,3.4408590217807493,-1.799981234534842,-13.872803091018916,-26.6017917709124
1.381645444987441,-5.244509118848243,3.422859209435401,-2.065999152243966,-14.112342472486434,-28.193599153256415
1.3292003537989585,-5.385632543573108,3.4021992179129614,-2.3479351437765303,-14.262899832164843,-29.764043017638794
1.2753440283632274,-5.528261541894756,3.3787198664751963,-2.645575573952918,-14.30435883660346,-31.289901383181675
1.2200614129442797,-5.671305130260791,3.352264110735667,-2.958474587784735,-14.215260796997528,-32.74534499030831
1.1633483616416718,-5.813457738230766,3.32267936485782,-3.285928037687818,-13.973210413137362,-34.10239618984254
1.1052137842593641,-5.953189842362139,3.2898200844809415,-3.626951999586243,-13.555378927210754,-35.33154203587943
1.0456818858357426,-6.088743631634247,3.2535505644850793,-3.9802674199450374,-12.939085723227446,-36.402473405858785
0.9847944495194001,-6.2181344888665215,3.213747890285629,-4.344292154003625,-12.102432937239405,-37.28490655403602
0.9226131046307349,-6.339158818238916,3.170304968745593,-4.7171412195439855,-11.024966393479065,-37.949434572390444
0.8592215164483457,-6.449408482173706,3.123133556550153,-5.09663556526789,-9.688342148048006,-38.36835805438158
0.7947274316266086,-6.546291903654186,3.072167200897474,-5.480319145811706,-8.076991686147629,-38.51645969462927
0.7292645125900667,-6.627061820515663,3.017364009439357,-5.865483742757999,-6.1787987131595425,-38.37171666847725
0.6629938943849101,-6.688849807647259,2.958709172011777,-6.249200909442772,-3.9858220774907074,-37.91598357071718
0.5961053963084375,-6.728708028422166,2.8962171629173494,-6.628360745149943,-1.4951155511262868,-37.13571930109352
0.5288183160242158,-6.743659183933429,2.82993355546585,-6.999717938160878,1.2903029946619435,-36.022861715971736
0.46138172418488155,-6.7307561539868095,2.759936376084241,-7.359946555320596,4.360302195004008,-34.5759603218735
0.39407416264501344,-6.687153132036769,2.686336910531035,-7.70570615853933,7.696328813961246,-32.80164692620822
0.3272026313246457,-6.610189843897157,2.6092798489456417,-8.033722627801412,11.270045267267928,-30.71644907369483
0.26110073288567415,-6.4974893912244776,2.5289426226676275,-8.34088711853836,15.042125229726691,-28.348833037003594
0.1961258389734294,-6.34706813892721,2.4455337514822437,-8.624375448908395,18.961530351941168,-25.741218132971802
0.1326551575841573,-6.157452835407799,2.3592899969931596,-8.881787630238113,22.96567265348059,-22.95156516321956
0.07108062923007931,-5.927796108872993,2.2704721206907785,-9.11130328187031,26.981878288925472,-20.054056475285954
0.011802668141349379,-5.6579773259837385,2.179359087872075,-9.31184384662317,30.930471183216188,-17.13840574699711
-0.04477710511848801,-5.348672614151576,2.0862406494058434,-9.483227904093141,34.72957261153552,-14.307500350293033
-0.09826383126000376,-5.001376888036221,1.991408370364912,-9.626302907596072,38.30138784426564,-11.673389657383536
-0.14827760014036598,-4.618363009593565,1.8951453412889512,-9.743036804169908,41.57939458464283,-9.352037758856405
-0.19446123023630163,-4.202569063747136,1.7977149732472522,-9.836557181758472,44.51556792332072,-7.4576581301913425
-0.236486920873773,-3.757413384513929,1.6993494014296675,-9.911133763060386,47.08668236185889,-6.097720154305926
-0.2740610547189123,-3.28654656089534,1.6002380637990636,-9.972110964603445,49.298886963547005,-5.369770368305998
-0.3069265203278657,-2.7935576912598696,1.5005169541530292,-10.025808668286505,51.19013700572279,-5.361023761279312
-0.3348620972404644,-2.2816563212026417,1.4002588674701641,-10.079418905899297,52.830581422757874,-6.151315685676457
-0.3576786604524908,-1.753350506975063,1.2994646784111712,-10.140932062756061,54.32149274913818,-7.819577994558084
-0.37521216552224146,-1.2101355794836812,1.1980553577836106,-10.219127842701642,55.79361648925624,-10.45360694468912
-0.38731352131707825,-0.6521994145911189,1.0958640793565941,-10.323663912148533,57.40573669435601,-14.162488970260506
-0.39383551546298945,-0.07814204764755872,0.9926274402351088,-10.465288801851138,59.34353518982725,-19.090307285790974
-0.39461693593946506,0.5152933042507138,0.8879745522165975,-10.656191874709048,61.816800215453775,-25.427655504420198
-0.38946400289695793,1.1334613064052514,0.7814126334695071,-10.91046842975325,65.04788890693885,-33.41136161366704
-0.3781293898329054,1.78394019547464,0.6723079491719746,-11.24458204588992,69.2311657567546,-43.285748754423054
-0.360289987878159,2.4762518530421858,0.5598621287130754,-11.677439533434152,74.4095411657801,-55.15332746552029
-0.33552746934773714,3.2203472646999867,0.44308773337873386,-12.228972808089354,80.13305810108895,-68.53046578225104
-0.3033239967007373,4.021677845710876,0.3207980052978403,-12.914277465911864,84.60253859571739,-81.19492912000601
-0.26310721824362854,4.86770323166805,0.19165523063872167,-13.726226757111924,82.89037777677137,-86.74038992664673
-0.21443018592694804,5.6966070094357635,0.05439296306760244,-14.59363065637839,64.97555626498271,-71.79366848416063
-0.1574641158325904,6.3463625720855905,-0.09154334349618148,-15.311567341219996,20.182958773797182,-21.896372824121507
-0.09400049011173449,6.548192159823563,-0.24465901690838146,-15.530531069461212,-42.12222605506361,50.454543883946435
-0.028518568513498863,6.126969899272926,-0.3999643276029936,-15.025985630621747,-86.27676762796348,97.83452020223982
0.0327511304792304,5.264202222993291,-0.550224183909211,-14.04764042859935,-96.91874420572802,101.29037213570453
0.08539315270916331,4.295014780936011,-0.6907005881952045,-13.034736707242304,-90.13692265152802,83.4922260163329
0.12834330051852344,3.393645554420731,-0.8210479552676275,-12.199814447078975,-80.15800903371267,63.20236088598272
0.16227975606273076,2.5920654640836043,-0.9430460997384172,-11.567790838219148,-71.72433124199162,46.128615374619216
0.1882004107035668,1.874822151663688,-1.0587240081206086,-11.106504684472956,-65.51107985330252,32.72339644908549
0.20694863222020368,1.2197113531306627,-1.1697890549653382,-10.779270719982101,-61.16758329920073,22.278056283430118
0.2191457457515103,0.6080355201386554,-1.2775817621651593,-10.556490157147799,-58.217623001743014,14.058595526852999
0.22522610095289686,0.02585929012122523,-1.3831466637366372,-10.415904201879268,-56.25467436510926,7.515280336828337
0.2254846938541091,-0.5366874535298674,-1.48730570575543,-10.340751398510985,-54.95768020323525,2.273530132657268
0.22011781931881044,-1.0862642555622197,-1.5907132197405398,-10.318016097184412,-54.071469916044094,-1.910557267553932
0.20925517676318825,-1.6269789547226607,-1.693893380712384,-10.33712166985995,-53.3868112054173,-5.190326872996512
0.19298538721596165,-2.160847066776834,-1.7972645974109835,-10.389024938589916,-52.7269276851399,-7.659398474223596
0.17137691654819331,-2.688116343628233,-1.9011548467968826,-10.465618923332151,-51.940607123195164,-9.375281964242317
0.14449575311191099,-3.2075224148601844,-2.005811036030204,-10.559371742974575,-50.90064584911434,-10.37820638034967
0.11242052896330915,-3.716528873351328,-2.11140475345995,-10.663153806778071,-49.50611008048806,-10.706576862619407
0.07525524022979586,-4.211589974156208,-2.2180362915277305,-10.770219575404266,-47.68672923255829,-10.409373824025874
0.03313934048823378,-4.688457266481791,-2.325738487281773,-10.874313313644524,-45.4075526186783,-9.554982966111233
-0.013745232176584125,-5.1425327926685735,-2.4344816204182185,-10.969863143305636,-42.671950025308625,-8.235568286941279
-0.06517056010326985,-5.56925229292166,-2.544180251851275,-11.052218826175048,-39.52131332534796,-6.56628085568814
-0.12086308303248645,-5.964465426175139,-2.6547024401130255,-11.11788163473193,-36.030521225613654,-4.679312705677221
-0.18050773729423786,-6.324770638431276,-2.7658812564603448,-11.164674761788701,-32.299273751842506,-2.713839901291014
-0.24375544367855062,-6.647763375949701,-2.877528004078232,-11.191813160801612,-28.440500963977737,-0.8038637055834079
-0.3102330774380476,-6.9321683855894785,-2.989446135686248,-11.199851797857447,-24.567827289182485,0.9335553291922688
-0.3795547612939424,-7.177846658481303,-3.1014446536648226,-11.190516244565524,-20.784249918867513,2.4073966874345656
-0.4513332278787554,-7.385689157669978,-3.213349816110478,-11.166442277691178,-17.173731694897178,3.557689381475256
-0.5251901194554551,-7.55742647461895,-3.32501423888739,-11.130865383876426,-13.796537582837628,4.356148523589363
-0.6007643842016446,-7.695391850447326,-3.436322892726154,-11.087303898640533,-10.688210629904544,4.803169920615168
-0.6777183027061179,-7.8022739567463715,-3.5471959317125594,-11.03927219943438,-7.861392190477953,4.922509959764404
-0.7557410422735816,-7.880887878651151,-3.6575886537069033,-10.990047099836737,-5.309382256264992,4.755086590252168
-0.8345499210600932,-7.933981701213801,-3.767489124705271,-10.942496233934214,-3.0103775889371005,4.353074710081639
-0.9138897380722312,-7.964085477103172,-3.876914087044613,-10.898965486833397,-0.9315862722936854,3.7750315828814975
-0.993530592843263,-7.9734013398261085,-3.985903741912947,-10.861215171004583,0.9672486712579427,3.0823486766206467
-1.073264606241524,-7.963728853113529,-4.094515893622993,-10.830391684238377,2.731081545291445,2.3369866198064244
-1.1529018947726595,-7.936418037660615,-4.2028198104653764,-10.807021818040312,4.4074952281421025,1.6002381736483082
-1.2322660751492656,-7.892343085379194,-4.31089002864578,-10.791019436303829,6.0451389245965625,0.93216194269464
-1.3111895060030574,-7.831891696133228,-4.418800223008818,-10.781697816876882,7.692414185041467,0.3913012882300772
-1.3895084229643897,-7.754967554282813,-4.5266172011775865,-10.777784803994582,9.396134344711536,0.034315987219862634
-1.467058098507218,-7.661006210835698,-4.634395049217532,-10.777441644122383,11.19990073719683,-0.08481073711885513
-1.5436681606155749,-7.54900720346373,-4.742169465658756,-10.778289751493572,13.14198814507763,0.0837263707874232
-1.619158232650212,-7.417587322012953,-4.849952363173691,-10.777452487785698,15.252617786480185,0.5831432462372187
-1.6933341058703415,-7.265061144148151,-4.957726888051548,-10.771621055323326,17.55062979447606,1.446673671384725
-1.765984717311823,-7.089554846203391,-5.065443098604781,-10.757154318609478,20.039756780381463,2.6933194834048337
-1.836880265773857,-6.889157278399576,-5.173014641790876,-10.73022112377543,22.704938962250868,4.32313511112959
-1.9057718385578528,-6.662107888777068,-5.28031685302863,-10.686989772664134,25.509374319756603,6.3127491118840044
-1.9723929174456234,-6.4070141455795016,-5.387186750755271,-10.623862281545295,28.393191626620006,8.612110504780768
-2.0364630589014183,-6.123082229313302,-5.493425373570724,-10.537741176497487,31.274665700098527,11.143591176391828
-2.097693881194551,-5.810335572312317,-5.598802785335699,-10.42630526473357,34.054658094028255,13.804445802920442
-2.155797236917674,-5.469788991372035,-5.703065837983035,-10.288260806704365,36.62441463399655,16.473140268921103
-2.2104951268313946,-5.103544845032069,-5.8059484460500785,-10.123529404015153,38.87605406656008,19.019240161933677
-2.261530575281715,-4.714784304366468,-5.90718374009023,-9.933337002395817,40.71425358043204,21.315597357820806
-2.3086784183253797,-4.3076417685621475,-6.006517110114188,-9.720181028817608,42.06708177106001,23.250806546039108
-2.351754836011001,-3.8869709508515475,-6.103718920402364,-9.487672963357216,42.893912238798855,24.739644238527255
-2.3906245455195165,-3.458031828463559,-6.198595650035936,-9.240276520971944,43.188948259769035,25.729602318852052
-2.425204863804152,-3.026142345865869,-6.290998415245656,-8.982980497783425,42.97992254784207,26.20257183843273
-2.455466287262811,-2.596343120387448,-6.38082822022349,-8.720954779399097,42.32264349913428,26.171881687916468
-2.481429718466685,-2.1731166853961055,-6.468037768017481,-8.459235962519932,41.29286798808399,25.67585344351076
-2.5031608853206464,-1.7601880055152654,-6.552630127642681,-8.202477428084824,39.9772777421978,24.76952649408726
-2.520762765375799,-1.3604152280932875,-6.634654901923529,-7.9547821631439515,38.465134190709634,23.516185457412135
