th1 (rad),w1 (rad/s),th2 (rad),w2 (rad/s)
3.068915135583937,-0.6233768176860313,2.203508020706517,-0.08937428102827791
3.0626813674070767,-0.601203682158833,2.2026142778962345,-0.179821004710631
3.0566693305854886,-0.5795387855100703,2.200816067849128,-0.27029714810677563
3.0508739427303877,-0.5584763712876397,2.1981130963680604,-0.3607544633755241
3.0452891790175114,-0.5381100754714354,2.1945055517343053,-0.45114602447439167
3.039908078262797,-0.5185331508767612,2.1899940914895613,-0.5414263444452814
3.0347227467540296,-0.4998387189309419,2.1845798280451083,-0.6315514411780726
3.02972435956472,-0.4821200367474652,2.1782643136333277,-0.7214788667480725
3.0249031591972453,-0.46547076724952974,2.171049524965847,-0.8111677154585015
3.02024845152475,-0.44998524053851735,2.162937847811262,-0.9005786249059721
3.015748599119365,-0.435758695703037,2.153932061562202,-0.989673782801339
3.011391012162335,-0.422887493738768,2.144035323734189,-1.0784169500281025
3.007162137224947,-0.4114692940985731,2.133251154233908,-1.1667735076384151
3.003047444283961,-0.4016031895032489,2.1215834191575236,-1.2547105323235308
2.999031412388929,-0.39338979589415685,2.1090363138342885,-1.3421969015134283
2.9950975144299874,-0.38693129667416365,2.095614344819154,-1.429203425825939
2.9912282014632456,-0.38233144253815704,2.0813223105608945,-1.5157030032625998
2.987404887037864,-0.37969551012051184,2.0661652805282684,-1.6016707864897395
2.983607931936659,-0.3791302242776974,2.050148572663371,-1.6870843518838157
2.979816629693882,-0.38074364999036536,2.0332777291445328,-1.771923856869059
2.9760091931939785,-0.38464506054347397,2.015558490575842,-1.8561721705104646
2.972162742588544,-0.3909447887839992,1.9969967688707375,-1.9398149613869897
2.968253294700704,-0.3997540678506166,1.9775986192568675,-2.022840726460503
2.964255754022198,-0.4111848668343205,1.9573702119922625,-2.1052407449392465
2.960143905353855,-0.4253497254064952,1.93631780454287,-2.187008941939163
2.95589040809979,-0.44236158960845384,1.9144477151234782,-2.268141647972809
2.9514667922037057,-0.46233364881948685,1.8917662986437502,-2.348637241824586
2.946843455715511,-0.4853791715069067,1.8682799262255043,-2.428495666074412
2.9419896640004417,-0.511611334814947,1.8439949695647602,-2.507717806283497
2.936873550652292,-0.5411430404724784,1.8189177915019252,-2.586304726542321
2.9314621202475672,-0.5740867069891569,1.793054744236502,-2.6642567556113157
2.9257212531776755,-0.6105540257529781,1.7664121766803889,-2.741572419198369
2.919615712920146,-0.6506556665150237,1.7389964524884052,-2.818247214988557
2.9131091562549956,-0.6945009159141569,1.7108139803385196,-2.894272227882828
2.906164147095854,-0.742197231211462,1.6818712580596913,-2.9696325835643385
2.8987421747837394,-0.7938496903223068,1.652174932224048,-3.0443057390807575
2.890803677880516,-0.8495603186041061,1.6217318748332403,-3.1182596097281805
2.882308074694475,-0.9094272727368766,1.5905492787359585,-3.191450532295933
2.8732138019671063,-0.9735438624893279,1.5586347734129993,-3.2638210658533753
2.863478363342213,-1.0419973922792796,1.5259965627544656,-3.3352976329190414
2.85305838941942,-1.1148678063168003,1.4926435864252752,-3.4057880062492383
2.841909711356252,-1.1922261238857792,1.4585857063627827,-3.475178649821326
2.829987450117394,-1.2741326551188654,1.4238339198645695,-3.543331927065043
2.817246123566205,-1.3606349926121097,1.3884006005939191,-3.610083195196867
2.803639773640084,-1.4517657805779267,1.3522997686419505,-3.6752378117926323
2.7891221158343047,-1.5475402711136452,1.315547390524024,-3.7385680886034307
2.7736467131231684,-1.6479536867141271,1.2781617096379898,-3.7998102381266388
2.757167176256027,-1.7529784194870548,1.2401636072567235,-3.858661370548658
2.7396373920611565,-1.8625611106803008,1.2015769935512368,-3.914776612227165
2.7210117809543535,-1.9766196690514974,1.1624292274289652,-3.967766431586442
2.7012455842638383,-2.0950403031273277,1.1227515631131006,-4.017194273699429
2.680295181232565,-2.2176746601894535,1.0825796203761064,-4.06257462027046
2.6581184346306705,-2.34433718338388,1.0419538741734018,-4.103371606346084
2.634675062796832,-2.47480281698526,1.000920158109941,-4.138998337778957
2.6099270346269794,-2.6088052076622295,0.9595301747321514,-4.168817062945236
2.583838982550357,-2.746035565501532,0.917842004102699,-4.192140356969241
2.556378626895342,-2.8861423613180577,0.8759206005330066,-4.208233475088449
2.5275172032821613,-3.028732045061819,0.8338382657821221,-4.216318022056638
2.4972298828315433,-3.1733709725574775,0.7916750855615556,-4.215577064883326
2.4654961731059686,-3.319588723063054,0.7495193149127224,-4.205161785077973
2.432300285875338,-3.4668829770575598,0.7074676970619427,-4.184199722425985
2.3976314561047625,-3.6147261013726744,0.6656256998376828,-4.151804603975991
2.3614841950910357,-3.76257355674833,0.6241076537979229,-4.107087678561545
2.3238584595235525,-3.9098742010609673,0.5830367770123074,-4.049170388518216
2.284759717512943,-4.056082510364742,0.5425450731271252,-3.977198106631402
2.2441988924092957,-4.200672680719813,0.5027730920608111,-3.89035454891799
2.2021921656020975,-4.343154508649994,0.4638695465716312,-3.7878763448058406
2.1587606205155976,-4.48309088017234,0.4259907831235728,-3.6690671091502245
2.1139297117138742,-4.620116632276995,0.38930011203207054,-3.533310220447145
2.067728545391104,-4.753958492852003,0.3539670098275991,-3.380079373513154
2.0201889604625842,-4.884455763727866,0.32016621609246754,-3.208945851514634
1.9713444028253055,-5.011581397310889,0.2880767575773212,-3.0195813615505926
1.9212285888521967,-5.135463142698027,0.25788094396181527,-2.811755210201395
1.8698739574252163,-5.256404515995022,0.22976339185980132,-2.585324569077066
1.817309912265266,-5.374905495495899,0.20391014616903066,-2.340216599908992
1.763560857310307,-5.491683067018659,0.18050798016994074,-2.076401272135088
1.7086440266401204,-5.607692054725258,0.15974396744858987,-1.7938538034251135
1.6525671060928677,-5.724147066182019,0.14180542941433874,-1.4925057691785808
1.5953256354310474,-5.842546840741388,0.12688037172255293,-1.172184046179551
1.5369001670236335,-5.964702775952284,0.11515853126075741,-0.8325368843449635
1.4772531392641106,-6.0927738287155915,0.10683316241730778,-0.472946606079928
1.4163254009769548,-6.229310160860253,0.1021036963565085,-0.09242892666164981
1.3540322993683522,-6.377307431259356,0.101179407089892,0.3104798023104699
1.2902592250557587,-6.540271689351277,0.1042842051129967,0.7378428034253838
1.224856508162246,-6.7222895831605,0.11166263314725054,1.1924379573341923
1.157633612330641,-6.928086128584947,0.12358701272059247,1.677836926174785
1.0883527510447915,-7.163024143303041,0.14036538198234033,2.1983768681852736
1.0167225096117611,-7.432937819102153,0.16234915066419306,2.7588651101371227
0.9423931314207397,-7.743562116590332,0.1899378017655643,3.3636712724979523
0.8649575102548364,-8.09905686783594,0.22357451449054383,4.014490277237462
0.783966941576477,-8.498657944012916,0.2637194172629185,4.705405990479654
0.6989803621363477,-8.929917247100754,0.31077347716771503,5.413099745319537
0.6096811896653402,-9.357354442171896,0.3649044746209104,6.080615358291369
0.5161076452436213,-9.710392124965509,0.4257106282038241,6.600350059156378
0.41900372399396624,-9.889453776126093,0.4917141287953879,6.823330581904751
0.3201091862327053,-9.818738532084115,0.5599474346144354,6.635483620905278
0.22192180091186414,-9.51967988325374,0.6263022708234882,6.063921235553167
0.12672500207932674,-9.10216427203418,0.6869414831790199,5.266076140859852
0.03570335935898494,-8.67468746155893,0.7396022445876185,4.4015577138824415
-0.05104351525660436,-8.294096474745603,0.7836178217264429,3.5583569893513967
-0.13398448000406038,-7.976141614515206,0.8192013916199569,2.765903419383687
-0.21374589614921244,-7.717610588792608,0.8468604258137937,2.02593034345929
-0.2909220020371385,-7.509227294707352,0.8671197292483867,1.3309811736438322
-0.366014274984212,-7.340873361280174,0.880429540984825,0.6721972418653099
-0.4394230085970138,-7.203235791213978,0.8871515134034781,0.041988268703739506
-0.5114553665091536,-7.088115504303953,0.8875713960905155,-0.5652941037823631
-0.5823365215521931,-6.988316182222148,0.8819184550526918,-1.1533756357456788
-0.6522196833744145,-6.897449459620015,0.870384698695235,-1.724286973211095
-0.7211941779706147,-6.809767208569651,0.8531418289631241,-2.2786352001190004
-0.7892918500563112,-6.720049666005516,0.830355476961934,-2.8158723429166854
-0.8564923467163663,-6.623549511108416,0.8021967535327672,-3.334552808584986
-0.9227278418274505,-6.515982477644294,0.7688512254469173,-3.832581935271894
-0.9878876666038934,-6.393552225739057,0.7305254060941984,-4.307457839480251
-1.051823188861284,-6.252996677728738,0.6874508276993958,-4.756505776171167
-1.1143531556385713,-6.091643466113558,0.6398857699376841,-5.1771011284360124
-1.1752695902997068,-5.90746315747163,0.588114758653324,-5.566874990874309
-1.2343442218744232,-5.699110383276738,0.5324460087445809,-5.923895401157917
-1.2913353257071905,-5.465944846726179,0.47320705473300173,-6.246817527478088
-1.3459947741744522,-5.208026304570335,0.41073887945822085,-6.534997299520498
-1.3980750372201556,-4.926079977103102,0.3453889064630159,-6.788564823173018
-1.4473358369911866,-4.621431359344177,0.27750325823128574,-7.008456239979267
-1.4935501505846285,-4.295912008211571,0.20741869583149308,-7.196405323253146
-1.5365092706667443,-3.951740409506544,0.13545464259896162,-7.354898879612001
-1.5760266747618097,-3.5913842386676,0.061905653802841604,-7.487102721803166
-1.6119405171484857,-3.217411914806156,-0.012965373415190051,-7.596767295043503
-1.6441146362965473,-2.832342027490732,-0.08893304636562509,-7.688123644376431
-1.6724380565714547,-2.438498839705569,-0.1658142828093894,-7.765781031645552
-1.6968230449685104,-2.037880702751565,-0.24347209312584492,-7.83463701031653
-1.7172018519960262,-1.6320461707479355,-0.3218184632290102,-7.8998091616848285
-1.7335223137035054,-1.2220204157911516,-0.4008165548458585,-7.966595080555886
-1.745742517861417,-0.808222973929835,-0.48048250565141737,-8.04046354911354
-1.7538247476007154,-0.3904179250229494,-0.5608871411425528,-8.127074680909988
-1.7577289268509448,0.03230911012011667,-0.6421578879516526,-8.232318674788264
-1.7574058357497437,0.4615335478990012,-0.7244810746995353,-8.362348232823232
-1.7527905002707538,0.899400033293971,-0.8081045570277676,-8.523551444178349
-1.7437964999378142,1.3483809292024975,-0.8933400714695511,-8.722355926154439
-1.730312690645789,1.810729911710708,-0.9805636307310954,-8.964645996920343
-1.712205391528682,2.2873316729520154,-1.070210090700299,-9.254375376569012
-1.6893320747991618,2.7754274274127604,-1.162753844465989,-9.590645247415383
-1.6615778005250341,3.2644955393917106,-1.2586602969401428,-9.962219638211446
-1.628932845131117,3.72992193051002,-1.3582824933222573,-10.338896745988794
-1.5916336258260166,4.126559147623916,-1.4616714607821453,-10.662495613295565
-1.5503680343497774,4.3907037849202855,-1.568296416915101,-10.849063939358345
-1.5064609965005746,4.464098845182957,-1.6767870563086844,-10.820991412003993
-1.4618200080487451,4.3355774520703285,-1.7849969704287243,-10.563100733896604
-1.4184642335280417,4.056771833762581,-1.8906279777676904,-10.143271789530399
-1.377896515190416,3.705675940180447,-1.9920606956629945,-9.662709740843924
-1.3408397557886114,3.342747992845662,-2.0886877930714336,-9.197538429590274
-1.3074122758601547,2.999089144892421,-2.1806631773673364,-8.784444841847687
-1.2774213844112305,2.6853307337300736,-2.2685076257858134,-8.433636765173492
-1.2505680770739298,2.4020161793508352,-2.3528439934375482,-8.143014701952001
-1.2265479152804215,2.145771543500848,-2.4342741404570685,-7.906295663162581
-1.205090199845413,1.9121658396806158,-2.5133370970886943,-7.716609539338296
-1.185968541448607,1.6968486064747526,-2.5905031924820774,-7.567816605066588
-1.1690000553838595,1.4959232641622076,-2.6661813585327434,-7.454853869421814
-1.1540408227422374,1.3060130372774672,-2.7407298972269616,-7.373713981615836
-1.1409806923694628,1.1242173992309237,-2.8144670370431197,-7.3213076865481534
-1.1297385183771536,0.9480404222691657,-2.8876801139086012,-7.295305860426649
-1.1202581141544619,0.775322978697295,-2.9606331725128676,-7.293992980648879
-1.112504884367489,0.6041907384039886,-3.0335731023193566,-7.316138294373346
-1.106462976983449,0.43302248081945066,-3.10673448526309,-7.360881082207391
-1.1021327521752546,0.2604411452596406,-3.180343296085164,-7.427622657102853
-1.0995283407226581,0.08533019956448024,-3.2546195226561925,-7.515916152737596
-1.0986750387270134,-0.09312104932823945,-3.3297786841835686,-7.6253442195074035
-1.0996062492202958,-0.2753383807292034,-3.406032126378643,-7.7553740528114945
-1.1023596330275878,-0.4612442885514162,-3.4835858669067576,-7.905178983086206
-1.1069720759131019,-0.6500954420155447,-3.56263765673762,-8.07341702116748
-1.1134730303332574,-0.8402745241095697,-3.6433718269492945,-8.25796086565927
-1.1218757755743531,-1.0290431839731675,-3.725951435605887,-8.455583379496684
-1.1321662074140848,-1.2122782966107377,-3.810507269400854,-8.661620527657854
-1.1442889903801923,-1.3842384823336449,-3.8971234746774326,-8.869662925551921
-1.1581313752035287,-1.5374411580528293,-3.985820103932952,-9.07136701768295
-1.173505786784057,-1.6627646926459858,-4.076533774109781,-9.256518990195234
-1.190133433710517,-1.7499065501207873,-4.1690989640117335,-9.41350669602194
-1.2076324992117249,-1.7882960633998886,-4.263234030971953,-9.53032089828221
-1.2255154598457239,-1.768450145817761,-4.358537239954775,-9.596081506104882
-1.2431999613039015,-1.6835735895609554,-4.454498055015824,-9.602868433225737
-1.260035697199511,-1.5310087443517395,-4.550526739348081,-9.54740737104812
-1.2753457846430285,-1.3130567303263774,-4.646000813058563,-9.432063282375179
-1.2884763519462923,-1.0368283952399178,-4.740321445882314,-9.264749084455696
-1.2988446358986914,-0.7131150726672394,-4.832968936726871,-9.057734735299864
-1.3059757866253638,-0.3546255040382264,-4.92354628407987,-8.825744306161885
-1.309522041665746,0.025883356888103337,-5.011803727141489,-8.58393043459882
-1.309263208096865,0.4171206249501048,-5.097643031487477,-8.346239404773627
-1.305092001847364,0.8101870020466964,-5.181105425535214,-8.12442838266654
-1.296990131826897,1.1989154517638803,-5.262349709361879,-7.927736241721407
-1.2850009773092583,1.5797788173201617,-5.341627071779093,-7.763049737213144
-1.2692031891360567,1.9515578091008972,-5.419257569151224,-7.635363430360287
-1.2496876110450477,2.314934251127375,-5.495611203454827,-7.548364832203382
-1.226538268533774,2.672120378494696,-5.57109485177686,-7.505037767384081
-1.199817064748827,3.026584962678343,-5.646145229450701,-7.508235581805318
-1.1695512151220437,3.382902967923731,-5.721227585268754,-7.56121914727779
-1.1357221854428063,3.746737608253211,-5.796839776741532,-7.668182007846674
-1.0982548093602742,4.12495704977806,-5.873521596819999,-7.834799654043525
-1.0570052388624935,4.525884766203477,-5.951869593360434,-8.068842446425503
-1.0117463912004587,4.959669394648456,-6.032558017824689,-8.380872624102794
-0.9621496972539741,5.438706173038445,-6.116366744065717,-8.78496843816126
-0.9077626355235897,5.977865462375434,-6.20421642844733,-9.299171990259588
-0.8479839808998354,6.593758473018647,-6.297208148349926,-9.9446286771133
-0.7820463961696489,7.30080373712253,-6.396654435121059,-10.740346710177256
-0.7090383587984236,8.098165684108324,-6.504057902222832,-11.685345553452503
-0.6280567019573403,8.934843590193713,-6.620911357757357,-12.71040096050627
-0.5387082660554032,9.642362580894886,-6.748015367362419,-13.58437088569968
-0.44228464024645436,9.902334913115485,-6.883859076219416,-13.868329440241933
-0.3432612911152995,9.485805801105647,-7.022542370621835,-13.246962874002781
-0.24840323310424306,8.622093278864075,-7.155011999361863,-12.03692795752303
-0.16218230031560232,7.7189542626519065,-7.275381278937093,-10.794650608125906
-0.08499275768908325,6.954766777326083,-7.383327785018352,-9.757196630640589
-0.015445089915822427,6.342019495558886,-7.480899751324758,-8.935710641807567
0.04797510503976643,5.851032158784555,-7.570256857742834,-8.286219172975386
0.10648542662761198,5.451767446193072,-7.653119049472588,-7.766003896632251
0.16100310108954272,5.121204754439189,-7.7307790884389105,-7.342927927968404
0.2122151486339346,4.84268522701175,-7.804208367718594,-6.994116408828511
0.2606420009040521,4.604185567806728,-7.8741495318068795,-6.703381278621323
0.3066838565821194,4.396894665165825,-7.941183344593092,-6.459166486374919
0.3506528032337776,4.214215642785197,-8.005775009456842,-6.253124493264516
0.3927949596616296,4.051095526860432,-8.068306254389487,-6.079158709088835
0.4333059149302339,3.903581252403561,-8.129097841480375,-5.932772674996871
0.4723417274542695,3.768530740329381,-8.188425568230343,-5.810611513909969
0.5100270348575633,3.6434340875813267,-8.246531683369444,-5.710118105648722
0.5464613757333765,3.5263173443411953,-8.30363286442593,-5.629252266252533
0.5817245491767884,3.4157103113935454,-8.359925387088456,-5.566240798985188
0.6158816522907239,3.310660731428916,-8.415587795078308,-5.519345158382277
0.648988259605013,3.2107706614134153,-8.47078124666213,-5.486655328872185
0.6810959662191473,3.116219375827438,-8.525647799950852,-5.465942430138864
0.7122581599774216,3.027728409888411,-8.58030722425224,-5.454619756891514
0.7425354440763057,2.946430632272025,-8.634853421821154,-5.449856455529969
0.7719997503990259,2.8736364374085546,-8.689351986376453,-5.448846989784408
0.8007361147731115,2.810540531527085,-8.743840456274297,-5.449171708169827
0.8288415200883823,2.7579548683689583,-8.798332173355995,-5.4491277850032835
0.8564210687720719,2.716154347522927,-8.852823451206028,-5.447910655960087
0.8835826122473012,2.684875040865641,-8.907302557765629,-5.445592400420658
0.9104313626559576,2.6634401236042202,-8.961758481769836,-5.442932813999092
0.9370657638919998,2.6509473793708134,-9.016187809909827,-5.441114683297216
0.963575237685708,2.6464512794658104,-9.0705989567428,-5.441494445190571
0.9900397504803661,2.6490990822201015,-9.125013901194706,-5.445422136368623
1.016530741302567,2.6582107577144387,-9.179468122558392,-5.454142856983545
1.0431128488797115,2.6733122237870357,-9.234009551128228,-5.468765621538141
1.0698459711175818,2.6941383357394133,-9.28869720734361,-5.490276766079774
1.096787354474976,2.7206208409945924,-9.343599975004407,-5.519577479065355
1.123993562884922,2.752872163479527,-9.398795749795061,-5.5575314772398965
1.1515222845197173,2.7911715250290547,-9.45437106456746,-5.605015141882815
1.1794339997700078,2.83595672169133,-9.51042121598629,-5.662967014733827
1.207793566986921,2.887822929468808,-9.567050886133627,-5.732436349371249
1.2366717962816092,2.9475288743471277,-9.62437524962734,-5.814631850100541
1.2661470850250804,3.016010146175003,-9.682521568128346,-5.910972227203126
1.2963071864868305,3.0943989621578427,-9.741631290400377,-6.023139958475725
1.327251176108409,3.184048854942847,-9.801862689985136,-6.153138556180145
1.3590916646578375,3.2865609445367885,-9.863394075546937,-6.303351115652452
1.3919572741032054,3.4038045506581875,-9.926427586703461,-6.476592605734186
1.4259953196097872,3.5379168169740542,-9.991193512760804,-6.676137443657843
1.4613744877795278,3.691249716197303,-10.057954887197383,-6.905681832594246
1.4982869849415008,3.866200709590596,-10.127011705523325,-7.169156596936559
1.5369489920374069,4.064802200797779,-10.19870327149269,-7.470222239414036
1.5775970140453845,4.287835528188837,-10.27340549388683,-7.811126295133727
1.6204753693272729,4.533065265022026,-10.351516756838167,-8.190364913079726
1.665806021977493,4.792019600229439,-10.433420405968965,-8.598346363046183
1.7137262179797874,5.044923543008303,-10.519403869599428,-9.01048557558531
1.7641754534098704,5.254998329324572,-10.609508725355282,-9.379354583526284
1.816725436703116,5.367982027191157,-10.703302271190545,-9.633916024879696
