th1 (rad),w1 (rad/s),th2 (rad),w2 (rad/s),a1 (rad/s^2),a2 (rad/s^2)
1.9412190118596817,-0.5756147706314604,4.103810802187733,2.194601092919355,-5.8866473548897105,4.481660295887335
1.935462864153367,-0.6344812441803575,4.125756813116927,2.2394176958782284,-5.8210115997179654,4.453945454263709
1.9291180517115636,-0.6926913601775371,4.148150990075709,2.2839571504208656,-5.76471231591515,4.4178471874894845
1.9221911381097883,-0.7503384833366886,4.170990561579917,2.3281356222957603,-5.719060518350363,4.37278729038901
1.9146877532764213,-0.8075290885201922,4.194271917802875,2.3718634951996505,-5.685503811022776,4.317962367524046
1.9066124623912193,-0.86438412663042,4.217990552754872,2.415043118874891,-5.665639281509481,4.252325909008159
1.8979686211249152,-0.9210405194455148,4.242140983943621,2.4575663779649726,-5.661223862099007,4.174574584051651
1.8887582159304601,-0.9776527580665049,4.26671664772327,2.499312123805489,-5.6741796485538405,4.083142144196469
1.8789816883497952,-1.0343945545520432,4.291709768961325,2.540143545247454,-5.706590617493833,3.976205802936013
1.8686377428042746,-1.0914604607269816,4.317111204413799,2.579905603276814,-5.760685858688187,3.8517118396011534
1.8577231381970047,-1.1490673193138634,4.342910260446567,2.6184227216728253,-5.838802853348978,3.707429453173932
1.8462324650038662,-1.207455347847353,4.369094487663295,2.655497016204565,-5.943322577108554,3.5410444487181953
1.8341579115253925,-1.2668885736184385,4.395649457825341,2.6909074606917467,-6.07656651839858,3.3503068668463385
1.8214890257892082,-1.3276542388024244,4.422558532432259,2.72441052936021,-6.240644529722062,3.1332485507136365
1.808212483401184,-1.390060684099645,4.449802637725861,2.7557430148673463,-6.437242531971606,2.8884868309687444
1.7943118765601875,-1.454433109419361,4.477360067874534,2.7846278831770337,-6.667341617469645,2.6156273878399037
1.779767545465994,-1.5211065255940575,4.505206346706305,2.8107841570554326,-6.930866572621619,2.315770751003427
1.7645564802100535,-1.5904151913202735,4.533314188276859,2.833941864565467,-7.22627397610257,1.9921103467839116
1.7486523282968507,-1.6626779310812991,4.561653606922514,2.8538629680333063,-7.550109180572404,1.6505834499069387
1.7320255489860377,-1.738179022887023,4.590192236602847,2.8703688025323757,-7.896587649294473,1.3004996292365238
1.7146437587571675,-1.8171448993799677,4.618895924628171,2.8833737988247408,-8.257286457309084,0.9550279957630117
1.6964723097633678,-1.8997177639530585,4.647729662616418,2.8929240787823707,-8.621059077536527,0.6313846204827068
1.6774751321238373,-1.9859283547284237,4.676658903404242,2.899237924987198,-8.974298664137743,0.3505419270573316
1.657615848576553,-2.075671341369801,4.705651282654114,2.9027433442577713,-9.301656545658606,0.1363045785532512
1.636859135162855,-2.168687906826387,4.734678716096692,2.904106390043304,-9.58726057716928,0.013680473718771414
1.6151722560945911,-2.26456051259808,4.763719779997125,2.904243194780492,-9.816370824340762,0.00662456651693234
1.5925266509686102,-2.3627242208414874,4.79276221194493,2.9043094404456613,-9.977276461881017,0.13542265752253335
1.5688994087601953,-2.4624969854602976,4.821805306349386,2.9056636670208866,-10.063118557600509,0.4141557171182216
1.5442744389055922,-2.5631281710363027,4.850861943019595,2.909805224192069,-10.073270138491665,0.8487696399165645
1.5186431571952292,-2.6638608724212194,4.879959995261515,2.9182929205912345,-10.01395617961676,1.4362138331941663
1.4920045484710172,-2.764000434217387,4.909142924467428,2.932655058923176,-9.897952843939214,2.164899646347439
1.4643645441288433,-2.8629799626567793,4.93846947505666,2.9543040553866504,-9.743422109185676,3.0164268385287096
1.4357347445022755,-2.960414183748636,4.968012515610527,2.9844683237719374,-9.57214043566198,3.968236869532296
1.406130602664789,-3.056135588105256,4.997857198848246,3.0241506924672605,-9.407499909549026,4.996674378290548
1.3755692467837366,-3.150210587200746,5.028098705772918,3.074117436250166,-9.27266643604558,6.079920716544166
1.344067140911729,-3.242937251561202,5.0588398801354195,3.1349166434156075,-9.189188094935435,7.200387714345692
1.3116377683961171,-3.3348291325105563,5.090189046569575,3.2069205205590645,-9.176205519748425,8.34636124150462
1.2782894770710116,-3.4265911877080404,5.1222582517751665,3.290384132974111,-9.250278151279534,9.512888067868511
1.244023565193931,-3.519093969220836,5.155162093104908,3.3855130136527958,-9.425742302416266,10.702052633957985
1.2088326255017228,-3.6133513922449985,5.189017223241436,3.4925335399923756,-9.715472215386294,11.922872560066264
1.1726991115792729,-3.7105061143988616,5.22394255864136,3.6117622655930384,-10.131917509523456,13.191061088896964
1.1355940504352842,-3.811825289494096,5.26006018129729,3.743672876482008,-10.688324013197514,14.528883956443384
1.0974757975403433,-3.918708529626071,5.297496910062111,3.888961716046442,-11.400093794365349,15.965302287303972
1.0582887122440825,-4.032709467569725,5.336386527222575,4.048614738919482,-12.286292452331812,17.53656132703735
1.0179616175683852,-4.155572392093043,5.37687267461177,4.223980352189855,-13.371360884083197,19.287368194059333
0.9764058936474548,-4.289286000933875,5.419112478133668,4.4168540341304485,-14.687131515658203,21.272802825587124
0.933513033638116,-4.436157316090457,5.463281018474972,4.62958206238632,-16.275280857379315,23.56111741590919
0.8891514604772114,-4.59891012466425,5.509576839098835,4.865193236545412,-18.190356785485807,26.237576044731764
0.8431623592305689,-4.780813692519108,5.558228771464289,5.12756899699273,-20.503457051457556,29.40940269072751
0.7953542223053779,-4.985848263033684,5.6095044614342155,5.421663023900005,-23.30638794877794,33.211575546076155
0.745495739675041,-5.218912142521463,5.6637210916732155,5.753778779360767,-26.715393472908946,37.812201761117635
0.6933066182498264,-5.486066077250552,5.7212588794668235,6.131900796971943,-30.87153262454262,43.413438540509915
0.6384459574773209,-5.794781403495978,5.782577887436543,6.566035182377042,-35.9295060005508,50.2366180579477
0.5804981434423612,-6.154076463501486,5.848238239260313,7.068401362956519,-42.01324372003103,58.461463595888915
0.5189573788073463,-6.574208900701796,5.918922252889878,7.653015998915408,-49.08334064745546,68.04288688932986
0.4532152898003283,-7.065042307176351,5.9954524128790325,8.333444867808707,-56.58679118697008,78.22430040569935
0.3825648667285648,-7.630910219046052,6.07878686155712,9.1156878718657,-62.63459989472052,86.39066266521827
0.3062557645381043,-8.257256217993257,6.169943740275777,9.979594498517883,-62.4820965113417,85.94264753002415
0.22368320235817174,-8.882077183106674,6.269739685260955,10.839020973818124,-47.46882359642103,64.80481335643785
0.134862430527105,-9.356765419070884,6.3781298949991365,11.487069107382503,-10.447269438358626,13.0037288954513
0.041294776336396166,-9.46123811345447,6.493000586072961,11.617106396337016,37.58251379614656,-54.10507394632219
-0.05331760479814854,-9.085412975493005,6.609171650036331,11.076055656873795,68.39877067706693,-97.23971332128637
-0.14417173455307858,-8.401425268722337,6.719932206605069,10.10365852366093,72.76958140933061,-103.71363032010895
-0.22818598724030195,-7.67372945462903,6.820968791841678,9.066522220459841,63.797949318755364,-91.82173197862924
-0.3049232817865922,-7.035749961441477,6.911634014046276,8.14830490067355,52.46305007414494,-76.76470948532489
-0.375280781401007,-6.511119460700027,6.9931170630530115,7.3806578058203005,42.55583951518348,-63.74329060080449
-0.4403919760080073,-6.085561065548193,7.066923641111215,6.7432248998122555,34.65329802576052,-53.52300369843385
-0.5012475866634892,-5.739028085290587,7.134355890109338,6.207994862827917,28.47059400163281,-45.69237713278191
-0.5586378675163951,-5.45432214527426,7.196435838737616,5.751071091500098,23.610639563847304,-39.69235208547249
-0.6131810889691377,-5.218215749635786,7.253946549652618,5.354147570645373,19.741417944373573,-35.05600433862142
-0.6653632464654956,-5.0208015701920505,7.3074880253590715,5.003587527259159,16.615786262393044,-31.43274588272167
-0.7155712621674161,-4.85464370756812,7.357523900631663,4.689260068431942,14.056408200252491,-28.56561209790157
-0.7641176992430972,-4.714079625565595,7.404416501315983,4.403603947452926,11.937677227347162,-26.265019673775438
-0.8112584954987532,-4.594702853292123,7.448452540790512,4.1409537507151715,10.17136058636753,-24.388003242076778
-0.8572055240316744,-4.492989247428448,7.489862078297664,3.8970737182944037,8.696303500750238,-22.823332804242387
-0.9021354165059589,-4.4060262124209455,7.528832815480608,3.66884039025198,7.471221563574573,-21.481244319711028
-0.9461956786301683,-4.3313139967852,7.565521219383128,3.4540279470548696,6.469571052042956,-20.28656298623689
-0.9895088185980203,-4.26661828626477,7.600061498853677,3.2511623171925006,5.675696924753166,-19.17435865440871
-1.032175001460668,-4.209861317017238,7.632573122025602,3.0594187306484133,5.081668599576267,-18.087592694006446
-1.0742736146308405,-4.159044631021476,7.663167309332086,2.8785428037083487,4.684389327025968,-16.97642087964214
-1.1158640609410553,-4.112200737751216,7.691952737369169,2.7087785949119274,4.4827238662299465,-15.798898636739153
-1.1569860683185675,-4.067373499088917,7.719040523318288,2.550789608544536,4.474553920853666,-14.522799696164045
-1.1976598033094568,-4.0226279598803805,7.744548419403733,2.4055616115828955,4.653850768336531,-13.128126878222384
-1.2378860829082605,-3.9760894521970154,7.768604035519562,2.2742803428006715,5.008035823087746,-11.609709417298115
-1.2776469774302306,-3.926009093966138,7.791346838947569,2.15818324862769,5.516042351883171,-9.979122050994162
-1.316907068369892,-3.870848670447306,7.812928671433846,2.0583920281177486,6.147537854474724,-8.265125632176996
-1.3556155550743652,-3.809373291902559,7.8335125917150235,1.9757407717959785,6.863666358718786,-6.512002982516212
-1.3937092879933908,-3.740736628315371,7.8532699994329835,1.9106207419708163,7.619412484229125,-4.77557076293954
-1.4311166542765446,-3.6645425034730796,7.8723762068526915,1.862865034341421,8.367327639947575,-3.117212929168538
-1.4677620793112753,-3.5808692270736038,7.891004857196106,1.8316929050497357,9.062004466267869,-1.5968362379243688
-1.5035707715820115,-3.490249182410925,7.909321786246603,1.815724542670492,9.664467413817187,-0.2659952739211964
-1.5384732634061207,-3.393604508272753,7.927479031673308,1.81306458993128,10.145652739193592,0.8375634701097995
-1.5724093084888482,-3.292147980880817,7.945609677572621,1.821440224632378,10.488383293684699,1.6930388394677136
-1.6053307882976564,-3.18726414794397,7.963824079818945,1.8383706130270552,10.687619294263753,2.297068224977015
-1.637203429777096,-3.0803879550013322,7.982207785949216,1.8613412952768253,10.749156876510607,2.661849482296292
-1.6680073093271095,-2.972896386236226,8.000821198901985,1.8879597900997882,10.687234110593117,2.8116031057415785
-1.6977362731894718,-2.866024045130295,8.019700796802983,1.916075821157204,10.521626682754214,2.778268718563178
-1.7263965136407748,-2.7608077783027527,8.038861555014556,1.9438585083428357,10.27477656033073,2.5972638027441413
-1.7540045914238023,-2.6580600126994454,8.058300140097984,1.9698311463702771,9.969349205313485,2.3039009672006823
-1.7805851915507966,-2.5583665206463104,8.077998451561687,1.992870156042284,9.626427576908426,1.930771060243523
-1.8061688567572598,-2.4621022448772263,8.097927153122109,2.012177866644719,9.264382249187555,1.5061421641629422
-1.830789879206032,-2.3694584223853505,8.118048931788556,2.0272392882863484,8.89833888479421,1.0532474700650363
-1.8544844634298854,-2.2804750335374084,8.13832132467142,2.0377717629869987,8.54010389470293,0.590247020864838
-1.8772892137652595,-2.195073994590379,8.15869904230129,2.043674233195647,8.198396128464966,0.13063225025530736
-1.8992399537111633,-2.1130900333057294,8.179135784633246,2.0449805556982,7.879249766571401,-0.31612877402538375
-1.9203708540442206,-2.0342975356400155,8.199585590190228,2.0418192679579463,7.586484877363653,-0.7438585738473438
-1.9407138294006208,-1.958432686866379,8.220003782869808,2.034380682219473,7.322175519923072,-1.1489520629210577
-1.9602981562692845,-1.8852109316671484,8.240347589692004,2.0228911615902625,7.087074136808217,-1.5297316295925305
-1.979150265585956,-1.8143401902990661,8.260576501307906,2.007593845294337,6.880972705223619,-1.8859019968224693
-1.9972936674889468,-1.74553046324683,8.28065243976085,1.9887348253261126,6.702995696770676,-2.218110087414061
-2.014748972121415,-1.6785005062791232,8.300539788014111,1.966553724451972,6.551828577337373,-2.5276027368654965
-2.031533977184206,-1.6129822205057494,8.32020532525863,1.941277697083317,6.425889958494268,-2.815969090293351
-2.0476637993892637,-1.5487233209208067,8.339618102229464,1.9131180061803834,6.323457061872947,-3.0849526433233025
-2.063151032598472,-1.4854887503020773,8.358749282291267,1.8822684797471503,6.2427540319863395,-3.336318405363275
-2.0780059201014924,-1.423061209982214,8.37757196708874,1.8489052956935175,6.182011641753129,-3.5717623762157706
-2.092236532201315,-1.3612410935646826,8.396061020045675,1.8131876719313598,6.139505599177084,-3.792852674718471
-2.105848943136962,-1.2998460375729117,8.41419289676499,1.775259145184175,6.113579287749711,-4.000993805809686
-2.118847403512691,-1.2387102446954146,8.431945488216831,1.735249207126078,6.102655515227658,-4.1974074810632125
-2.131234505959645,-1.177683689543138,8.449297980288092,1.693275132315446,6.1052407717526505,-4.383125031506212
-2.1430113428550763,-1.1166312818256114,8.466230731611246,1.6494438820003838,6.119924622171015,-4.558987759893938
-2.1541776556733323,-1.0554320356039013,8.48272517043125,1.6038540044014444,6.145376164774245,-4.725652599887507
-2.1647319760293713,-0.9939782739561589,8.498763710475265,1.5565974784025693,6.1803389536002395,-4.883601224416339
-2.174671758768933,-0.9321748844201565,8.514329685259291,1.507761466158406,6.223625375045995,-5.0331513203637765
-2.1839935076131347,-0.8699386306696966,8.529407299920875,1.4574299529547683,6.274111164646385,-5.174469163616696
-2.1926928939198316,-0.8071975190232327,8.543981599450422,1.4056852613186013,6.330730522954513,-5.307582923511977
-2.200764869110064,-0.7438902137936876,8.558038452063608,1.3526094320834816,6.39247212126662,-5.432396328343513
-2.2082037712480007,-0.6799654925810213,8.571564546384442,1.2982854688000465,6.4583761633175545,-5.548702457394098
-2.2150034261738107,-0.6153817309478458,8.584547401072443,1.2427984442261055,6.527532576476209,-5.656197508320232
-2.2211572434832894,-0.5501064051830836,8.596975385514705,1.1862364691429033,6.5990803368265665,-5.754494435863222
-2.22665830753512,-0.48411560181481794,8.608837750206135,1.128691524784271,6.672207880645111,-5.843136379708366
-2.231499463553268,-0.41739352300836685,8.620124665453977,1.0702601609871873,6.7461545158358796,-5.9216098042286625
-2.235673398783352,-0.34993197785000807,8.630827267063848,1.0110440629449007,6.820212717894146,-5.989357267218141
-2.239172718561852,-0.2817298506710666,8.640937707693297,0.9511504902727193,6.893731173961323,-6.045789723393787
-2.241990017068563,-0.21279253893145336,8.650449212596024,0.8906925930387813,6.966118424211592,-6.090298255067294
-2.2441179424578777,-0.14313135468933744,8.659356138526412,0.8297896104881084,7.036846941313867,-6.122265109630369
-2.245549256004771,-0.07276288527619877,8.667654034631294,0.7685669593918047,7.105457485433771,-6.141073913240396
-2.246276884857533,-0.0017083104218610645,8.675339704225213,0.7071562202594008,7.1715635736923,-6.146118923566606
-2.2462939679617517,0.07000732531506193,8.682411266427806,0.6456950310237348,7.234855908730931,-6.136813182360124
-2.245593894708601,0.14235588440237124,8.688868216738044,0.5843268992001336,7.295106620584832,-6.112595431222293
-2.244170335864577,0.21530695060821955,8.694711485730044,0.5232009448879107,7.352173188944346,-6.072935661225668
-2.242017266358495,0.288828682497663,8.699943495178923,0.462471588275654,7.4060019285690615,-6.017339178730679
-2.2391289795335183,0.36288870178335364,8.70456821106168,0.4022981964883472,7.456630938568221,-5.9453490854439055
-2.235500092515685,0.43745501116903585,8.708591193026564,0.3428447056339081,7.504192435931505,-5.8565470900259555
-2.2311255424039946,0.5124969355283508,8.712019640082904,0.2842792347336486,7.5489144145396025,-5.750552590911609
-2.226000573048711,0.5879860796737468,8.714862432430241,0.2267737088245325,7.591121592356368,-5.627019995010709
-2.2201207122519735,0.6638972955973105,8.717130169518486,0.1705035088744254,7.631235631036852,-5.485634264206902
-2.2134817392960002,0.740209651907679,8.71883520460723,0.11564716623235638,7.66977463316791,-5.326104710692469
-2.2060796427769236,0.8169073982393581,8.719991676269553,0.06238611912543168,7.707351942106622,-5.148157092825458
-2.19791056879453,0.8939809176604243,8.720615537460807,0.010904548197177101,7.744674287112469,-4.951524095056759
-2.1889707596179258,0.971427660531549,8.720724582942779,-0.03861069275339049,7.782539331274448,-4.735934308276339
-2.1792564830126104,1.0492530538442935,8.720338476015245,-0.08597003583615388,7.8218326905754125,-4.501099860475649
-2.1687639524741673,1.1274713807500476,8.719478775656883,-0.13098103444091036,7.863524498147729,-4.246702881869964
-2.157489238666667,1.206106625731525,8.718168965312474,-0.17344806325960999,7.908665587084193,-3.9723810237543713
-2.1454281724093516,1.2851932816023668,8.716434484679878,-0.2131718734971537,7.958383356725313,-3.677712286912231
-2.132576239593328,1.36477711516962,8.714302765944906,-0.249948996366276,8.013877369752972,-3.3621994543527554
-2.118928468441632,1.4449158888671496,8.711803275981243,-0.28357099090980353,8.076414699274155,-3.025254466107393
-2.1044793095529606,1.5256800358598912,8.708967566072145,-0.31382353557087744,8.147325004983754,-2.6661831230295934
-2.0892225091943617,1.6071532859097288,8.705829330716437,-0.34048536680117336,8.227995264093598,-2.2841705650353683
-2.0731509763352642,1.6894332385506647,8.702424477048424,-0.36332707245152707,8.319864014695947,-1.8782680407722805
-2.0562566439497574,1.7726318786976243,8.698791206323909,-0.38210975285924986,8.424414885357765,-1.4473815747984748
-2.0385303251627813,1.856876027551202,8.694970108795317,-0.3965835686072346,8.543169083904257,-0.9902632500358519
-2.0199615648872693,1.9423077183902446,8.691004273109245,-0.4064862011075931,8.677676399662307,-0.5055059628647868
-2.0005384877033667,2.029084482386868,8.68693941109817,-0.411541260736241,8.829504136440272,0.008457319064026001
-1.980247642879498,2.1173795237512705,8.682823998490807,-0.4114566875456007,9.000223238529943,0.5533485560356903
-1.9590738476419853,2.20738175613657,8.678709431615351,-0.40592320198524384,9.1913907006452,1.1310324019520315
-1.9370000300806196,2.299295663143022,8.674650199595499,-0.39461287796572353,9.404527168682161,1.7434949561053925
-1.9140070734491894,2.3933409348298436,8.670704070815841,-0.3771779284046696,9.641088448457896,2.3928113968180265
-1.890073664100891,2.4897518193144226,8.666932291531793,-0.35324981443648934,9.902429455874149,3.0811000479837043
-1.865176145907747,2.588776113873164,8.663399793387429,-0.3224388139566523,10.189758982656418,3.810460087883497
-1.8392883847690153,2.690673703699728,8.660175405247863,-0.2843342130778173,10.504083544312644,4.582889809908754
-1.812381647732018,2.7957145391428546,8.657332063117085,-0.23850531497872976,10.846138560099439,5.400182145429798
-1.7844245023405896,2.904175924743849,8.654947009967298,-0.1845034935244318,11.216305241265779,6.26379414283236
-1.755382743093151,3.016338977156507,8.653101975032055,-0.12186555209610819,11.61451190171299,7.17468737508655
-1.725219353321586,3.132484096173637,8.651883319511093,-0.050118678345242695,12.04011903750004,8.133136962865956
-1.6938945123598497,3.2528852865486373,8.65138213272764,0.031212691283416874,12.491788542502306,9.138508220366477
-1.6613656594943633,3.3778031719736603,8.651694259640475,0.12259777348708165,12.967338932853995,10.189002041976584
