th1 (rad),w1 (rad/s),th2 (rad),w2 (rad/s)
3.4851395207993026,-1.382897500393099,1.7969391640580576,0.017368036339720366
3.4713105457953715,-1.3541738423103777,1.7971128444214548,-0.05577979870568017
3.457768807372268,-1.326298098516128,1.796555046434398,-0.1301635744418167
3.4445058263871067,-1.2993221362113134,1.7952534106899798,-0.20572219437820952
3.4315126050249933,-1.273304106521191,1.7931961887461978,-0.282394245734464
3.4187795639597813,-1.2483080957044195,1.7903722462888532,-0.36011805475386033
3.406296483002737,-1.2244037790053093,1.7867710657413145,-0.43883179766681024
3.394052445212684,-1.20166607706591,1.7823827477646463,-0.5184736591850883
3.382035784442025,-1.1801748152873646,1.7771980111727954,-0.5989820300736792
3.370234036289151,-1.1600143869020014,1.7712081908720587,-0.6802957350600455
3.3586338924201313,-1.1412734207816402,1.7644052335214582,-0.7623542821083956
3.347221158212315,-1.1240444551591238,1.7567816907003742,-0.8450981239142606
3.3359807136607236,-1.1084236184773253,1.7483307094612315,-0.9284689223645236
3.32489647747595,-1.094510318503029,1.7390460202375861,-1.0124098066593366
3.31395137429092,-1.0824069406540313,1.7289219221709928,-1.096865615801821
3.3031273048843794,-1.072218556189619,1.7179532660129746,-1.181783116223684
3.2924051193224835,-1.06405264051116,1.7061354348507378,-1.2671111854228738
3.281764592917372,-1.058018801315404,1.6934643229965092,-1.352800952635069
3.271184404904218,-1.0542285157431088,1.6799363134701586,-1.4388058877355516
3.260642119746787,-1.0527948749751999,1.665548254592803,-1.5250818297632558
3.250114170997035,-1.053832333953685,1.6502974362951706,-1.611586946666439
3.2395758476574983,-1.0574564630518104,1.6341815668285062,-1.6982816180823672
3.2290012830269803,-1.063783697595389,1.6171987506476826,-1.785128233176102
3.2183634460510264,-1.0729310801545944,1.5993474683159217,-1.8720908957724591
3.2076341352494806,-1.085015989494752,1.5806265593581972,-1.9591350292198826
3.196783975354533,-1.1001558490106835,1.5610352090659985,-2.046226873628383
3.185782416864426,-1.1184678063905127,1.5405729403297146,-2.133332868333523
3.174597738800521,-1.1400683751844198,1.5192396116463793,-2.220418912668105
3.163197055048677,-1.165073027919782,1.4970354225196982,-2.3074494983930682
3.151546324769479,-1.1935957294406605,1.4739609275357675,-2.394386707477631
3.1396103674750724,-1.2257483982979285,1.4500170604609912,-2.4811890693636953
3.127352883492093,-1.2616402833256082,1.4252051697673542,-2.5678102724491203
3.114736480658837,-1.3013772420671634,1.399527067042863,-2.654197725337792
3.101722708238165,-1.3450609075300495,1.372985089789485,-2.740290964501916
3.0882720991628645,-1.3927877299251337,1.3455821801444658,-2.826019906464861
3.0743442218636132,-1.4446478806769527,1.3173219810798171,-2.911302944532014
3.0598977430568435,-1.5007240071674395,1.288208951634497,-2.996044892570327
3.044890502985169,-1.561089828503226,1.2582485027087937,-3.0801347814657287
3.029279604700137,-1.6258085651824035,1.2274471548941364,-3.1634435177704026
3.013021519048313,-1.6949311989873082,1.1958127197164323,-3.245821418778735
2.99607220705844,-1.7684945638444902,1.163354505528645,-3.327095643912712
2.978387261419995,-1.846519273853939,1.1300835490895178,-3.4070675488962894
2.959922068681456,-1.9290075012518033,1.096012873600555,-3.4855099967533705
2.9406319936689376,-2.0159406247489047,1.0611577736330213,-3.5621646681193897
2.9204725874214486,-2.1072767774418746,1.0255361269518275,-3.6367394225870715
2.8993998196470296,-2.2029483332174418,0.9891687327259567,-3.7089057726066503
2.877370336314855,-2.3028593810761544,0.9520796749998902,-3.778296541534386
2.8543417425040936,-2.4068832478146738,0.9142967095845463,-3.8445037873833607
2.830272910025947,-2.514860140661464,0.8758516717107128,-3.9070770832036783
2.8051243086193325,-2.626594992313449,0.836780900878676,-3.965522253261177
2.778858358696198,-2.74185560086293,0.7971256783460642,-4.0193006707070555
2.751439802687569,-2.860371165796274,0.7569326716389936,-4.067829226642361
2.722836091029606,-2.9818313280635107,0.71625437937257,-4.110481081828117
2.693017777748971,-3.105885826701358,0.6751495685542888,-4.14658731030788
2.6619589194819575,-3.2321448863007163,0.63368369545121,-4.1754395385530065
2.6296374706189503,-3.3601804485658064,0.5919293000656799,-4.196293674210753
2.596035666133292,-3.4895283573227807,0.5499663633235724,-4.20837480504885
2.5611403825600645,-3.6196915997759467,0.5078826152730839,-4.210883331211819
2.524943466562305,-3.75014469785645,0.4657737819609657,-4.203002372314948
2.4874420195837406,-3.8803393324175763,0.4237437582378162,-4.183906464815107
2.448638626259565,-4.009711269866552,0.3819046935896651,-4.152771533643801
2.4085415135608996,-4.137688645259166,0.3403769782532271,-4.1087860837114185
2.3671646271083078,-4.2637016370279825,0.2992891174161129,-4.051163509230249
2.324527610738028,-4.387193544815784,0.2587774823238104,-3.9791553587396122
2.28065567528987,-4.507633251206678,0.21898592873641431,-3.8920653176927384
2.2355793427778035,-4.62452900808694,0.18006527555948693,-3.7892635751484565
2.189334052696934,-4.737443436885965,0.14217263980800238,-3.670201124423757
2.1419596183280745,-4.84600956830121,0.1054706285637648,-3.534423410021914
2.0934995226450623,-4.94994767302267,0.07012639446354565,-3.3815825793110004
2.0440000459148355,-5.0490825558476775,0.03631056867043565,-3.2114474370915698
1.9935092203563587,-5.143360911470078,0.004196094299519955,-3.023910049892003
1.942075611241658,-5.232868286181145,-0.026043006199400073,-2.8189878250440885
1.8897469283798465,-5.3178451751022635,-0.05423288444984096,-2.5968198202373207
1.836568476628824,-5.398701831176098,-0.08020108265221416,-2.357656043282369
1.782581458317063,-5.476031491094015,-0.10377764308503785,-2.1018385922607585
1.7278211434061228,-5.550621951224342,-0.12479602900764544,-1.8297736616569615
1.6723149238938795,-5.623465761739415,-0.14309376562421505,-1.5418936790158972
1.6160802662764853,-5.695769746990854,-0.158512702414374,-1.2386090951252653
1.5591225688065766,-5.7689650909494405,-0.17089879336562666,-0.920249564357798
1.5014329178970822,-5.8447198249693315,-0.18010128900920463,-0.5869943444708345
1.442985719647389,-5.924956191270934,-0.18597123245391298,-0.23879164463509217
1.3837361577346796,-6.011875992103307,-0.1883591489002639,0.12473368652769912
1.3236173978136465,-6.107997614673879,-0.1871118120349869,0.5043852882664228
1.2625374216669076,-6.216208827642989,-0.18206795915232266,0.9015149722047141
1.2003753333904776,-6.339839390137743,-0.1730528094302755,1.3181588595363172
1.1369769394891003,-6.482756291476142,-0.15987122083491234,1.757190462764239
1.0721493765743388,-6.649480337821602,-0.14229931620726996,2.222485658766156
1.0056545731961228,-6.845311771126745,-0.1200744596196084,2.7190789094154906
0.9372014554848553,-7.0764252172442035,-0.09288367052545349,3.253250969993407
0.8664372033124133,-7.34982892562629,-0.06035116082551942,3.832395133477797
0.7929389140561504,-7.6729320737814835,-0.022027209490741446,4.464294379387841
0.7162095933183356,-8.052128367694067,0.022615734303136965,5.154967636630425
0.6356883096413949,-8.48912189542841,0.07416541066944121,5.903283749310162
0.5507970906871108,-8.972626010637834,0.13319824816254283,6.689011678123565
0.46107083058073245,-9.462628818144115,0.2000883649437785,7.450405226327826
0.3664445423992913,-9.870316735013416,0.27459241720705674,8.055852917144685
0.2677413750491571,-10.060985989619077,0.3551509463785036,8.308504721973595
0.16713151515296637,-9.931585009395585,0.4382359935982395,8.057153693475165
0.06781566505901052,-9.524942703839663,0.5188075305329911,7.359634089854013
-0.027433761979386115,-9.001884109193705,0.5924038714315313,6.444850044884531
-0.11745260307132317,-8.497669729813957,0.6568523718803766,5.508985823515303
-0.20242930036946274,-8.068551417522176,0.7119422301155296,4.637455556099091
-0.2831148145446845,-7.722273887104114,0.7583167856765205,3.846381694344914
-0.36033755341572565,-7.449260890557054,0.7967806026199696,3.126405967180893
-0.4348301623212962,-7.236562774045163,0.8280446622917785,2.462717908707802
-0.5071957900617479,-7.072270828943319,0.8526718413788565,1.8416892332881556
-0.577918498351181,-6.946402685253681,0.8710887337117381,1.2524536074560126
-0.6473825252037179,-6.850728305848158,0.8836132697862983,0.6869063266185734
-0.7158898082621994,-6.778372810121067,0.890482333052484,0.13931665985150243
-0.7836735363634101,-6.723445599156167,0.8918754996509991,-0.3940850987997828
-0.8509079923549717,-6.680754244975407,0.8879346486630013,-0.9154591085056132
-0.9177155348047258,-6.6456045684395235,0.8787800575779452,-1.425643150547807
-0.984171580489121,-6.613674025208971,0.8645236260724671,-1.9243933088043534
-1.0503083207412107,-6.580943689333943,0.8452796929844236,-2.410596531917521
-1.1161177576345502,-6.543675187091899,0.8211737276652484,-2.882468232327228
-1.1815545095054691,-6.498420220923311,0.7923490453419761,-3.3377419086286886
-1.2465387117147022,-6.442051421596198,0.7589716262556893,-3.7738523793789076
-1.3109592259306642,-6.371804397507199,0.7212331024619002,-4.188110297303972
-1.3746772699057361,-6.285322273680398,0.6793519994888605,-4.577863446505595
-1.43753049264254,-6.18069581282189,0.6335733650238046,-4.9406398622916665
-1.499337450770759,-6.056494255797253,0.5841669664008879,-5.274268708964722
-1.5599023933287317,-5.91178403246707,0.5314242793112407,-5.576976545696613
-1.6190202336534023,-5.746134175256384,0.47565451385427454,-5.847458478875266
-1.676481575405966,-5.559608412982313,0.41717992906552187,-6.084925220067259
-1.7320776595357892,-5.352744496697476,0.35633067686484926,-6.2891279542884355
-1.7856051045027639,-5.126521450142289,0.2934393973219649,-6.460363161307333
-1.8368703190041868,-4.882315393199888,0.22883576570889155,-6.5994593356585485
-1.8856934729361858,-4.621844620642164,0.16284117235230605,-6.707747241352428
-1.9319119191426075,-4.347104914875396,0.09576369993878177,-6.7870152153801655
-1.9753829682913615,-4.0602966768545405,0.027893547784980113,-6.839451274384065
-2.015985935059907,-3.763746274104428,-0.04050096495886055,-6.867574382449466
-2.0536233978009513,-3.4598248239469926,-0.10917670878335521,-6.87415804963839
-2.088221646040421,-3.1508682165809767,-0.17791828927973913,-6.862150205643573
-2.1197303282062308,-2.839102346102985,-0.24653979133617487,-6.83459378451576
-2.148121351667261,-2.5265771717494023,-0.3148857291813325,-6.794552495855609
-2.173387123384755,-2.215112414995578,-0.3828312541398886,-6.745045798121808
-2.1955382475347105,-1.9062565541944614,-0.4502817121211067,-6.688996206859279
-2.2146008130766552,-1.6012595085208432,-0.5171716741896994,-6.629190928473264
-2.230613408161864,-1.3010582106630328,-0.5834635834744321,-6.568258605814028
-2.2436239902684942,-1.0062733134213528,-0.6491461695325723,-6.5086608725273845
-2.2536867234027076,-0.7172146528899818,-0.7142327782578461,-6.452697558473114
-2.2608588699316075,-0.43389282753028363,-0.7787597538425772,-6.402523813487118
-2.2651977982069105,-0.1560343281984622,-0.8427849919774484,-6.360177091664566
-2.266758141488895,0.1169019677821761,-0.906386762894094,-6.327611766285163
-2.2655891218110735,0.3857084628715612,-0.9696628805569457,-6.306738965642831
-2.261732037182358,0.6514132014160547,-1.032730270213374,-6.299468794197339
-2.2552179051681973,0.9152639964451303,-1.0957249581553474,-6.307751072636394
-2.246065265203746,1.1787091120397313,-1.1588024688817113,-6.333608524352671
-2.2342781740833484,1.443367576194598,-1.222138554125238,-6.379152013975504
-2.2198444983214025,1.7109759591794058,-1.285930074264993,-6.446559449296852
-2.2027347387296086,1.9832879420021248,-1.3503956687579617,-6.5379858124853145
-2.1829018593095872,2.261885736289902,-1.4157755268828147,-6.655347943898854
-2.1602830019466883,2.5478358539961037,-1.4823290063218033,-6.799890421791395
-2.1348046434067274,2.841086552517313,-1.5503279105397172,-6.971388740726821
-2.1063937778815545,3.1394750410653174,-1.6200417979469854,-7.16680260267692
-2.074999027470901,3.437243955819103,-1.6917098239737547,-7.378230939688765
-2.04062658791271,3.7231980132081453,-1.7654921333706424,-7.590335151209366
-2.0033946077806286,3.979291781468286,-1.841395484882736,-7.7783087773500394
-1.9636016899659459,4.181566994961117,-1.9191785726562365,-7.909041817832006
-1.9217860200163346,4.305908518292808,-1.9982689908345566,-7.948912955142602
-1.8787269348334066,4.338443933758933,-2.0777581203859827,-7.878004877397107
-1.8353424954958173,4.28417264040931,-2.156538169159954,-7.7019160591975915
-1.7925007690917243,4.1654465604755195,-2.23355732975193,-7.4496539324722
-1.750846303486969,4.011032273615503,-2.308053869076652,-7.158693527809787
-1.710735980750814,3.8453956463428196,-2.37964080435475,-6.860482753308793
-1.672282024287386,3.6844793655877623,-2.448245631887838,-6.574892276314683
-1.6354372306315084,3.5366450664011606,-2.513994554650985,-6.311660215760903
-1.6000707799674967,3.405246101986513,-2.577111156808594,-6.073959520931997
-1.5660183189476315,3.290856432466428,-2.637850752017914,-5.861422777160976
-1.5331097546229673,3.1927111249757547,-2.696464979789524,-5.672059868449161
-1.5011826433732098,3.1095134110238445,-2.7531855784740156,-5.5033061762593904
-1.4700875092629715,3.039847269011348,-2.8082186402366096,-5.352538408268587
-1.439689036572858,2.982371122482455,-2.8617440243192953,-5.217300340667917
-1.4098653253480335,2.9358979298418215,-2.9139170277259745,-5.095381444892552
-1.3805063460496154,2.899419341571276,-2.9648708421749,-4.9848255103652335
-1.3515121526339027,2.8721040012634806,-3.0147190972785523,-4.883908798536572
-1.322791112621268,2.8532851065343245,-3.063558185263918,-4.791107267354862
-1.2942582615559246,2.8424444882507482,-3.1114692579374665,-4.705062193337388
-1.265833816673417,2.8391963869557015,-3.1585198798708403,-4.624548499005877
-1.23744185280386,2.843271968676622,-3.204765364860899,-4.54844778304079
-1.2090091331170938,2.854504449191378,-3.2502498426913067,-4.475727162245403
-1.18046408862518,2.8728139696631643,-3.2950071143137607,-4.4054249192001285
-1.1517359489285484,2.8981908179011477,-3.339061363505762,-4.3366442834605445
-1.1227540407495369,2.930675089017989,-3.3824278063403677,-4.268557283674393
-1.093447289859357,2.970330395342735,-3.4251133791771116,-4.200421360008457
-1.0637439859059297,3.0172088338889265,-3.4671175927771962,-4.131612140710284
-1.0335718975670405,3.0713042929261043,-3.508433714184299,-4.061676147944425
-1.0028588546377795,3.132491691372536,-3.5490504756637433,-3.9904066645116933
-0.971533937724054,3.2004514609042456,-3.5889545423088602,-3.917943737382634
-0.9395294231150116,3.2745822122845936,-3.6281339796826866,-3.844894267746503
-0.9067836009921657,3.353910677276284,-3.666582922360152,-3.7724594259527247
-0.8732444942194029,3.437016594135086,-3.704307516619679,-3.7025442912739184
-0.838874328278052,3.521999503188737,-3.7413329595324183,-3.6378110205487686
-0.8036543332461646,3.606520270852379,-3.777711069737906,-3.5816279538223244
-0.7675891305376409,3.6879461985889685,-3.8135273492761295,-3.537872119147905
-0.7307096685517512,3.7636089601957465,-3.8489060704676086,-3.510570289022958
-0.6930735789497937,3.8311493725940777,-3.8840117733578383,-3.503414456132671
-0.6547620852238529,3.888882904184835,-3.9190459179191652,-3.5192461478397297
-0.6158732561820046,3.9360949083821613,-3.9542383793975624,-3.559641345476093
-0.576512307098183,3.97318318452691,-3.9898347928523235,-3.6247167414403383
-0.536780475252914,4.001609748524823,-4.026081960266727,-3.7132147090266843
-0.4967643777676657,4.023684535540999,-4.063214107356994,-3.8228359657321493
-0.4565275324122557,4.042252123644602,-4.101442467014316,-3.9507180088156675
-0.41610501117580967,4.0603685204258095,-4.140949647102472,-4.093933800696695
-0.37550132597155156,4.081038486967323,-4.181888985109439,-4.2499096236836795
-0.33469094110187836,4.107050070559617,-4.224388081346276,-4.416711252831944
-0.2936204403962822,4.14091002136025,-4.268555193874596,-4.593196970354069
-0.2522113401826797,4.184862599004617,-4.3144871635781366,-4.779068126788834
-0.21036271419263353,4.240966880165685,-4.362277844846025,-4.9748601348091395
-0.16795304539097666,4.3112103026882505,-4.412026446194116,-5.181914715034102
-0.12484094236409415,4.397643688874857,-4.463845593344457,-5.402365747163678
-0.08086450547534557,4.502531474558708,-4.517869250816094,-5.639162195064736
-0.03583919072975849,4.628518286427032,-4.574260872766741,-5.896145325107192
0.010445992134511833,4.778818615419642,-4.633222326017814,-6.178194430285238
0.05823417828870825,4.957439647211291,-4.695004270320666,-6.491454234861266
0.10780857476082116,5.169446641819159,-4.759918812669279,-6.84365444873479
0.15950304117901276,5.421269938388739,-4.828355357156627,-7.244518584438947
0.21371574056290016,5.721016390939983,-4.900800543001017,-7.706211887685626
0.27092590447229997,6.078641564777229,-4.977862661877873,-8.243635494492233
0.33171232012007223,6.505545807481757,-5.060299016822796,-8.873973762805798
0.3967677781948898,7.012385089962361,-5.149038754450854,-9.613836252331179
0.4668916290945134,7.6020008594437645,-5.245177116974165,-10.469712876617342
0.5429116376889511,8.250625948944357,-5.349874245740339,-11.412215114601011
0.6254178971783947,8.867982498272363,-5.463996396886349,-12.320928765252255
0.7140977221611183,9.25023642387342,-5.587205684538872,-12.91905874797208
0.8066000863998525,9.138989149505822,-5.716396272018593,-12.855158967656136
0.8979899778949108,8.499466928302366,-5.844947861695155,-12.088178170300415
0.9829846471779344,7.620794512010061,-5.965829643398159,-11.0217786953896
1.059192592298035,6.772838830766374,-6.076047430352055,-10.026765017240672
1.1269209806056988,6.044045909032892,-6.176315080524462,-9.221810905505876
1.1873614396960277,5.430471576866682,-6.2685331895795215,-8.599877937944719
1.2416661554646946,4.906967081627642,-6.354531968958969,-8.126534045097834
1.290735826280971,4.449500433492817,-6.435797309409947,-7.770095243872313
1.335230830615899,4.039153659640058,-6.513498261848671,-7.506665835331724
1.3756223672122996,3.661621476502492,-6.588564920201988,-7.319165810545825
1.4122385819773244,3.306054079327472,-6.661756578307447,-7.195546507804337
1.4452991227705991,2.964092404986008,-6.7337120433854905,-7.127291841653454
1.4749400468204592,2.6292022225784546,-6.804984961802025,-7.108303209886253
1.5012320690462437,2.296262727581023,-6.876067993900888,-7.134069440892466
1.524194696322054,1.9613547872351096,-6.947408688309812,-7.201012824465829
1.5438082441944052,1.621709129938765,-7.01941881655447,-7.305926767511451
1.560025335493793,1.2757876063466045,-7.092478084229585,-7.4454475219343825
1.572783211557259,0.9234740512149155,-7.166932559448929,-7.6155292590884605
1.5820179520694082,0.5663423597127153,-7.243087852039814,-7.810923056893137
1.5876813756665353,0.20794644986187683,-7.321197082608745,-8.024700810967587
1.5897608401651542,-0.14595884940857368,-7.401444090718421,-8.2479149685356
1.5883012516710684,-0.4873962160093291,-7.483923240403777,-8.469534425697042
1.5834272895109751,-0.8064948929833301,-7.568618584660747,-8.676820365641312
1.5753623405811419,-1.0922907768442753,-7.65538678831716,-8.856263959463812
1.5644394328126991,-1.3340045686843713,-7.743949427911798,-8.99506783952178
1.5510993871258554,-1.522615614999605,-7.833900106307016,-9.082928923491073
1.5358732309758594,-1.6523568648834694,-7.924729395541927,-9.113665335641354
1.5193496623270246,-1.7216843650562752,-8.01586604889834,-9.086171413272812
1.5021328186764618,-1.7334096499254252,-8.106727763031069,-9.004373529002018
1.4847987221772074,-1.6939821650789677,-8.19677149832109,-8.876225671518142
1.4678589005264178,-1.6122064073025897,-8.28553375503627,-8.712121077223557
1.4517368364533918,-1.497814107059824,-8.372654965808506,-8.523223228853148
1.4367586953827935,-1.3602495207381056,-8.457887198097037,-8.320114785703796
1.4231562001754126,-1.2078522980617543,-8.541088345954075,-8.111944461162098
