th1 (rad),w1 (rad/s),th2 (rad),w2 (rad/s),a1 (rad/s^2),a2 (rad/s^2)
2.3510233297128877,2.9347473558092543,5.62429464733004,-1.31224341335425,-6.967690904194671,0.22342198051591938
2.3803708032709805,2.8650704467673074,5.611172213196498,-1.3100091935490907,-6.813761921489123,0.04575723367148571
2.4090215077386534,2.7969328275524163,5.598072121261007,-1.309551621212376,-6.6098635187420145,-0.03025051941056561
2.4369908360141777,2.730834192364996,5.584976605048883,-1.3098541264064816,-6.358784011334659,-0.011081392070123456
2.4642991779378276,2.6672463522516496,5.571878063784818,-1.309964940327183,-6.0654921659207455,0.09376285271846442
2.490971641460344,2.606591430592442,5.558778414381546,-1.3090273117999982,-5.7366465117850245,0.27246812947009946
2.5170375557662683,2.549224965474592,5.545688141263546,-1.3063026305052972,-5.380011520668286,0.5117533090330133
2.5425298054210144,2.4954248502679093,5.532625114958493,-1.301185097414967,-5.003850095070503,0.7977472648457754
2.5674840539236934,2.445386349317204,5.519613263984343,-1.2932076247665092,-4.61635735490456,1.1168020083227246
2.5919379174168653,2.3992227757681586,5.506681187736678,-1.282039604683282,-4.225186290623239,1.4561688444378484
2.6159301451745467,2.356970912861926,5.493860791689845,-1.2674779162389036,-3.8370958031247304,1.8044946214653375
2.639499854303166,2.318599954830679,5.481186012527456,-1.2494329700242501,-3.457730800244465,2.152125782214127
2.6626858538514724,2.2840226468282343,5.468691682827213,-1.2279117122021088,-3.0915263264883883,2.491233434497924
2.6855260803197547,2.2531073835633504,5.456412565705192,-1.2029993778571295,-2.741715485698628,2.815789903056042
2.708057154155388,2.2256902287063642,5.444382571926621,-1.174841478826569,-2.410414745376144,3.1214355996770857
2.730314056442452,2.2015860812526027,5.432634157138355,-1.1436271228297983,-2.0987593046648367,3.4052758525224642
2.7523299172549778,2.180598488205954,5.421197885910057,-1.1095743643045737,-1.8070640495112553,3.665642856544731
2.7741359021370373,2.1625278477108414,5.410102142267011,-1.0729179357391263,-1.534990538574016,3.901850585277163
2.7957611806141456,2.147177942325101,5.399372962909619,-1.0338994298863546,-1.2817060363477137,4.113962381722712
2.8172329600373964,2.134360881961624,5.389033968610756,-0.9927598060691275,-1.046025837602227,4.3025834237550145
2.838576568857013,2.1239006235856017,5.379106370550065,-0.9497339718315774,-0.8265344532528276,4.468684096767787
2.8598155750928687,2.1156352790530732,5.369609030831749,-0.9050471308638995,-0.6216844533632359,4.613455753680139
2.880971927883399,2.109418434519441,5.360558559523111,-0.8589125733270981,-0.42987392859154033,4.738197316365706
2.9020661122285936,2.1051196952335256,5.35196943378984,-0.811530600163441,-0.2495048062656991,4.844229414981638
2.923117309180929,2.1026246471708685,5.343854127788205,-0.7630883060136247,-0.07902485635952823,4.93283195715424
2.9441435556526376,2.101834398607273,5.336223244728069,-0.7137599864420823,0.08304364573601881,5.00520086733927
2.9651618996387104,2.1026648350646333,5.329085644863649,-0.6637079777686896,0.23808579342215022,5.062419988569833
2.986188547989357,2.105045692998855,5.322448565085962,-0.6130837778829913,0.3873839735166451,5.105444606352907
3.0072390049193456,2.108919532734021,5.316317727307132,-0.5620293318194622,0.5321137401336964,5.135093607499298
3.0283282002466856,2.114240670135358,5.310697433988937,-0.5106783957444693,0.6733439279110583,5.152047842400252
3.0494706069480393,2.1209741094144685,5.305590650031492,-0.45915791732046674,0.8120396570993843,5.1568527704356155
3.070680348042184,2.1290945059854622,5.300999070858287,-0.4075893896161106,0.9490671996187316,5.149923912188094
3.091971293102038,2.1385851779816494,5.296923176962126,-0.35609015049422965,1.0851999404327033,5.131554002184234
3.1133571448818547,2.1494371773859764,5.293362275457184,-0.3047746104723873,1.221124883849422,5.101921034587331
3.1348515166557145,2.1616484262244704,5.29031452935246,-0.253755400126514,1.357449324636769,5.061096629105506
3.1564680009179593,2.175222919470838,5.2877769753511945,-0.20314443383545894,1.494707435684315,5.009054324790712
3.1782202301126676,2.190169993827681,5.28574553101284,-0.1530538905875518,1.6333666241660725,4.945677545048532
3.2001219300509445,2.206503660069342,5.284214992106965,-0.10359711513706649,1.7738335831190848,4.870767076972324
3.222186966651638,2.224241995900533,5.283179020955594,-0.05488944436734324,1.9164600206315174,4.784047979794062
3.2444293866106433,2.243406596106848,5.282630126511921,-0.00704896456940262,2.0615480891179434,4.685175887231384
3.266863452571712,2.2640220769980277,5.282559636866227,0.03980279430291122,2.209355566267746,4.573742701959575
3.289503673341692,2.2861156326607053,5.282957664809256,0.08554022132250697,2.3601008602240476,4.449281701363728
3.312364829668299,2.3097166412629457,5.283813067022481,0.13003303833614424,2.513967926760108,4.3112720851689454
3.3354619960809284,2.334856320530547,5.285113397405842,0.1731457591878337,2.6711111974963777,4.159142999732282
3.358810559286234,2.3615674325055105,5.286844854997721,0.21473718918515652,2.831660626939327,3.9922770722732883
3.382426233611289,2.3898840387749036,5.288992226889572,0.2546599599078894,2.9957269733798606,3.8100134821526117
3.4063250739990383,2.419841308508702,5.291538826488651,0.29276009472941555,3.163407435269219,3.611650586085425
3.4305234870841255,2.4514753828613944,5.294466427435945,0.3288766005902698,3.3347917712142974,3.396448100163881
3.4550382409127396,2.4848233005735376,5.297755193441848,0.3628410815919086,3.5099690386992584,3.1636288237547348
3.479886473918475,2.5199229909605303,5.301383604257767,0.3944773698294559,3.6890350944690242,2.912379868510438
3.5050857038280805,2.5568133419052206,5.305328377956061,0.4236011685145603,3.8721010085961862,2.641853329486007
3.5306538372471326,2.5955343519911827,5.309564389641207,0.45001970180942036,4.059302555000415,2.351166304150303
3.5566091807670444,2.636127377541187,5.314064586659302,0.4735313648509234,4.250810954051279,2.039400128270202
3.582970454542456,2.6786354870816997,5.318799900307811,0.4939253661336254,4.446845058399523,1.7055986545003752
3.6097568094132733,2.723103937665695,5.323739153969147,0.5109813526786292,4.647685192005537,1.3487653492532217
3.6369878487899303,2.7695807895857505,5.328848967495934,0.5244690061711614,4.85368887527471,0.9678589252722569
3.6646836566857877,2.818117678338498,5.334093657557646,0.534147595423884,5.065308697247972,0.5617871605642638
3.6928648334691725,2.8687707653109777,5.339435133511885,0.5397654670295267,5.283112630089312,0.12939847839013635
3.721552541122282,2.921601891611871,5.34483278818218,0.5410594518134281,5.5078071229661765,-0.3305292223913268
3.750768560038401,2.9766799628415326,5.350243382700315,0.5377541595895148,5.740263363195791,-0.8193030918906629
3.7805353596668163,3.0340825964734903,5.35562092429621,0.5295611286706081,5.981547153450408,-1.3383339163588912
3.8108761856315514,3.0938980680079946,5.360916535582916,0.5161777895070192,6.232952925567691,-1.8891595829846113
3.8418151663116316,3.1562275972636713,5.366078313477987,0.4972861936771731,6.496042493551561,-2.473474343726604
3.8733774422842684,3.221188022199187,5.371051175414759,0.472551450239907,6.772689237642132,-3.0931648943444645
3.9055893225062603,3.2889149145756083,5.375776689917158,0.4416198012964624,7.065128500202997,-3.750354349040891
3.9384784716520165,3.359566199577638,5.380192887930122,0.4041162578060535,7.376015046594374,-4.44745519226367
3.972074133647793,3.4333263500435818,5.384234050508183,0.35964170588341676,7.708488469495905,-5.187232171503504
4.006407397148228,3.510411234738541,5.387830467567017,0.30776938416838173,8.066247337272562,-5.972875763764697
4.0415115094956136,3.5910737081112667,5.390908161408701,0.24804062653073478,8.45363260633253,-6.808086143736673
4.0774222465767265,3.675610034174592,5.393388567674008,0.17995976509336803,8.875720159855486,-7.697166233175721
4.1141783469184725,3.764367235773147,5.395188165324941,0.10298810276161081,9.338420999301242,-8.645119961870714
4.151822019276204,3.857751445766159,5.3962180463525575,0.016536903142903667,9.848585081905295,-9.657747548748073
4.190399533733865,3.956237296585212,5.396383415383987,-0.08004057234457707,10.41410017713265,-10.741722111071367
4.229961906699717,4.060378298356539,5.395583009660541,-0.18745779345529073,11.043968885734953,-11.904619020175243
4.270565689683282,4.170817987213888,5.3937084317259885,-0.3065039836570432,11.748332530977027,-13.154847408193545
4.312273869555422,4.288301312523658,5.390643391889418,-0.4380524577389786,12.538385589161196,-14.50139580321264
4.355156882680658,4.41368516841527,5.386262867312028,-0.583066415771105,13.426081277276722,-15.953240539450967
4.399293734364811,4.547945981188038,5.380432203154317,-0.7425988211656146,14.423455653076335,-17.518159167306163
4.444773194176691,4.6921805377188015,5.373006214942661,-0.9177804128386762,15.541274641527375,-19.200514378788178
4.4916949995538795,4.847593284134075,5.363828410814274,-1.109785556626558,16.786506727876823,-20.99728679077196
4.54017093239522,5.0154583514128435,5.352730555248009,-1.3197584245342775,18.157806174428416,-22.89118643542604
4.590325515909349,5.197036413157128,5.339532971002666,-1.548670288888538,19.637727204496564,-24.839024750238007
4.64229588004092,5.393413685202093,5.324046268113781,-1.797060536390918,21.17981577034968,-26.752743132691936
4.696230016892941,5.6052118429055895,5.306075662749872,-2.0645879677178374,22.68832444597792,-28.46998756854326
4.752282135321997,5.832095087365369,5.2854297830726935,-2.34928784340327,23.989027989778865,-29.712280139036956
4.810603086195651,6.071985367263157,5.26193690463866,-2.6464106447936393,24.793937101783836,-30.035182873162142
4.871322939868283,6.319924738280996,5.235472798190724,-2.946762473525261,24.675302872763684,-28.79304295798844
4.934522187251093,6.566677767008633,5.2060051734554715,-3.2346929031051452,23.089719237515528,-25.177328019860177
5.000188964921179,6.797574959383788,5.17365824442442,-3.486466183303747,19.52191310138839,-18.428500949935653
5.068164714515017,6.992794090397672,5.138793582591383,-3.6707511928031034,13.79673158523931,-8.290660949031873
5.138092655418994,7.130761406250065,5.1020860706633515,-3.753657802293422,6.4464594291009405,4.453414452213577
5.2094002694814945,7.195226000541075,5.064549492640417,-3.7091236577712863,-1.228506669390797,17.88712515035411
5.281352529486905,7.182940933847167,5.027458256062704,-3.530252406267745,-7.6953448278837655,29.72553713501116
5.353181938825377,7.105987485568329,4.992155732000026,-3.2329970349176333,-11.983597971512092,38.466643138622295
5.42424181368106,6.986151505853209,4.95982576165085,-2.8483306035314104,-14.020960860951755,43.89781731296009
5.494103328739592,6.845941897243691,4.931342455615536,-2.4093524304018095,-14.343366471008363,46.702032766393195
5.562562747712029,6.702508232533607,4.907248931311519,-1.9423321027378775,-13.632135972282505,47.799678846269245
5.629587830037365,6.566186872810782,4.88782561028414,-1.4643353142751852,-12.441973770132407,47.95063949547432
5.695249698765473,6.441767135109458,4.873182257141388,-0.9848289193204419,-11.139110516160466,47.65442620291175
5.759667370116567,6.330376029947853,4.863333967948184,-0.5082846572913244,-9.937180872795128,47.193348770062855
5.822971130416046,6.231004221219902,4.858251121375271,-0.0363511695906959,-8.950599989190959,46.70481400839317
5.885281172628245,6.141498221327993,4.857887609679364,0.4306969704932358,-8.236218906969238,46.23988288708138
5.946696154841525,6.0591360322583006,4.862194579384296,0.8930957993640496,-7.819670341962568,45.80178841444101
6.007287515164108,5.980939328838675,4.871125537377936,1.3511136835084598,-7.710256735496185,45.3691519831894
6.067096908452495,5.903836761483713,4.884636674213021,1.8048052033403539,-7.908644811118002,44.90955642448727
6.126135276067332,5.824750313372532,4.902684726246425,2.2539007675852267,-8.410407149643193,44.387561101569396
6.184382779201058,5.7406462418761,4.925223733922277,2.6977763786009206,-9.207299526885347,43.76966131695226
6.241789241619819,5.648573246607247,4.952201497708286,3.135472991770443,-10.287392653733225,43.027595343601945
6.298274974085891,5.545699320069915,4.98355622762599,3.5657489452064626,-11.634721065123426,42.14072820986884
6.35373196728659,5.429352109418681,5.019213717078054,3.987156227305151,-13.228854583201516,41.09785090608022
6.408025488380777,5.297063563586666,5.059085279351106,4.398134736365953,-15.044651535902345,39.898517704182176
6.460996124016644,5.146617048227642,5.1030666267147655,4.797119913407775,-17.052362964554998,38.553934591763074
6.512462294498921,4.976093418582092,5.151037825848843,5.182659259325406,-19.218192000995163,37.087368880238046
6.562223228684742,4.783911498572141,5.202864418442097,5.553532948127787,-21.505355872040113,35.53405082961055
6.610062343670463,4.56885793985174,5.258399747923375,5.908873456423892,-23.875642267167414,33.940567862761654
6.655750923068981,4.330101517180066,5.317488482487613,6.248279135051509,-26.29139555829426,32.36379902679593
6.699051938240781,4.067187561597123,5.3799712738381285,6.571917125319468,-28.71781348513602,30.869490319064685
6.739723813856752,3.780009426745763,5.445690445091323,6.880612028510114,-31.125384393511734,29.53061694796124
6.77752390812421,3.4687555828106458,5.514496565376424,7.175918197989727,-33.492249816077745,28.425699437922933
6.812211463952316,3.1338330846498685,5.586255747356321,7.460175192368957,-35.80623100033896,27.637213025382295
6.843549794798815,2.775770774646479,5.660857499280011,7.73654732262278,-38.066190002411645,27.25011743282732
6.871307502545279,2.3951088746223625,5.738222972506239,8.009048496951053,-40.28225744636529,27.350272868015736
6.895258591291503,1.9922863001587097,5.818313457475749,8.28255122563121,-42.474150406494516,28.0219753763676
6.91518145429309,1.5675447960937645,5.90113896973206,8.562770979394886,-44.66613258568749,29.34279699888051
6.930856902254027,1.1208834702368895,5.986766679526009,8.85619894938369,-46.87577667970278,31.371877539312628
6.942065736956397,0.6521257034398618,6.075328669019846,9.169917724776816,-49.09095214917136,34.12391793207308
6.948586993990795,0.16121618194814819,6.167027846267613,9.511156904097547,-51.2244842043216,37.51405903049033
6.950199155810276,-0.3510286600950678,6.262139415308589,9.88629749440245,-53.02823425849341,41.247714511193365
6.946688869209326,-0.881311002680002,6.361002390252613,10.298774639514384,-53.94157550625947,44.618789747665126
6.937875759182526,-1.4207267577425966,6.463990136647757,10.744962536991036,-52.86433439847834,46.1976521955712
6.9236684916051,-1.94937010172738,6.571439762017667,11.206939058946748,-47.95048455812752,43.5316636374179
6.904174790587826,-2.428874947308655,6.683509152607135,11.642255695320927,-36.83982659720906,33.418573814201906
6.879886041114739,-2.7972732132807456,6.799931709560344,11.976441433462945,-18.15052174454836,13.875763575082567
6.851913308981931,-2.978778430726229,6.9196961238949735,12.115199069213771,5.770431761181298,-12.183218241500517
6.822125524674669,-2.921074113114416,7.040848114587111,11.993366886798766,28.205481896986562,-36.11975162300386
6.792914783543525,-2.6390192941445503,7.160781783455098,11.632169370568727,42.916826198773386,-50.08834109430538
6.76652459060208,-2.2098510321568163,7.277103477160786,11.131285959625673,48.990637619920236,-53.34297018507636
6.744426080280512,-1.719944655957614,7.388416336757043,10.59785625777491,49.34535395009527,-49.99484501941705
6.727226633720936,-1.2264911164566612,7.494394899334792,10.09790780758074,47.04562847328106,-44.08449788262056
6.714961722556369,-0.7560348317238506,7.5953739774106,9.657062828754533,43.9115674192237,-37.879166718224766
6.70740137423913,-0.31691915753161354,7.691944605698145,9.278271161572286,40.758174107381265,-32.30449525493862
6.704232182663814,0.09066258354219914,7.784727317313868,8.9552262090229,37.870995166968086,-27.616893765262517
6.705138808499236,0.46937253521188,7.874279579404097,8.679057271370274,35.30487475390998,-23.802940611207063
6.709832533851355,0.8224212827509798,7.9610701521178,8.441027865258203,33.027552221601525,-20.761522936223095
6.718056746678864,1.152696804966995,8.045480430770382,8.233412635895972,30.981134362889527,-18.3761589401565
6.729583714728534,1.4625081485958904,8.127814557129343,8.049651046494407,29.10642555343008,-16.539900720914822
6.744208796214493,1.7535724041301912,8.208311067594286,7.8842520392852595,27.351586050471532,-15.161466171822278
6.761744520255795,2.0270882646349064,8.287153587987138,7.732637377567037,25.67448085454993,-14.16461052812165
6.782015402902144,2.2838330731804057,8.36447996176281,7.59099127228582,24.04263312131819,-13.48552083194271
6.804853733633948,2.5242594043935878,8.440389874485668,7.456136063966393,22.43236265920382,-13.07003398250013
6.830096327677884,2.748583030985626,8.51495123512533,7.325435724141392,20.827713860023042,-12.871283270039124
6.85758215798774,2.9568601695858563,8.588205592366744,7.196722891441,19.21937921758135,-12.847913223529371
6.887150759683599,3.1490539617616697,8.660172821281154,7.068243759205707,17.60367090594111,-12.962830899681432
6.918641299301216,3.325090670821081,8.730855258873211,6.938615450208893,15.98154181084092,-13.182405315982102
6.951892206009426,3.48490608892949,8.8002414133753,6.806791397049071,14.357648029237321,-13.476014271860524
6.986741266898721,3.6284825692218634,8.868309327345791,6.6720312543304665,12.739450590588799,-13.815841634755618
7.02302609259094,3.7558770751277515,8.935029639889096,6.53387283798291,11.136363222451976,-14.176838148928573
7.060584863342218,3.867240707352271,9.000368368268926,6.392104456493625,9.558960234194593,-14.536771503248051
7.09925727041574,3.9628303096942172,9.064289412833862,6.246736741461144,8.018262084145212,-14.876305539207488
7.138885573512682,4.043012930535669,9.126756780248472,6.09797368606907,6.5251156830964305,-15.179063337126276
7.179315702818038,4.108264087366633,9.187736517109164,5.946183052697807,5.089682668996947,-15.431643660560907
7.220398343691705,4.159160914056603,9.247198347636141,5.791866616092197,3.7210429334822472,-15.623573940011406
7.261989952832271,4.196371343391426,9.305117013797064,5.635630876692083,2.4269138833358435,-15.747194769471239
7.303953666266185,4.220640482224784,9.361473322563985,5.478158928997371,1.2134794351177072,-15.797480139595034
7.346160071088433,4.232775276575961,9.416254911853958,5.32018412760142,0.08531742211035552,-15.771804047512173
7.3884878238541924,4.233628450797065,9.469456753129972,5.162466087126298,-0.9545895796442864,-15.6696677714105
7.430824108362163,4.2240825550006225,9.521081414001236,5.005769409412194,-1.904776899955298,-15.492403337755292
7.47306493391217,4.205034786001069,9.571139108095357,4.850845376034641,-2.7651710748877596,-15.242868084450722
7.5151152817721805,4.177383075252192,9.619647561855704,4.698416695190134,-3.536929973548468,-14.92514334321821
7.556889112524702,4.142013775516707,9.666631728807605,4.549165261757952,-4.222264042087488,-14.544247701909045
7.598309250279869,4.099791135095832,9.712123381425185,4.403722784738862,-4.824250586847303,-14.105872532998317
7.6393071616308275,4.051548629227359,9.756160609272573,4.262664059408879,-5.346650498401026,-13.616144826749627
7.679822647923101,3.998082124243348,9.798787249866661,4.126502611141382,-5.79373439363394,-13.081420053871366
7.719803469165534,3.940144780307009,9.840052275978076,3.9956884106026687,-6.170122981693481,-12.508105899552982
7.759204916968604,3.8784435504900743,9.880009160084102,3.8706073516071386,-6.480644622108879,-11.902516273976632
7.797989352473505,3.8136371042689854,9.918715233600173,3.7515821888673724,-6.7302115618739835,-11.270753977903686
7.8361257235161945,3.7463349886502457,9.956231055488846,3.6388746490883355,-6.9237151962738395,-10.618619723919608
7.873589073402697,3.677097836687507,9.99261980197973,3.5326884518491393,-7.065939857378984,-9.95154481491577
