th1 (rad),w1 (rad/s),th2 (rad),w2 (rad/s)
2.476955746719179,-1.0899235269776946,2.4249928945307677,1.6545065522771203
2.4660565114494024,-1.148409367100629,2.4415379600535387,1.6491616511521707
2.454572417778396,-1.208806510821889,2.4580295765650604,1.646726537909828
2.4424843526701774,-1.2710793345939373,2.4744968419441586,1.6470556345164025
2.429773559324238,-1.3351592717793233,2.490967398289323,1.6499523343017743
2.416421966606445,-1.4009438807069174,2.5074669216323406,1.6551665826545385
2.4024125277993758,-1.4682969553820202,2.524018587458886,1.6623938815364903
2.3877295582455558,-1.5370499436098097,2.540642526274251,1.6712761062460697
2.3723590588094576,-1.6070048945896256,2.5573552873367116,1.6814044654505835
2.3562890098635614,-1.6779390731084813,2.5741693319912176,1.6923248178437456
2.3395096191324765,-1.7496112499869667,2.591092580169655,1.703545379954323
2.3220135066326066,-1.8217695167733925,2.6081280339691983,1.7145466309993151
2.3037958114648727,-1.894160295034889,2.6252735002791914,1.7247929675938052
2.2848542085145236,-1.9665380435721111,2.6425214299551296,1.7337454210523204
2.2651888280788026,-2.0386750410645913,2.659858884165653,1.7408745662811398
2.2448020776681568,-2.1103705646380218,2.6772676298284646,1.7456726633325748
2.2236983720217767,-2.1814588136435913,2.69472435646179,1.7476641053845674
2.2018837838853407,-2.251815043246885,2.712200997515636,1.7464134021992803
2.1793656334528717,-2.32135955709342,2.729665131537629,1.741530182833964
2.1561520378819377,-2.390059430988588,2.747080433365969,1.7326710121510978
2.1322514435720517,-2.45792806239223,2.76440714348748,1.7195381297327696
2.107672162948129,-2.5250228286106404,2.7816025247848075,1.7018754880083664
2.082421934662023,-2.591441265454602,2.798621279664891,1.679462654149655
2.056507522007477,-2.657316237871958,2.8154159062063875,1.6521072331140039
2.0299343596287573,-2.722810568702794,2.8319369785375277,1.6196364722848855
2.0027062539417293,-2.7881115354409576,2.8481333432603764,1.5818886409726693
1.9748251385873197,-2.853425556732623,2.863952229670103,1.5387046670417235
1.9462908830199934,-2.918973289159774,2.8793392763405206,1.4899203845557283
1.9171011501283957,-2.9849852559085126,2.8942384801860777,1.4353596221715919
1.8872512975693105,-3.0516980423235127,2.9085920764077935,1.374828256584964
1.8567343171460755,-3.1193510240920412,2.922340358973643,1.3081092760704975
1.825540806905155,-3.188183542762704,2.935421451734348,1.2349588477640339
1.793658971477528,-3.25843240864179,2.9477710402119883,1.15510335664025
1.76107464739111,-3.3303295895892093,2.9593220737783907,1.0682373799206668
1.727771351495218,-3.404099932273338,2.9700044475775975,0.9740225729869594
1.6937303521724847,-3.47995875679938,2.9797446733074673,0.8720874670368792
1.6589307646044908,-3.5581091637850264,2.988465547977836,0.7620282105625475
1.6233496729666406,-3.6387388932921763,2.9960858300834614,0.6434103227793055
1.5869622840337188,-3.7220165768159963,3.0025199333112544,0.5157715644380234
1.5497421182655589,-3.808087226930461,3.0076776489556347,0.37862606733011844
1.5116612459962542,-3.8970668151375296,3.0114639096289357,0.23146989552395894
1.472690577844879,-3.989035798630065,3.0137786085841753,0.07378823591796504
1.4328002198585783,-4.084031473352736,3.014516490943355,-0.09493557051755458
1.3919599051250509,-4.18203905673805,3.0135671352381794,-0.275208946651487
1.3501395145576705,-4.282981441942678,3.0108150457716647,-0.46751675718847796
1.3073097001382437,-4.386707619495644,3.00613987819978,-0.6723056039342936
1.2634426239432872,-4.492979834811085,2.999416822160437,-0.8899656721238185
1.2185128255951763,-4.6014596428985515,2.990517165439199,-1.1208101729048086
1.1724982291661907,-4.711693135073843,2.9793090637101507,-1.3650525754264526
1.1253812978154523,-4.823095744375543,2.965658537955886,-1.6227820064780136
1.0771503403716969,-4.934937181445834,2.9494307178911057,-1.893937410680218
1.0278009685572385,-5.0463272019882295,2.9304913437843036,-2.17828129848532
0.9773376965373561,-5.156203048232283,2.9087085307994505,-2.47537414510864
0.9257756660550334,-5.263319525170352,2.883954789348364,-2.7845507179584654
0.8731424708033299,-5.3662427519612885,2.8561092821687795,-3.10489977704283
0.8194800432837169,-5.4633486560279305,2.825060284398351,-3.4352486871593775
0.7648465567234376,-5.552827243275163,2.7907077975267573,-3.774154483901163
0.709318284290686,-5.6326935815056824,2.7529662526877456,-4.119902841344437
0.6529913484756291,-5.700806283167283,2.7117672242743014,-4.470516207720992
0.5959832856439563,-5.75489408235782,2.6670620621970915,-4.823772132931324
0.5384343448203781,-5.792590884856766,2.6188243408677785,-5.177232545983569
0.4805084359718104,-5.811479436203586,2.567052015407943,-5.528284488233761
0.42239364160977455,-5.809143490817579,2.5117691705256053,-5.874192589631816
0.36430220670159874,-5.783228038742439,2.453027244629287,-6.212163376777773
0.30646992631417436,-5.731506694545368,2.3909056108615094,-6.539421267226313
0.24915485936872067,-5.651954701326287,2.325511398189246,-6.853295739194816
0.1926353123554578,-5.542825092059839,2.256978440797298,-7.1513185596515685
0.13720706143485942,-5.402724373630737,2.185465255200782,-7.431329025080065
0.08317981769855204,-5.23068274218088,2.1111519649499813,-7.691583920257087
0.030872990276743235,-5.026212507861142,2.03423612574741,-7.930867467991184
-0.019389134801868185,-4.789347422011155,1.9549274510674983,-8.148595221135798
-0.06728260902197974,-4.520655337126758,1.8734414988561403,-8.344905060628694
-0.11248916239324733,-4.221217419116385,1.7899924482498535,-8.520728672157183
-0.15470133658441118,-3.8925691211613627,1.7047851615282816,-8.677838441608786
-0.1936270277960248,-3.536601172534027,1.6180067771121938,-8.818867751304602
-0.22899303952136507,-3.1554224521201233,1.5298180995991477,-8.947306949376559
-0.2605472640425663,-2.751190063952581,1.4403450301053822,-9.067482245895135
-0.2880591646820921,-2.3259144041803195,1.3496702076464309,-9.184529696253598
-0.31131830872389527,-1.8812479013009729,1.2578249106838948,-9.304380477999803
-0.330130787736905,-1.4182653035298227,1.1647811059038968,-9.433776171170921
-0.34431344077220327,-0.9372415245188959,1.0704433441921877,-9.580333029907873
-0.3536858560173922,-0.4374319704250707,0.974640013893109,-9.752670975064193
-0.35806017572164295,0.08313604737360952,0.877113304142467,-9.96061263821958
-0.35722881524790684,0.6278350046387207,0.7775071777602712,-10.215430339725259
-0.3509504652015196,1.2014953021399455,0.6753528743630186,-10.530048646337253
-0.3389355121801202,1.8101412761008038,0.5700523878996461,-10.918933069059838
-0.3208340994191122,2.4598737703693847,0.4608630572090477,-11.396959460723192
-0.2962353617154183,3.153622830052102,0.34689346260181575,-11.97553722900498
-0.26469913341489726,3.88297576571532,0.22713809031176596,-12.652142690985915
-0.22586937575774407,4.610234330329597,0.10061666340190681,-13.386468455763222
-0.1797670324544481,5.238147886964012,-0.03324802115572542,-14.059222351292883
-0.127385553584808,5.590662410750409,-0.17384024466865425,-14.444760556092753
-0.0714789294773039,5.4874605458999755,-0.3182878502295818,-14.310204934989962
-0.016604324018304147,4.933161859644234,-0.4613898995794814,-13.668467549827056
0.032727294578138194,4.1446380295441045,-0.598074575077752,-12.808326345302234
0.07417367487357923,3.3282562950463745,-0.7261578385307743,-11.99255950571209
0.10745623782404298,2.570960158651656,-0.8460834335878953,-11.320564974974713
0.13316583941055954,1.886419973164481,-0.9592890833376424,-10.797080171810514
0.15203003914220437,1.2642998105560235,-1.0672598850557475,-10.39888123790546
0.1646730372477646,0.6904590077887761,-1.1712486974348022,-10.100457115890727
0.17157762732565238,0.15269611641717373,-1.2722532685937096,-9.880390711634016
0.1731045884898241,-0.3582588366713271,-1.3710571757100498,-9.721794896317586
0.16952200012311083,-0.8490074678390701,-1.4682751246732257,-9.611390927844933
0.16103192544472014,-1.3239593360615798,-1.564389033951675,-9.538511883030553
0.14779233208410433,-1.7857576547630496,-1.6597741527819805,-9.494315538301551
0.12993475553647382,-2.2356160572801893,-1.754717308164996,-9.471224246995313
0.10757859496367193,-2.6735855805949975,-1.8494295506349492,-9.46255239681377
0.08084273915772196,-3.098779682526191,-1.944055074603087,-9.46227946207195
0.049854942332460045,-3.509580337534496,-2.0386778692238066,-9.464934310650843
0.014759138957115087,-3.9038402494611155,-2.133327212330315,-9.465562873514665
-0.02427926353749607,-4.279087822169523,-2.2279828410654616,-9.459754664947452
-0.0670701417591913,-4.632733749185947,-2.322580387714936,-9.443704831069946
-0.11339747925105079,-4.962271691121799,-2.4170174360256356,-9.414288984043003
-0.1630201961622688,-5.265461322785394,-2.5111603258660655,-9.369129579184886
-0.21567480939012273,-5.540480722287274,-2.6048516216579145,-9.306636048937218
-0.27107961661299546,-5.786036851168581,-2.6979179821472865,-9.226006568841134
-0.32893998512468126,-6.001427272198438,-2.7901780478356977,-9.127186574221987
-0.38895425784666565,-6.1865521653203555,-2.8814499135779177,-9.010786688633845
-0.4508197794998692,-6.341881686326395,-2.971557780464256,-8.877969073718086
-0.5142385963631331,-6.468388420359406,-3.060337471201437,-8.730315184151745
-0.5789224805667271,-6.5674572553630135,-3.1476406230429546,-8.569689013069354
-0.6445970531203573,-6.640785250481375,-3.233337513173648,-8.398108410010884
-0.711004905625171,-6.690282408916385,-3.317318597273757,-8.217633777696946
-0.7779077297143349,-6.717981438120354,-3.3994949350507264,-8.03027945426625
-0.8450875440955384,-6.725961400446573,-3.479797729593389,-7.8379492955278565
-0.9123471581000042,-6.716287265256349,-3.558177222548667,-7.6423949995364975
-0.9795100307525677,-6.690965143187755,-3.6346011725440324,-7.445193811515003
-1.0464196821844451,-6.651911532030084,-3.709053110659182,-7.2477413656910565
-1.112938797504746,-6.600934164128205,-3.781530524316093,-7.051255343753578
-1.1789481391460281,-6.539721853724026,-3.8520430777536285,-6.856786080215119
-1.2443453576832684,-6.469840911531074,-3.9206109385557797,-6.665230966323344
-1.309043766798579,-6.392736057073077,-3.9872632482190133,-6.477350299876866
-1.3729711273693097,-6.309734192338547,-4.052036751217782,-6.2937829711656095
-1.4360684692926953,-6.222049822343024,-4.114974580929439,-6.115060998261217
-1.4982889675161255,-6.130791275190727,-4.176125190912051,-5.941622405063947
-1.5595968802680327,-6.036967168611241,-4.23554141496269,-5.773822277644633
-1.619966551954145,-5.9414927908868105,-4.293279637739137,-5.61194205786456
-1.6793814798630131,-5.845196219844586,-4.349399058317783,-5.456197262816344
-1.737833442061459,-5.748824106230534,-4.403961030945946,-5.306743878987642
-1.7953216831237644,-5.653047109922724,-4.457028469735823,-5.16368369288154
-1.8518521542229915,-5.558465010501208,-4.508665306664638,-5.0270688026791905
-1.9074368043280037,-5.465611527144628,-4.5589359946914305,-4.896905521735901
-1.9620929195994499,-5.3749588840449585,-4.60790504990879,-4.773157843826767
-2.0158425084398996,-5.286922151956874,-4.655636628347057,-4.655750598551201
-2.0687117299594684,-5.201863387921987,-4.7021941343325695,-4.5445723871814145
-2.120730363838688,-5.120095586118379,-4.7476398582043835,-4.439478356697123
-2.1719313196998717,-5.041886444678802,-4.792034641771354,-4.340292843695478
-2.2223501841466597,-4.967461946973967,-4.835437570208309,-4.246811900339036
-2.2720248036163992,-4.897009751551932,-4.877905689211699,-4.158805700997819
-2.3209949011319186,-4.830682382621441,-4.9194937462216775,-4.076020819944558
-2.369301724958133,-4.768600212437777,-4.960253954421123,-3.998182366437817
-2.416987727082511,-4.7108542278735905,-5.000235778085502,-3.9249959628314186
-2.4640962693612467,-4.657508575487352,-5.039485737713816,-3.8561495531056678
-2.5106713551161204,-4.608602882209898,-5.078047233244873,-3.791315032665459
-2.556757383938219,-4.56415435206967,-5.115960383571528,-3.730149694765729
-2.602398927458916,-4.524159642941155,-5.153261880519185,-3.6722974940156603
-2.6476405238883274,-4.4885965309598905,-5.1899848554593415,-3.6173901327171256
-2.692526489197926,-4.457425373888941,-5.226158756786512,-3.5650479810587377
-2.7371007429368155,-4.430590388283345,-5.2618092365971,-3.5148808472542203
-2.781406646819649,-4.408020758757698,-5.296958045069642,-3.46648861849087
-2.825486854407226,-4.389631601023735,-5.331622931254551,-3.4194617979953454
-2.8693831704174633,-4.375324803652994,-5.365817549234505,-3.3733819676092596
-2.9131364184539934,-4.364989776764036,-5.399551368910598,-3.327822208979774
-2.956786316221634,-4.358504139058697,-5.432829591000395,-3.2823475197793757
-3.000371357612221,-4.355734377845855,-5.465653066198189,-3.2365152642106154
-3.0439287013906795,-4.356536519875838,-5.498018218840295,-3.1898756993134167
-3.087494066589438,-4.360756853908747,-5.529916975833429,-3.141972620099351
-3.1311016351285255,-4.368232748854631,-5.561336702034422,-3.0923441670393172
-3.174783962617072,-4.37879361389855,-5.592260143704816,-3.04052383859629
-3.2185718987560574,-4.392262049047613,-5.622665382090778,-2.986041748906789
-3.2624945192465336,-4.40845523574118,-5.652525799579846,-2.92842616587837
-3.306579071603945,-4.427186617230454,-5.68181006123863,-2.8672053573285283
-3.35085093777625,-4.448267917005946,-5.710482114811915,-2.801909761753914
-3.3953336169463095,-4.471511540270454,-5.738501212429455,-2.7320744853132983
-3.440048732349014,-4.49673339799548,-5.765821957282588,-2.6572421071381567
-3.485016066328969,-4.523756185226444,-5.792394378353969,-2.576965750816492
-3.5302536281812333,-4.552413134945505,-5.818164035862134,-2.490812350749477
-3.5757777595306885,-4.582552256135982,-5.843072159369629,-2.398366008331813
-3.6216032820920483,-4.6140410502300115,-5.867055819452947,-2.2992312952739264
-3.6677436925943483,-4.646771684791763,-5.890048132405687,-2.1930363210879085
-3.714211409442266,-4.680666588507668,-5.911978495616566,-2.0794353405257504
-3.7610180753273426,-4.71568441925483,-5.9327728490218234,-1.9581106367410697
-3.808174919519891,-4.751826349629911,-5.952353955389234,-1.8287733795380576
-3.8556931830161902,-4.789142614694538,-5.970641689184615,-1.6911631276004244
-3.9035846091631354,-4.827739277963205,-5.987553320460619,-1.5450456208874797
-3.9518620019427675,-4.86778519705462,-6.003003776669494,-1.3902084952463272
-4.000539853913314,-4.909519213069586,-6.016905861621957,-1.2264545449143343
-4.04963504604401,-4.9532576504902694,-6.029170407071101,-1.053592157006089
-4.099167622548912,-4.999402299696407,-6.039706328641162,-0.8714225397118649
-4.149161645545877,-5.04844916423759,-6.048420554038281,-0.6797233543359121
-4.199646137188252,-5.100998391885077,-6.055217787581641,-0.47822832920770836
-4.250656121107103,-5.157765974601103,-6.060000070873718,-0.26660236724982184
-4.302233780853114,-5.219598000950283,-6.062666094546216,-0.04441154350377677
-4.354429760862617,-5.28748847882375,-6.063110209981254,0.18891279042344233
-4.4073046456508544,-5.362602019836041,-6.06122108207702,0.43411683173743704
-4.460930665849215,-5.446302988152531,-6.056879913759645,0.6921754453783276
-4.51539369573074,-5.540193050046454,-6.049958159305862,0.9643533116893995
-4.570795626231205,-5.646159362187873,-6.040314626188968,1.2522781626554542
-4.6272572198530835,-5.7664357609833194,-6.0277918445624135,1.5580282135673207
-4.684921577462917,-5.903678906600815,-6.0122115624267405,1.8842351275116813
-4.743958366528925,-6.06105956560247,-5.993369211151624,2.2342010449176732
-4.804568962184949,-6.242364204132495,-5.971027200702447,2.612020648792894
-4.866992604226274,-6.452089593181596,-5.944906994214518,3.0226808891015993
-4.93151350015809,-6.6954838584332395,-5.914680185323502,3.4720685990615188
-4.9984683387424225,-6.9784210501105495,-5.8799594993328865,3.966721152364405
-5.068252549243528,-7.306850724418417,-5.840292287809243,4.512948286860756
-5.141321056487713,-7.685261108962859,-5.795162804940635,5.114524970549924
-5.218173667577341,-8.113033828196071,-5.7440175552351365,5.767366984904538
-5.299304005859302,-8.576832711323613,-5.6863438853860915,6.448577131805435
-5.385072332972538,-9.03748009195476,-5.621858114068037,7.097730594610333
-5.475447133892085,-9.415875980182454,-5.550880808121934,7.59697505455574
-5.569605893693909,-9.601261983936435,-5.474911057576377,7.78312764422342
-5.665618513533274,-9.515720980658479,-5.397079781134143,7.539943151754307
-5.760775723339859,-9.196052825529506,-5.321680349616599,6.915572765431941
-5.852736251595154,-8.769479429990607,-5.25252462196228,6.0895867209767545
-5.9404310458950595,-8.348356682608586,-5.191628754752513,5.223655172843232
-6.023914612721145,-7.985426563558113,-5.13939220302408,4.3963898317825025
-6.1037688783567265,-7.692404342456323,-5.095428304706255,3.628203242011608
-6.18069292178129,-7.464036960424729,-5.059146272286139,2.9149510385051025
-6.255333291385537,-7.290438544347607,-5.029996761901088,2.245554608814206
-6.328237676829013,-7.16162111825023,-5.007541215812946,1.6087311465864333
-6.399853888011515,-7.068726273726155,-4.991453904347082,0.9950462897040248
-6.470541150748777,-7.00411001677861,-4.981503441450041,0.397295590349376
-6.540582250916563,-6.9611035563784505,-4.977530485546548,-0.18962616613187933
-6.610193286480348,-6.933733133608097,-4.979426747207866,-0.7689686635286649
-6.679530617816429,-6.916486217445121,-4.987116433843153,-1.3423638373194846
-6.7486954799908805,-6.904144700718999,-5.0005400722163476,-1.9100358590545832
-6.81773692699807,-6.891684459150071,-5.019640430806893,-2.470991656811952
-6.886653771589571,-6.874234332177443,-5.044350347375013,-3.0232063799489355
-6.955396114911346,-6.847085604179622,-5.074582411174502,-3.5638156215069285
-7.023866970953142,-6.80574202212087,-5.110220567389571,-4.089320739736628
-7.09192439117435,-6.745999538739316,-5.151113774786937,-4.595807738145071
-7.159384386561744,-6.6640444597351856,-5.197071852168388,-5.079175175211186
-7.226024831159096,-6.556558780107032,-5.247863603920499,-5.535363223830731
-7.291590418960166,-6.420822314761064,-5.303217236158806,-5.960574543671925
-7.355798642107777,-6.2548025872731845,-5.362822981595525,-6.351477835708129
-7.418346667980509,-6.05722498473072,-5.426337759952607,-6.705386212423307
-7.478918917827816,-5.827617078962657,-5.49339162207684,-7.020404117572497
-7.537195088617442,-5.566322129310329,-5.563595663252564,-7.295537932345456
-7.592858309910545,-5.2744777932320766,-5.636551042576019,-7.530766479930128
-7.645603087842866,-4.9539573782898065,-5.71185870737532,-7.727068678575525
-7.695142661625764,-4.607272984884492,-5.789129394161075,-7.886407113842221
-7.741215391474609,-4.237442781359692,-5.867993465299498,-8.011668737738075
-7.783589819288205,-3.8478281706802693,-5.948110152676879,-8.106567317799277
-7.822068100995008,-3.441950086523639,-6.029175825854872,-8.17551622475918
-7.856487601860244,-3.023296221032865,-6.110930988102464,-8.223483857348842
-7.886720564070573,-2.5951318697008228,-6.193165826675952,-8.255846566553675
-7.912671882767581,-2.1603259190832813,-6.275724292341489,-8.278254720306785
-7.934275141958414,-1.7212004908140133,-6.358506839544557,-8.296526376608993
-7.951487146866555,-1.2794085841916758,-6.441472103310646,-8.316580219666818
-7.964281232708472,-0.8358397390339608,-6.524637905507315,-8.34441553030318
-7.972639630098811,-0.39055041078693925,-6.6080820608103465,-8.386142451896196
-7.976545134206681,0.05728533152658044,-6.6919434853293085,-8.44806047560998
-7.9759722808914155,0.5094062877406722,-6.776424090085408,-8.536775320625368
-7.9708782180140085,0.9684672950177398,-6.861791843291662,-8.659329951574946
-7.961193545063831,1.437982842378132,-6.948385142807411,-8.823294716010913
-7.94681371664005,1.922127179801379,-7.03661808996752,-9.036694001072838
-7.927592444842037,2.425198237853277,-7.126985029978249,-9.307500893080586
-7.903340462463504,2.9503341032574992,-7.220060038909055,-9.642131445519807
-7.873837121430929,3.4966747818795536,-7.316481353364253,-10.041817002473028
