th1 (rad),w1 (rad/s),th2 (rad),w2 (rad/s),a1 (rad/s^2),a2 (rad/s^2)
4.593542752977791,0.7547977104964888,2.8965446457300215,-0.6897064150980354,9.455761690212373,-0.6221509362813311
4.601090730082755,0.8493553273986125,2.889647581579041,-0.6959279244608487,9.471491762576973,-0.40099473095229426
4.6095842833567415,0.9440702450243823,2.8826883023344325,-0.6999378717703717,9.494424849947196,-0.15251480034567455
4.619024985806985,1.0390144935238543,2.8756889236167287,-0.7014630197738284,9.525561623251031,0.1236600091555442
4.629415130742223,1.1342701097563646,2.8686742934189904,-0.700226419682273,9.56593940280899,0.4280001719656244
4.640757831839787,1.2299295037844544,2.861672029222168,-0.6959464179626167,9.616623109463415,0.7610821201232353
4.6530571268776315,1.3260957348790885,2.854712565042542,-0.6883355967613843,9.678695026945944,1.1235927857561283
4.666318084226423,1.4228826851485479,2.847829209074928,-0.677099668903823,9.753243122980248,1.5163313975368395
4.680546911077908,1.5204151163783504,2.8410582123858896,-0.6619363549284546,9.841347598586312,1.9402077861003113
4.695751062241691,1.6188285923642134,2.834438848836605,-0.6425342770674515,9.944065251416383,2.3962363482244107
4.711939348165333,1.7182692448783772,2.8280135060659304,-0.6185719135852074,10.062411152774384,2.8855247036595366
4.729122040614117,1.818893356406121,2.8218277869300783,-0.589716666548612,10.197337053789774,3.4092559551148685
4.747310974178178,1.9208667269440187,2.8159306202645924,-0.5556241069974633,10.349705860536282,3.9686633375310745
4.766519641447618,2.0243637855493817,2.810374379194618,-0.5159374736221526,10.520261459755819,4.564995928186588
4.786763279303112,2.12956640014694,2.8052150044583963,-0.4702875143402867,10.709593148522048,5.1994740008255445
4.808058943304581,2.2366623316321608,2.8005121293149933,-0.41829277433203127,10.918093938775897,5.873232568321815
4.830425566620903,2.3458432710199197,2.7963292015716728,-0.3595604486488131,11.145912091704902,6.587251701221496
4.853883999331102,2.457302391936969,2.7927335970851845,-0.2936879316365981,11.392895412551592,7.342272374975418
4.878457023250472,2.571231346062485,2.7897967177688185,-0.22026520788684395,11.658528132944207,8.138696937400953
4.904169336711097,2.687816627391927,2.7875940656899503,-0.13887823851283443,11.941860657290684,8.976473858692438
4.931047502985016,2.807235233964834,2.786205283304822,-0.04911349992591005,12.241433083892948,9.854967292460852
4.959119855324664,2.9296495648037637,2.785714148305563,0.04943617299869847,12.555194256446711,10.772813198672402
4.9884163509727015,3.055201507368231,2.78620851003555,0.1571643049854225,12.880419170350041,11.72776540486487
5.0189683660463835,3.184005699071731,2.787780153085404,0.2744419590340712,13.213628839449113,12.716537026843007
5.0508084230371,3.316141987466222,2.7905245726757446,0.40160732930250126,13.550518173651259,13.734645097612614
5.083969842911762,3.451647169202735,2.7945406459687696,0.5389537802786274,13.885898925197225,14.776268948238592
5.11848631460379,3.590506158454707,2.799930183771556,0.6867164697610133,14.213666165023444,15.834135626145168
5.154391376188337,3.7326428201049415,2.806797348469166,0.845057826022465,14.526797812157042,16.89944807962959
5.191717804389386,3.877910798226512,2.8152479267293904,1.014052306818761,14.817397153562409,17.961873507828752
5.230496912371651,4.026084769762136,2.825388449797578,1.1936710418970486,15.076787713080366,19.009609594824635
5.270757760069272,4.1768526468929394,2.8373251602165483,1.383767137845295,15.295667919185883,20.029544697590396
5.312526286538201,4.329809326084798,2.8511628315950013,1.5840625848211989,15.464329532182756,21.007523895115746
5.355824379799049,4.484452621406626,2.867003457443213,1.7941378237723564,15.572938656363382,21.92872581134219
5.400668906013116,4.640182007970259,2.8849448356809364,2.0134250818857784,15.6118715990421,22.778145377353997
5.447070726092818,4.79630072396068,2.905079086499794,2.2412065356593183,15.57209041742076,23.54116582671081
5.495033733332424,4.952021628134888,2.9274911518563873,2.4766181939264262,15.445535646386174,24.204190466089393
5.544553949613773,5.10647698459875,2.9522573337956515,2.7186600985873204,15.225507624125303,24.755292920087275
5.59561871945976,5.2587320608400026,2.9794439347815245,2.9662130277881933,14.907004296271783,25.184835701451515
5.64820604006816,5.40780210380272,3.0091060650594064,3.2180613848027084,14.486983440642453,25.48600308806157
5.702284061106187,5.552671938209145,3.0412866789074333,3.472921415683324,13.964521461386619,25.655196788307432
5.7578107804882785,5.692317152823011,3.0760158930642665,3.7294733835663987,13.340849067147962,25.692252119026957
5.814733952016509,5.825725643494491,3.1133106268999304,3.986395904756668,12.619255290105388,25.600447525359595
5.872991208451453,5.951918196395544,3.153174585947497,4.242400380010264,11.804863792413983,25.386299184641803
5.932510390415409,6.069966834319684,3.1955985897475996,4.496263371856682,10.904297308678865,25.05915232303373
5.993210058758606,6.179009807406473,3.2405612234661665,4.7468548950870195,9.925255588340823,24.63059874264307
6.055000156832671,6.2782623632898815,3.288029772417037,4.99316088251345,8.876038077412197,24.113763426280048
6.11778278046557,6.367022744064004,3.3379613812421716,5.234298516776251,7.76504436648118,23.522510500071814
6.181453007906209,6.4446731877288155,3.390304366409934,5.469523621776969,6.600283525195001,22.870620088208515
6.245899739783497,6.510676022980766,3.4449996026277034,5.698229822659054,5.388918906250814,22.17098364508731
6.311006500013304,6.564565212043274,3.501981900854294,5.919939659109927,4.136869259639665,21.434857964287232
6.376652152133738,6.60593390463967,3.561181297445393,6.1342882387527995,2.8484814967590966,20.67120934894061
6.442711491180134,6.634418719607261,3.6225241798329213,6.3410003322422055,1.5262863677035776,19.88617138374495
6.509055678376207,6.649681583284297,3.6859341831553434,6.539862046079655,0.17084640691649672,19.082633931655664
6.57555249420905,6.651390047353462,3.75133280361614,6.730688385396212,-1.219294005991094,18.25997831382242
6.642066394682584,6.639197107293551,3.8186396874701023,6.913288168534436,-2.6475440124562972,17.41397434730776
6.7084583657555195,6.612721667168988,3.8877725691554468,7.087427912007514,-4.119070648999537,16.53685853780179
6.77458558242721,6.5715309606789925,3.9586468482755217,7.252796497385532,-5.640451746447122,15.617618079355196
6.840300892034,6.5151264432145215,4.031174813249377,7.408972678179084,-7.219154448607007,14.642510497794321
6.905452156466144,6.442934898728452,4.105264540031168,7.555397783157027,-8.862817904341517,13.595851120460358
6.969881505453429,6.354306719685036,4.180818517862739,7.691356294361631,-10.57832669124021,12.461096655784026
7.033424572650279,6.248523452772634,4.257732080806355,7.8159672609194715,-12.370678868851426,11.222239115362092
7.095909807178006,6.12481666408412,4.33589175341555,7.928189652073092,-14.241681513235346,9.86549633721927
7.1571579738188476,5.982399848951767,4.41517364993628,8.026844615445285,-16.18854782426288,8.38124103984931
7.216981972308365,5.820514370709138,4.495442096090733,8.110657025843778,-18.202520985968338,6.7660503655808775
7.275187116015457,5.6384891608494545,4.576548666349171,8.178317529499587,-20.26770377904974,5.0246882390542895
7.331572007623951,5.435812123058957,4.658331841644167,8.22856441189013,-22.360316779660465,3.1717664854838032
7.3859301288545405,5.212208955262352,4.740617485763068,8.260282076744968,-24.44862435574015,1.2327873111061765
7.438052218407164,4.967722711704951,4.823220306530518,8.27260994985603,-26.49373798664078,-0.7557270885946481
7.487729445524214,4.702785331838544,4.905946406029079,8.265052678970083,-28.451417631490784,-2.747242251499549
7.5347572988425995,4.418271155523636,4.98859693281878,8.237580256455088,-30.274844758574623,-4.687437606322775
7.578940010397836,4.115522707937889,5.0709727353833305,8.19070588039186,-31.918156309446267,-6.517530354434662
7.620095237477215,3.7963411448434266,5.152879794187249,8.125530576847513,-33.34034867212128,-8.178356105737043
7.658058648925649,3.4629376581222138,5.234135099955724,8.043747015790142,-34.50903676001156,-9.614683816377518
7.692688025506871,3.117847290522098,5.314572570113626,7.947600177626367,-35.403530544437665,-10.779156197726556
7.723866498412092,2.7638119850777216,5.394048571889889,7.839808615649102,-36.01678860033925,-11.635288776582438
7.751504618262869,2.403644099074329,5.47244665804638,7.723455727883278,-36.35600692670929,-12.159125789176976
7.775541059253612,2.040084029807236,5.549681215325212,7.601864469991508,-36.44185005699904,-12.339394691016704
7.795941899551685,1.6756655292372455,5.625699860025128,7.478470523081341,-36.30656444238675,-12.176256093081724
7.812698554844057,1.312599884813378,5.700484565255941,7.356707962150524,-35.99137519122626,-11.678947480640502
7.825824553692191,0.9526861329011154,5.774051644877447,7.239918487344119,-35.54362838800481,-10.8627262244319
7.835351415021202,0.5972498490210673,5.8464508297508875,7.1312912250998,-35.01410714495284,-9.745522534482303
7.841323913511412,0.24710877757153887,5.917763742001886,7.033835999754977,-34.454849560811645,-8.344637033034417
7.843795001287128,-0.09743971803657758,5.988102101999435,6.950389629424633,-33.91766959741526,-6.673696484171261
7.842820604106762,-0.4366164140107302,6.057605998293681,6.88365266458292,-33.453461344302276,-4.739951660989645
7.838454439966655,-0.771151027453753,6.1264425249395105,6.836253147973023,-33.1122733117028,-2.5418919159273643
7.830742929692117,-1.1022737605707809,6.1948050564192405,6.81083422881375,-32.944075726068995,-0.06708081583419177
7.819720192086409,-1.4317145178314707,6.262913398707378,6.8101634206554085,-33.00009700422504,2.7098978811735277
7.805403046908094,-1.7617154878737211,6.331015032913933,6.837262399467144,-33.33454315449331,5.829427530602556
7.7877858920293574,-2.0950609194186542,6.399387656908604,6.895556674773169,-34.006372166365914,9.348608469740633
7.766835282835171,-2.4351246410823135,6.468343223656335,6.989042759470575,-35.08044644261111,13.34208170850075
7.742484036424347,-2.7859291055084245,6.538233651251041,7.122463576555583,-36.62655929808392,17.90005534342545
7.714624745369263,-3.152194698489264,6.609458287016596,7.301464129989837,-38.71294333080462,23.119011409439214
7.68310279838437,-3.53932413179731,6.6824729283164945,7.532654244084229,-41.386686417618456,29.074726087136174
7.647709557066397,-3.9531909959734945,6.757799470757337,7.823401504955591,-44.624593539424055,35.75479426403657
7.608177647106662,-4.3994369313677355,6.836033485806892,8.180949447595957,-48.22072033076384,42.90349638849034
7.564183277792985,-4.881644134675374,6.917842980282852,8.60998441148086,-51.55024151255932,49.694111435889624
7.515366836446232,-5.397146549800967,7.00394282439766,9.106925525839758,-53.140904162242705,54.13028966130997
7.461395370948222,-5.928555591423394,7.095012079656057,9.648228422452858,-50.13946254645965,52.29269223024372
7.402109815033988,-6.42995021688799,7.191494363880586,10.171155344755295,-38.47537813449051,38.54171579424596
7.337810312865108,-6.814703998232895,7.293205917328138,10.556572502697755,-15.762084756743167,9.518097937428527
7.269663272882779,-6.972324845800327,7.398771642355116,10.65175348207204,12.980319961362664,-27.93330275571911
7.199940024424776,-6.8425216461867,7.505289177175836,10.372420454514849,35.7645139613597,-57.395708576066184
7.131514807962909,-6.484876506573103,7.609013381720985,9.798463368754186,45.43215056406297,-69.1839812360151
7.066666042897178,-6.030555000932473,7.7069980154085265,9.106623556394036,44.88917829276628,-67.41909171670335
7.006360492887853,-5.5816632180048105,7.798064250972467,8.432432639227002,39.88311414419287,-59.97627506693833
6.950543860707805,-5.182832076562882,7.882388577364737,7.832669888557619,33.94486403983012,-51.60170908652201
6.8987155399421765,-4.84338343616458,7.960715276250313,7.316652797692399,28.457317237701314,-44.093472706105075
6.850281705580531,-4.558810263787567,8.033881804227237,6.875718070631348,23.77171415577162,-37.86212530084151
6.804693602942655,-4.3210931222298505,8.10263898493355,6.497096817622933,19.86704087117397,-32.83342874359055
6.761482671720357,-4.122422713518111,8.16760995310978,6.168762530187028,16.620232286100343,-28.810926799604523
6.720258444585175,-3.956220390657107,8.22929757841165,5.880653262190982,13.899754553382643,-25.59754633468016
6.680696240678604,-3.817222845123281,8.28810411103356,5.624677798844181,11.592627161491144,-23.028043532843682
6.642524012227372,-3.7012965735083694,8.344350889022001,5.394397363515744,9.60876613919655,-20.971876389158094
6.605511046492288,-3.605208912116404,8.398294862657158,5.1846785996241636,7.878583171423461,-19.32771178261787
6.569458957371124,-3.5264230804021692,8.4501416486534,4.991401481797984,6.349291531337437,-18.016586042229036
6.534194726567102,-3.4629301650887947,8.500055663471379,4.811235621375694,4.981616255087525,-16.975752277089704
6.499565424916214,-3.4131140025379194,8.548168019685136,4.6414780986047965,3.747310341500591,-16.15358371274303
6.465434284890835,-3.3756408991229137,8.594582800671184,4.479942261477366,2.627457190281633,-15.505410886724226
6.431677875899606,-3.3493663272200975,8.639382223285958,4.324888152610124,1.6114151926390243,-14.990087066177088
6.398184212627405,-3.3332521752937074,8.68263110481206,4.174987281948353,0.696223240177485,-14.56713520595035
6.364851690874468,-3.3262899428919326,8.724380977631544,4.02931592988885,-0.11374038007476445,-14.194443507461871
6.331588791445548,-3.32742734669268,8.764674136930433,3.8873714948142313,-0.8070935672936882,-13.826616607096604
6.298314517978621,-3.335498282365617,8.803547851878575,3.749105328743265,-1.366082621043883,-13.414238082284909
6.264959535154965,-3.349159108576056,8.841038905166007,3.614962947920416,-1.7678617239223713,-12.904426800115463
6.2314679440692045,-3.3668377258152797,8.877188534645212,3.4859186799192616,-1.9867725671454963,-12.243118023146906
6.197799566811051,-3.3867054514867347,8.912047721444404,3.3634874996877926,-1.9978753812683854,-11.379387863425835
6.163932512296184,-3.4066842052994186,8.945682596441282,3.249693621053534,-1.781720778124127,-10.271783750853514
6.1298656702431895,-3.4245014130806597,8.978179532651817,3.146975783544999,-1.3299142518626152,-8.89599849049281
6.095620656112383,-3.437800555599286,9.009649290487268,3.0580157986400707,-0.6504893532834735,-7.252440934282559
6.06124265055639,-3.4443054491321208,9.040229448473669,2.9854913892972452,0.2283291614227025,-5.371603963491996
6.026799596065069,-3.4420221575178935,9.070084362366641,2.9317753496623253,1.2574485135521227,-3.3150219679081014
5.99237937448989,-3.429447672382372,9.099402115863265,2.898625129983244,2.3702651207358243,-1.1703670171014005
5.958084897766066,-3.4057450211750138,9.128388367163097,2.88692145981223,3.489927770633474,0.959185801473251
5.924027447554316,-3.370845743468679,9.15725758176122,2.8965133178269626,4.539120620113386,2.969318778116598
5.89031899011963,-3.3254545372675453,9.18622271493949,2.926206505608129,5.450090559501125,4.769307625748694
5.857064444746954,-3.270953631672534,9.21548477999557,2.9738995818656155,6.172551148549392,6.293622048499223
5.824354908430229,-3.20922812018704,9.245223775814226,3.0368358023506077,6.6778410847163405,7.507980397510785
5.792262627228359,-3.1424497093398767,9.275592133837732,3.1119156063257156,6.958933933173345,8.409269238643859
5.76083813013496,-3.072860370008143,9.306711289900989,3.196008298712154,7.027049297025827,9.020466732300019
5.7301095264348785,-3.002589877037885,9.33867137288811,3.2862129660351544,6.906293011489808,9.382717865722906
5.700083627664499,-2.9335269469229868,9.371533502548461,3.3800401446923836,6.627839863817667,9.546823869086158
5.67074835819527,-2.86724854828481,9.405333903995384,3.475508383383245,6.224815819577949,9.565856896408679
5.642075872712422,-2.8050003900890306,9.440088987829217,3.571166952347332,5.728500189488732,9.489795965524403
5.614025868811531,-2.7477153881941434,9.475800657352691,3.666064912002576,5.1659784181224335,9.362345536338001
5.58654871492959,-2.696055604012919,9.512461306472717,3.759688367365956,4.559051470932837,9.21961980539822
5.5595881588894605,-2.650465089303591,9.550058190146377,3.851884565419938,3.9240625747924205,9.090170750148499
5.533083507996425,-2.6112244635556667,9.588577035800576,3.942786272921423,3.2722908134941773,8.995833275861376
5.506971263360868,-2.578501555420725,9.62800489852979,4.032744605680037,2.610622922472036,8.952962497866029
5.481186247806661,-2.5523953261960046,9.66833234458659,4.1222742306586975,1.942300104005895,8.97377138133918
5.455662294544701,-2.5329723251559457,9.709555086893177,4.212011944472089,1.2676161311004368,9.067597760563554
5.430332571293142,-2.5202961638449413,9.751675206337898,4.302687922077725,0.584503956368454,9.242020417294434
5.405129609654693,-2.5144511242812566,9.794702085558676,4.395108126250669,-0.11101104421446578,9.503802781175786
5.37998509841188,-2.515561234723401,9.838653166821182,4.490146154062427,-0.8244884567025619,9.859675539989054
5.354829486064646,-2.523806119290427,9.883554628361805,4.588742909462318,-1.5628644600735377,10.316983152478072
5.329591424871742,-2.5394347638911623,9.929442057456429,4.691912740987099,-2.3343333715837127,10.884219658094182
5.30419707723283,-2.5627780976069996,9.976361184866299,4.8007549375680405,-3.1482877193275534,11.571469305624255
5.2785692962567605,-2.594260974800275,10.02436873424198,4.916469630624283,-4.01527442545794,12.390747071131422
5.252626686508758,-2.634413719054854,10.073533430548222,5.040377101335597,-4.946903609383374,13.356198593283207
5.226282549318209,-2.683882755148688,10.123937201561578,5.173939087268429,-5.955606224164623,14.48405787413344
5.199443721766722,-2.7434388173903343,10.175676592434263,5.318779666009763,-7.054061894041738,15.792154094587893
5.172009333592819,-2.8139794363307518,10.22886438909436,5.476701206955642,-8.253982608516527,17.29856988935203
5.143869539229511,-2.896519262415917,10.283631401163916,5.649686905849163,-9.563696865410716,19.018720247841465
5.1149043466053525,-2.992156231070024,10.340128270222408,5.839874108327577,-10.983561421934349,20.959543517791605
5.0849827842946524,-3.1019918452893673,10.398527011305683,6.049469543505493,-12.497535260772503,23.108532110903344
5.053962865841759,-3.226967197897092,10.459021706740739,6.280554864614527,-14.058195150360838,25.413848321157285
5.021693193862788,-3.3675491494007006,10.521827255386883,6.5346933478261,-15.561161663856115,27.749897276739656
4.988017702368781,-3.5231607660392616,10.587174188865145,6.812192320593497,-16.804249943147443,29.86168949102092
4.952786094708388,-3.691203265470736,10.65529611207108,7.110809215503706,-17.429980059099567,31.285670281833436
4.915874062053681,-3.8655030660617316,10.726404204226116,7.42366591832204,-16.866105247227452,31.266497694505585
4.8772190313930635,-4.034164118534006,10.800640863409336,7.736330895267097,-14.322690633632018,28.74962453317848
4.836877390207723,-4.177391024870326,10.878004172362008,8.02382714059888,-8.977867052068556,22.631414814518482
4.79510347995902,-4.267169695391011,10.958242443767997,8.250141288744066,-0.49882226494276116,12.46905001809877
4.75243178300511,-4.272157918040439,11.040743856655437,8.374831788925054,10.247290837941788,-0.5507218044693125
4.709710203824706,-4.169685009661022,11.124492174544688,8.36932457088036,21.055587537447206,-13.436235416169097
4.668013353728096,-3.95912913428655,11.208185420253491,8.23496221671867,29.49966994426513,-22.93557073538792
4.628422062385231,-3.6641324348438986,11.290535042420677,8.00560650936479,34.430350848630226,-27.57770856946836
4.591780738036792,-3.319828926357596,11.370591107514326,7.729829423670107,36.26138041835345,-28.020703049815666
4.558582448773215,-2.9572151221740617,11.447889401751027,7.44962239317195,36.11404366284419,-25.848287702653067
4.5290102975514746,-2.5960746855456196,11.522385625682746,7.1911395161454195,35.01239006486737,-22.470533465008423
