th1 (rad),w1 (rad/s),th2 (rad),w2 (rad/s),a1 (rad/s^2),a2 (rad/s^2)
4.447836849922433,-2.275760906562869,2.4793124018399015,2.1057047864185026,7.754431021755355,1.7521257490673487
4.425079240856804,-2.1982165963453153,2.5003694497040865,2.123226043909176,7.504247601319774,1.271307996599752
4.403097074893351,-2.1231741203321177,2.521601710143178,2.1359391238751737,7.289428125795657,0.8265148344522858
4.38186533369003,-2.050279839074161,2.5429611013819295,2.144204272219697,7.107698411908261,0.41392663926897716
4.361362535299288,-1.9792028549550784,2.5644031441041264,2.1483435386123864,6.956829908278692,0.0299116379867312
4.341570506749737,-1.9096345558722916,2.5858865794902504,2.1486426549922535,6.834680077347227,-0.3289103024130953
4.322474161191014,-1.8412877550988194,2.6073730060401727,2.1453535519681224,6.739213997443297,-0.6656305949086967
4.304061283640026,-1.7738956151243863,2.628826541559854,2.1386972460190354,6.668512549255939,-0.9830333697566059
4.286322327488782,-1.707210489631827,2.6502135140200442,2.1288669123214694,6.6207712798108,-1.2835893726672911
4.269250222592464,-1.641002776833719,2.671502183143259,2.1160310185947964,6.594293030801138,-1.5694579551901138
4.252840194824127,-1.5750598465257075,2.692662493329207,2.1003364390428954,6.587476642637279,-1.8424940950221804
4.237089596358869,-1.5091850800993347,2.713665857719636,2.0819114980926736,6.598803461049668,-2.104258378544763
4.221997745557876,-1.443197045488838,2.734484972700563,2.060868914307226,6.626822940466834,-2.3560286241626263
4.207565775102988,-1.3769288160841697,2.755093661843635,2.0373086280656,6.670138322471171,-2.598812376384213
4.193796486942146,-1.310227432859458,2.775466748124291,2.0113205043017577,6.727393138077057,-2.8333598996053673
4.180694212613552,-1.2429535014786874,2.7955799531673087,1.982986905305704,6.797259113984808,-3.060177579786653
4.168264677598764,-1.1749809103388393,2.815409822220366,1.9523851295078376,6.878425934528878,-3.2795418257221622
4.156514868495376,-1.1061966509935506,2.8349336735154442,1.919589711250616,6.969593206079965,-3.4915136668685784
4.14545290198544,-1.0365007189327509,2.8541295706279506,1.8846745745819302,7.069464876268545,-3.69595428454049
4.135087894796112,-0.9658060701700654,2.87297631637377,1.8477150317365254,7.176746267208611,-3.8925416976371863
4.125429834094412,-0.8940386074979793,2.891453466691135,1.8087896147601534,7.29014378400489,-4.0807887617073595
4.116489448019432,-0.8211371696579304,2.9095413628387363,1.7679817271430798,7.408367254731954,-4.260062540031164
4.108278076322852,-0.7470534971106109,2.927221180110167,1.725381101742768,7.530134746633419,-4.42960497766752
4.100807541351746,-0.6717521496442767,2.9444749911275947,1.681085051966093,7.654179589487625,-4.5885546660188705
4.094090019855304,-0.5952103537494005,2.9612858416472556,1.6351995053059043,7.779259227579691,-4.735969340145001
4.08813791631781,-0.5174177614736035,2.9776378367003145,1.5878398119044543,7.9041654250771005,-4.870848618788124
4.082963738703074,-0.4383761072228325,2.993516234819359,1.539131325716573,8.027735275242321,-4.992156392960066
4.078579977630846,-0.3580987544704093,3.008907548076525,1.4892097617869724,8.148862420786875,-5.098842206694339
4.074998990086142,-0.27661013026254055,3.0237996456943947,1.438221339720029,8.266507887869215,-5.189860963752452
4.072232888783517,-0.1939450513838484,3.038181859091595,1.3863227300825045,8.379709973686143,-5.264190342483845
4.070293438269678,-0.11014795164698697,3.05204508639242,1.333680826657666,8.487592707066431,-5.320845407436428
4.069191958753208,-0.02527202457632266,3.0653818946589966,1.2804723725833018,8.589372518070288,-5.358890063879852
4.068939238507445,0.06062170060438023,3.0781866183848297,1.2268834719445032,8.684362896980481,-5.377445197044406
4.069545455513489,0.14746532957418504,3.0904554531042745,1.173109019974059,8.771976982246995,-5.3756935534434005
4.071020108809231,0.235185099396655,3.102186543304015,1.119352084439625,8.851728175680261,-5.352881635917898
4.073371959803198,0.3237023811534576,3.1133800641484113,1.065823268080446,8.923229025769858,-5.308319075221548
4.076608983614732,0.4129346714111562,3.124038296829216,1.0127400773282305,8.986188732134963,-5.241376089297047
4.080738330328844,0.5027965587325058,3.1341656976024983,0.96032631643526,9.04040969460078,-5.151479731544146
4.0857662959161685,0.5932006556785137,3.143768960766851,0.9088115191198185,9.085783552457974,-5.038109652203212
4.091698302472953,0.6840584912030934,3.152857075958049,0.8584304225977863,9.122287131440988,-4.9007940505311005
4.098538887384985,0.7752813625175032,3.161441380184027,0.8094224820924754,9.149978641417125,-4.739106385089493
4.10629170101016,0.8667811489316745,3.1695356050049517,0.7620314182415804,9.168994354989646,-4.552663247167648
4.1149595124994764,0.9584710924815709,3.1771559191873675,0.716504785769904,9.179545858198212,-4.341123605323192
4.124544223424292,1.0502665510635532,3.1843209670450667,0.673093549716672,9.181917813675247,-4.104189417844636
4.1350468889349274,1.1420857292003057,3.1910519025422333,0.6320516555382256,9.176466029326686,-3.841607406524438
4.14646774622693,1.2338503894935726,3.1973724190976154,0.5936355814729812,9.163615496570097,-3.5531716105606503
4.158806250121866,1.3254865444592736,3.2033087749123452,0.5581038653673748,9.143857964047347,-3.2387262119166587
4.172061115566458,1.4169251240997471,3.208889813566019,0.5257166032482082,9.11774855491801,-2.8981680567272976
4.186230366807456,1.5081026096489272,3.2141469795985014,0.4967349226809353,9.085900923525829,-2.5314482991234017
4.2013113929039445,1.5989616188841855,3.219114328825311,0.47142043968970126,9.048980480901202,-2.1385726652754697
4.217301009092786,1.6894514236931975,3.223828533222208,0.4500347130369466,9.00769529396117,-1.719599970867302
4.234195523329718,1.7795283766328092,3.2283288803525774,0.43283871332827356,8.96278437186237,-1.2746387127317043
4.251990807096046,1.869156220351433,3.2326572674858602,0.4200923262009565,8.91500318290533,-0.8038417781899266
4.270682369299561,1.9583062521804862,3.2368581907478697,0.4120539084190572,8.865106382888793,-0.3073995537888056
4.290265431821365,2.046957316009374,3.2409787298320603,0.40897991288116914,8.813827866762125,0.21446805225887783
4.310735004981459,2.1350955946769954,3.245068528960872,0.4111245934037579,8.761858367079626,0.7615199521110839
4.332085960928229,2.2227141783477915,3.2491797748949094,0.41873979292486874,8.709820905255956,1.3335016967852817
4.354313102711707,2.309812387400351,3.253367172824158,0.43207480989272157,8.658244449100874,1.9301517695604153
4.377411226585711,2.3963948318913597,3.257687920923085,0.45137632758832574,8.607536141338887,2.55120529774768
4.401375174904624,2.4824701933047484,3.2622016841989683,0.4768883805658025,8.557952442210992,3.196394130136165
4.426199876837671,2.568049717726858,3.266970568004626,0.5088523218671641,8.50956948236358,3.8654422858746265
4.45188037401494,2.653145412550494,3.272059091223298,0.5475067447259103,8.462252860809961,4.558055886231614
4.478411828140445,2.7377679411585936,3.277534158670557,0.5930873035882265,8.41562705958354,5.273906824876637
4.505789507552031,2.8219242117544288,3.2834650317064393,0.6458263718369929,8.369044595359878,6.012609606852211
4.534008749669575,2.9056146577080275,3.2899232954248094,0.705952467905515,8.321555002040679,6.77369098518586
4.563064896246655,2.988830207728434,3.2969828201038647,0.7736893777573737,8.271873749043055,7.556552244327761
4.59295319832394,3.0715489452188645,3.3047197138814384,0.8492549002006513,8.21835125787524,8.360424222361965
4.623668687776129,3.153732457797617,3.313212262883445,0.9328591424242709,8.158942292182502,9.184315434125265
4.655206012354105,3.2353218807194417,3.3225408543076878,1.0247022967655235,8.091176168801297,10.026953963060318
4.687559231161299,3.3162336424074548,3.332787877275343,1.1249718363961267,8.012128471467513,10.886724140904992
4.7207215675853735,3.39635492712213,3.3440375956393043,1.2338390778051767,7.918395243318138,11.761599441588453
4.754685116856595,3.475538879555311,3.356375986417356,1.3514550722210612,7.806070983892218,12.649073487663554
4.789440505652148,3.553599589394233,3.369890537139567,1.4779458070976967,7.6707321709073035,13.546091608899383
4.82497650154609,3.630306911103306,3.384669995210544,1.6134067231866906,7.507428450786084,14.448986001355097
4.861279570657123,3.705381195611167,3.4008040624424107,1.7578965832002416,7.3106840718415995,15.353418200269598
4.8983333826132345,3.7784880363295827,3.418383028274413,1.9114307652029376,7.074512539056483,16.254333278768407
4.93611826297653,3.8492331617201474,3.4374973359264422,2.0739740979906216,6.792447809080648,17.145930880447544
4.974610594593732,3.917157639810954,3.4582370769063484,2.245433406795097,6.457595568124453,18.021658836207653
5.013782170991841,3.9817335954921984,3.4806914109742992,2.4256499951571735,6.062708183862339,18.874235638098526
5.053599506946763,4.042360677330822,3.5049479109258708,2.6143923515381586,5.600286726901705,19.695708365497733
5.0940231137200715,4.098363544599839,3.5310918344412525,2.811349435193136,5.062712943681482,20.477552691229622
5.13500674916607,4.148990674036654,3.5592053287931837,3.0161249621054322,4.442413155271274,21.210821241415776
5.176496655906437,4.1934148055893665,3.589366578414238,3.22823317451959,3.7320546846006963,21.886345749100386
5.21843080396233,4.2307353524353735,3.6216489101594336,3.447096632010594,2.924773520285007,22.49499704561639
5.260738157486684,4.259983087638224,3.6561198764795395,3.6720466024667577,2.014429474027277,23.02800491580557
5.303337988363066,4.280127382378496,3.692840342504207,3.9023266516248136,0.9958820826255039,23.477337180710673
5.346139262186851,4.290086203204751,3.731863609020455,4.137100023431921,-0.13472300104073612,23.83613409387938
5.389040124218899,4.288738973194344,3.773234609254774,4.3754613643707145,-1.3796712671550733,24.099190345685482
5.431927513950842,4.274942260522794,3.8169892228984814,4.61645326782757,-2.739418445252244,24.26347285686389
5.47467693655607,4.247548076070271,3.863153755576757,4.859087996396209,-4.212373519437282,24.32865841449605
5.5171524173167725,4.205424340875898,3.9117446355407193,5.102374580541169,-5.794751054515847,24.297671500182748
5.559206660725532,4.147476830330739,3.962768381346131,5.345351295542996,-7.48052041252048,24.177199959677537
5.600681429028839,4.072671626205534,4.0162218943015615,5.587123295139771,-9.261479892232417,23.978165166048235
5.641408145290894,3.98005682728321,4.072093127252959,5.826904946800254,-11.127481924006169,23.716124797488533
5.681208713563726,3.8687820080431483,4.130362176720961,6.0640661947751395,-13.066830670673625,23.411590994926257
5.719896533644158,3.7381137013364123,4.191002838668712,6.298182104724402,-15.066865398238297,23.090254949091385
5.757277670657522,3.5874450473540294,4.2539846597159565,6.529084654215316,-17.114731747302624,22.7831208447764
5.793152121131062,3.416297729881003,4.319275506258109,6.75691586266308,-19.198328767955086,22.526566641098768
5.827315098429872,3.224314442201452,4.38684466488474,6.982181529074068,-21.307402459502075,22.362364100702347
5.859558242851886,3.011240417606431,4.456666480175481,7.205805170081091,-23.434736014703514,22.33770136829717
5.88967064702795,2.776893057459396,4.528724531876292,7.429182183764063,-25.57736020306203,22.505250258173945
5.917439577602544,2.5211194554287757,4.603016353713932,7.654234686345802,-27.73766646826949,22.923292812692843
5.942650772156832,2.2437427907460807,4.67955870057739,7.883467614472731,-29.924232088192838,23.655840599593894
5.965088200064293,1.9445004698641524,4.758393376722117,8.12002602046867,-32.15202226579308,24.772492910723162
5.9845332047629345,1.6229802472062216,4.839593636926804,8.367750949575901,-34.44133891785691,26.34738101276509
6.000763007234997,1.2785668580276526,4.923271146422564,8.631224759703553,-36.81428187895262,28.45572219465694
6.013548675815273,0.9104240392381264,5.009583394019599,8.915781981650122,-39.286266904698856,31.16483677180767
6.0226529162076545,0.5175613701911379,5.0987412138361,9.227430349368198,-41.8477343631931,34.51316090566908
6.0278285299095655,0.0990840265592069,5.191015517329783,9.57256195842489,-44.42664485256465,38.464462330746436
6.028819370175158,-0.3451824219664396,5.286741136914031,9.957206581732354,-46.81467657145699,42.813549703090096
6.025367545955493,-0.8133291876810096,5.386313202731355,10.385342078763255,-48.53044588625815,47.0055117498391
6.017234254078684,-1.298633646543591,5.490166623518987,10.855397196261647,-48.59488837603206,49.830408614575035
6.004247917613248,-1.7845825303039116,5.598720595481604,11.353701282407398,-45.261423224905926,49.04299338538457
5.986402092310209,-2.237196762552971,5.712257608305678,11.844131216261244,-36.00956504485057,41.31589576907429
5.96403012468468,-2.5972924130014765,5.83069892046829,12.257290173951988,-18.62892214444286,23.64495215772123
5.938057200554665,-2.783581634445905,5.95327182220781,12.4937396955292,5.947870976866746,-2.8902463138543006
5.910221384210206,-2.7241029246772377,6.078209219163102,12.464837232390657,31.495979562030882,-30.298626680635625
5.882980354963434,-2.409143129056929,6.2028575914870085,12.161850965584302,50.17186708953648,-48.665543790084456
5.858888923672865,-1.907424458161564,6.324476101142851,11.675195527683456,59.16176825245396,-54.902404054675515
5.8398146790912495,-1.3158067756370244,6.4412280564196855,11.126171487136702,61.00113915319201,-52.819670647784214
5.826656611334879,-0.7057953841051043,6.552489771291053,10.59797478065886,59.274434532685284,-47.272163285942014
5.819598657493828,-0.11305103877825151,6.6584695190976415,10.12525314779944,56.28747159487378,-41.21866734791408
5.818468147106046,0.4498236771704863,6.759722050575636,9.713066474320298,53.095329769344,-35.92005696160395
5.822966383877751,0.9807769748639263,6.856852715318839,9.353865904704259,50.06491236207712,-31.752553697299906
5.83277415362639,1.4814260984846976,6.950391374365881,9.03634036773126,47.2621992964007,-28.729892170879452
5.847588414611238,1.9540480914487046,7.040754778043194,8.749041446022465,44.641766504834,-26.743659184986655
5.867128895525725,2.4004657564970446,7.128245192503419,8.481604854172598,42.128137266850764,-25.65735345555363
5.891133553090695,2.8217471291655523,7.213061241045145,8.225031319617061,39.64834321570617,-25.337790494246196
5.91935102438235,3.218230561322614,7.295311554241316,7.971653414674599,37.144070604485705,-25.662357891963637
5.951533329995576,3.589671267367471,7.375028088388062,7.715029835754963,34.57551166638711,-26.51810694242139
5.987430042669251,3.935426384031342,7.4521783867456115,7.449848766330749,31.921811193323446,-27.798977804048963
6.0267843065095645,4.254644495964577,7.526676874408919,7.17185898829026,29.17998603306732,-29.403494270430336
6.06933075146921,4.54644435629525,7.598395464291821,6.877824045585957,26.363002200851895,-31.23366105645952
6.114795195032163,4.810074378303769,7.667173704747681,6.565487435021361,23.49726629625607,-33.19513573722512
6.1628959388152005,5.045047041266329,7.732828579097895,6.23353607764911,20.619673985832478,-35.19846451078106
6.213346409227864,5.251243781124654,7.795163939874386,5.8815514325413,17.774362531548075,-37.16104883218792
6.265858847039111,5.428987406440135,7.853979454199799,5.50994094421942,15.00934894486546,-39.00946819581888
6.320148721103512,5.57908089588879,7.9090788636419935,5.119846262261231,12.373261182385887,-40.681792764042065
6.3759395300624,5.702813507712649,7.960277326264606,4.713028334620811,9.912371830990743,-42.12956427746163
6.432967665139526,5.801937226022556,8.007407609610814,4.291732691846194,7.668119777743916,-43.31919487624673
6.490987037399751,5.878618423799995,8.050324936529275,3.8585407430837266,5.675259911604838,-44.23262173809607
6.549773221637751,5.935371022916044,8.088910343960112,3.416214525702766,3.960721318355047,-44.86715126949053
6.6091269318669115,5.974978236099594,8.12307248921714,2.9675430130078606,2.5431887291358852,-45.234520213539355
6.668876714227907,6.000410123390953,8.152747919347219,2.515197810872467,1.4333577244832014,-45.359282476314654
6.7288808154618165,6.014743700635785,8.177899897455942,2.0616049861093204,0.6347577759895286,-45.27668991561113
6.789028252468174,6.02109127839568,8.198515947317036,1.608838086953209,0.1449930219285908,-45.0302640840098
6.849239165252131,6.022541208614966,8.214604328186567,1.158535446113111,-0.042780093013598704,-44.669247382932056
6.909464577338281,6.02211340768483,8.226189682647698,0.7118429722837905,0.06165999335825008,-44.246071855684704
6.96968571141513,6.022730007618413,8.233308112370535,0.2693822537269434,0.44692572172509554,-43.813887798878774
7.029913011491313,6.027199264835664,8.236001934907804,-0.16875662426184435,1.1008991509728174,-43.42404413679446
7.09018500413967,6.038208256345392,8.234314368665187,-0.6029970656297889,2.010820900310032,-43.12318817616135
7.1505670867031235,6.058316465348493,8.228284398008888,-1.0342289473914024,3.162076642992776,-42.94931295066844
7.211150251356608,6.08993723177842,8.217942108534974,-1.4637220768980868,4.534850940962953,-42.92555466901971
7.272049623674393,6.13528574118805,8.203304887765993,-1.8929776235882838,6.0972757529931485,-43.04973138029054
7.3334024810862735,6.196258498717982,8.18437511153011,-2.323474937391189,7.792874656085317,-43.27643971495653
7.395365066073453,6.274187245278835,8.161140362156198,-2.7562393345407545,9.519100935783896,-43.48714587707727
7.4581069385262415,6.369378254636674,8.13357796881079,-3.1911107933115272,11.093328091766587,-43.443170113361646
7.5218007210726086,6.48031153555434,8.101666860877675,-3.6255424944451438,12.205332581342365,-42.720383433143496
7.586603836428152,6.6023648613677635,8.065411435933223,-4.052746328776578,12.36764499642904,-40.6420124298436
7.65262748504183,6.726041311332054,8.024883972645457,-4.459166453075015,10.908428414989253,-36.27301157542491
7.71988789815515,6.835125595481946,7.980292308114707,-4.821896568829263,7.108514037221357,-28.619573486778865
7.78823915410997,6.90621073585416,7.932073342426414,-5.1080923036970525,0.6052822024680165,-17.205814225144824
7.857301261468511,6.912263557878839,7.880992419389444,-5.280150445948501,-8.009748101009032,-2.920768005425164
7.9264238970473,6.832166076868749,7.828190914929959,-5.309358126002753,-16.956573880665314,11.656082243912445
7.994745557815988,6.662600338062096,7.775097333669931,-5.192797303563628,-24.04480494483678,23.3696102280856
8.061371561196609,6.422152288613728,7.723169360634295,-4.959101201282772,-28.000562943317632,30.382563721715947
8.125593084082746,6.142146659180552,7.673578348621468,-4.6552755640656125,-28.9705713424015,32.89796862043519
8.187014550674553,5.852440945756538,7.627025592980812,-4.326295877861261,-27.913558276113466,32.294753998800736
8.245538960132118,5.573305362995403,7.583762634202199,-4.003348337873254,-25.821998083715954,30.014671106645757
8.301272013762071,5.3150853821582436,7.5437291508234665,-3.703201626806796,-23.379356633993716,27.065359903081323
8.354422867583654,5.0812918158183065,7.506697134555399,-3.432548027775983,-20.95986402570485,24.012889346944792
8.405235785741837,4.871693175561258,7.472371654277639,-3.192419134306535,-18.73273481349158,21.12668314789326
8.45395271749745,4.684365827426342,7.440447462934574,-2.9811523028276024,-16.754732566268615,18.510539003691076
8.500796375771712,4.516818501763656,7.410635939906298,-2.7960469127906915,-15.02823335403586,16.185814118836795
8.545964560789349,4.3665361682232975,7.382675470778391,-2.6341887716023233,-13.532593669314142,14.137000781399685
8.589629922471582,4.231210231530156,7.356333583062368,-2.4928187637883266,-12.23965986495261,12.334714842477144
8.631942024786884,4.10881363288063,7.331405395424485,-2.369471615363555,-11.120863951949833,10.746559497438035
8.67303016111569,3.997604993361132,7.3077106792708495,-2.2620060203891748,-10.150128519838416,9.341857160002249
8.713006211049303,3.8961037081627476,7.285090619066958,-2.168587448789152,-9.304784161711872,8.093408503449593
