th1 (rad),w1 (rad/s),th2 (rad),w2 (rad/s)
1.6310479783588734,-0.559587967188176,0.7142716262187317,-0.8595238274799603
1.6254520986869916,-0.6601870295461438,0.7056763879439322,-0.8600325771232815
1.6188502283915303,-0.7613504162473294,0.6970760621726994,-0.8588184799606998
1.611236724229057,-0.8631526684743677,0.6884878773730924,-0.8555843555712578
1.6026051975443134,-0.9656670414162336,0.6799320338173798,-0.8500299216832529
1.5929485271301511,-1.0689662503085267,0.6714317346005473,-0.8418514708216677
1.5822588646270659,-1.173123316873547,0.6630132198923306,-0.8307415874556409
1.5705276314583305,-1.2782125265746294,0.6547058040177742,-0.8163889099124276
1.5577455061925842,-1.3843105052009996,0.64654191491865,-0.7984779428811883
1.5439024011405742,-1.4914974202305218,0.6385571354898381,-0.7766889292957114
1.528987426938269,-1.5998583077359043,0.630790246196881,-0.7506977954174663
1.51298884386091,-1.7094845186691592,0.6232832682427063,-0.7201761909991425
1.4958939986742184,-1.8204752682680996,0.6160815063327149,-0.6847916588758453
1.4776892459915374,-1.9329392577739253,0.6092335897439564,-0.6442079871789552
1.458359853413798,-2.04699631676793,0.6027915098721668,-0.5980858253967165
1.4378898902461188,-2.1627789845716214,0.5968106516181996,-0.5460836866730314
1.4162621004004026,-2.280433906533081,0.5913498147514693,-0.4878595186048721
1.3934577613350718,-2.4001228603114795,0.5864712195654206,-0.4230731111366413
1.369456532731957,-2.5220231410146736,0.5822404884540542,-0.3513897336927425
1.3442363013218102,-2.646326911971728,0.5787265911171268,-0.2724855690478189
1.3177730322020929,-2.7732389562208724,0.5760017354266486,-0.18605575800925872
1.290040642639884,-2.9029720245836685,0.5741411778465559,-0.0918262115311737
1.2610109223940473,-3.0357386477954162,0.5732229157312442,0.010429185172825761
1.230653535916093,-3.1717378394224545,0.5733272075829724,0.12086372824831042
1.1989361575218684,-3.3111345456013077,0.5745358448654555,0.23952236214749684
1.1658248120658554,-3.454029001426413,0.5769310684869304,0.36629144634301625
1.1312845220515912,-3.6004123931721144,0.5805939829503606,0.5008287818571336
1.0952803981198702,-3.750104583969977,0.5856022707689319,0.6424680410459476
1.0577793522801704,-3.902669557206616,0.5920269511793914,0.7900917572882381
1.0187526567081042,-4.057305490192963,0.5999278687522738,0.9419690724588449
0.9781796018061746,-4.212710407206461,0.6093475594768623,1.0955605515302524
0.9360524977341099,-4.366933233731961,0.6203031649921648,1.2473054971321824
0.8923831653967903,-4.517235964316112,0.6327762199634865,1.3924304116681894
0.8472108057536292,-4.660016003973319,0.6467005240801684,1.5248510801607877
0.800610645713896,-4.79086324870912,0.6619490348817763,1.6372774076483332
0.7527020132268047,-4.904837856770166,0.6783218089582596,1.7216460806377272
0.7036536346591031,-4.997023959643682,0.6955382697646368,1.7699610211988042
0.6536833950626663,-5.063317488228895,0.7132378799766249,1.7754804921634357
0.6030502201803773,-5.101258938420604,0.7309926848982593,1.7339755971297932
0.5520376307961713,-5.11061015822989,0.7483324408695572,1.6446211931377341
0.5009315292138724,-5.093413503672527,0.7647786528009345,1.5101335253986408
0.4499973941771471,-5.053487654919568,0.7798799880549209,1.3360783183317448
0.39946251762795143,-4.995573319921784,0.7932407712382383,1.1296487884881867
0.34950678442873356,-4.924459796811107,0.8045372591231202,0.8983897831387847
0.3002621864606225,-4.844345653371307,0.8135211569545081,0.6492398927935337
0.25181872992690946,-4.758516137638916,0.8200135558824434,0.3880212053437205
0.2042335685505203,-4.669284391681892,0.8238937679358806,0.11930978981613011
0.1575407246337014,-4.5780923580045805,0.825086865834042,-0.15345776013467766
0.11175980105365559,-4.485678305682126,0.8235522882326952,-0.4277744619990092
0.06690301799683432,-4.392251436567276,0.8192745436127051,-0.7018367019633254
0.02298050363116156,-4.297644788537161,0.8122561765930719,-0.9743452428219994
-0.01999594425421005,-4.2014375590855195,0.802512724164852,-1.2443484311091757
-0.06201031984506525,-4.103048091704829,0.7900692398537602,-1.5111275037789083
-0.10304080076211354,-4.001802616227624,0.7749579648159711,-1.774117750237397
-0.1430588269243898,-3.8969854320512627,0.7572167873135972,-2.0328578588360613
-0.1820286812449024,-3.7878754596107744,0.7368882087252366,-2.286960403433149
-0.21990743584101013,-3.673772944042545,0.7140186046909052,-2.536097697498062
-0.2566451652814356,-3.554019009773787,0.6886576277159245,-2.7799985281811175
-0.29218535537917345,-3.428009886627625,0.6608576424341134,-3.0184523551167888
-0.3264654542454497,-3.2952069807675213,0.6306731188829455,-3.2513183787082136
-0.35941752405312494,-3.1551435239141052,0.5981599350958634,-3.4785374813338743
-0.390968959292266,-3.007428267250697,0.5633745602825246,-3.7001454700873153
-0.42104324196477294,-2.8517465614633024,0.5263731055816515,-3.9162863426373917
-0.44956070757940597,-2.6878591594482293,0.4872102421552776,-4.127224484524206
-0.4764392991738883,-2.5155991820874086,0.4459379973100355,-4.333354793750995
-0.5015952909947624,-2.334867901184191,0.4026044493725256,-4.535209702721953
-0.5249439700066043,-2.145630333384296,0.35725235234530606,-4.733461889552437
-0.5464002733404473,-1.9479121408399165,0.3099177334497817,-4.928921071236754
-0.5658793947488464,-1.7418000614331564,0.26062852273741416,-5.122522541762933
-0.5832973953631779,-1.5274491410075015,0.20940329731978483,-5.31530390116745
-0.5985718867732529,-1.305101548917396,0.15625025830811032,-5.508364501801285
-0.6116229022624269,-1.0751238924245363,0.10116661329009746,-5.702799253696876
-0.6223741411866722,-0.8380728484893428,0.0441386207531287,-5.899594337773231
-0.6307548696715657,-0.5948025664004446,-0.014857322624603611,-6.099467053899862
-0.6367028953355701,-0.3466310527348213,-0.07585199316360224,-6.302626210760334
-0.6401692058629184,-0.09558460319853745,-0.13887825527120556,-6.508425784745735
-0.6411250518949038,0.1552657272066375,-0.20396251311866292,-6.714889766554044
-0.6395723946228374,0.40138387221957345,-0.27111141078420337,-6.918114163566378
-0.6355585559006417,0.6363290432085159,-0.34029255241986717,-7.111626112025995
-0.6291952654685565,0.8514675724653729,-0.41140881354012715,-7.285923988320471
-0.6206805897439028,1.0361546423462205,-0.48426805342333185,-7.428624598977574
-0.6103190433204406,1.1787987412339305,-0.5585542994131076,-7.525778627773231
-0.5985310559081013,1.269046919032148,-0.6338120856908399,-7.564688747826859
-0.5858405867177798,1.300685286162247,-0.7094589731691086,-7.537701717458863
-0.5728337338561573,1.2739798226804382,-0.7848359903436972,-7.445274521277283
-0.560093935629353,1.195983605954585,-0.85928873555647,-7.296351889016489
-0.5481340995698071,1.0784523993192596,-0.932252254446635,-7.1056029852063665
-0.5373495755766144,0.9345875679430304,-1.0033082842986987,-6.889172712414415
-0.5280036998971841,0.7762975329398141,-1.0722000114228427,-6.661194653654869
-0.5202407245677859,0.6128307253557317,-1.1388119579593914,-6.432152664978764
-0.5141124173142286,0.4506160070093604,-1.203133484609179,-6.208819895418255
-0.509606257244135,0.29373917282145756,-1.2652216835633616,-5.994989925277295
-0.5066688655159204,0.14458390354510883,-1.3251715828161346,-5.7923755660763465
-0.5052230264804694,0.00439874800385337,-1.383095338476898,-5.601373704586149
-0.5051790390004308,-0.12628005470267703,-1.4391090755227596,-5.42161858539335
-0.5064418395474576,-0.24734114585519298,-1.4933252613766932,-5.252346402024918
-0.5089152510060095,-0.358913574194194,-1.5458487253969424,-5.092620860328512
-0.5125043867479515,-0.46125314127495465,-1.5967749340002275,-4.941465656713153
-0.517116918160701,-0.5546747974275492,-1.6461895905673591,-4.7979380459054175
-0.5226636661349765,-0.6395139469647404,-1.6941689710264134,-4.66116651053285
-0.5290588056046239,-0.7161054445510939,-1.740780636131742,-4.530367207468665
-0.5362198600501349,-0.784773170937587,-1.7860843082064286,-4.404848243847489
-0.5440675917595108,-0.8458257667844951,-1.8301327906449034,-4.28400724201152
-0.5525258494273557,-0.8995558134914792,-1.8729728630650186,-4.167325425507066
-0.5615214075622705,-0.9462408190173042,-1.9146461173200893,-4.0543601047619315
-0.5709838157524436,-0.9861450288325624,-1.9551897183677085,-3.9447366300753606
-0.5808452660407692,-1.0195214901269218,-1.994637084668462,-3.838140399605005
-0.5910404809420384,-1.0466140478156953,-2.033018488664512,-3.7343092298120197
-0.6015066214201954,-1.0676591039329175,-2.0703615809626323,-3.6330262350105755
-0.6121832124595246,-1.0828870648392728,-2.106691843312738,-3.5341132725880424
-0.6230120831079173,-1.0925234562178991,-2.1420329760386183,-3.437424961796041
-0.6339373176700963,-1.096789718194647,-2.1764072256565785,-3.3428432591921333
-0.6449052148520428,-1.095903710825349,-2.2098356582484997,-3.250272562380653
-0.6558642519602963,-1.090079969060243,-2.242338383872306,-3.1596353094986127
-0.6667650516508987,-1.0795297495170342,-2.273934736967292,-3.070868041348663
-0.6775603491460691,-1.0644609111145948,-2.304643417380779,-2.983917894181909
-0.6882049582572151,-1.0450776692138308,-2.334482596322598,-2.8987394927935903
-0.6986557349493534,-1.0215802592756371,-2.363469991250534,-2.8152922152750097
-0.7088715375421097,-0.9941645417700942,-2.391622913403284,-2.733537802239971
-0.7188131829598107,-0.9630215755535209,-2.4189582914256835,-2.6534382845599667
-0.7284433987153459,-0.9283371824397251,-2.445492674271283,-2.574954204633047
-0.7377267705397431,-0.8902915214104403,-2.4712422163176133,-2.498043107047088
-0.7466296857538475,-0.8490586869575684,-2.4962226473880844,-2.4226582752573553
-0.7551202726234232,-0.8048063425015886,-2.520449230140658,-2.348747691651717
-0.763168336048439,-0.7576953967278788,-2.543936707057175,-2.2762531991809216
-0.7707452900157178,-0.7078797280417553,-2.566699239048984,-2.205109843625694
-0.7778240872961354,-0.65550596016046,-2.5887503374852407,-2.1352453765807713
-0.78437914689774,-0.6007132901183639,-2.6101027912510486,-2.066579900368427
-0.7903862797989236,-0.5436333686321438,-2.630768590254733,-1.9990256373498279
-0.7958226134852451,-0.4843902318204274,-2.6507588466282312,-1.932486807473217
-0.8006665158034494,-0.42310028265789873,-2.6700837147029635,-1.8668595993698565
-0.8048975186300283,-0.3598723202256317,-2.688752310696662,-1.8020322218656908
-0.8084962418322846,-0.2948076147557401,-2.706772632915319,-1.737885024401652
-0.8114443179798421,-0.22800002661866886,-2.7241514831593356,-1.6742906765317433
-0.8137243182460288,-0.15953616772695156,-2.740894389924653,-1.611114398380056
-0.8153196799232982,-0.08949560429389253,-2.7570055339084534,-1.5482142356717419
-0.8162146359662371,-0.017951100455974575,-2.772487676265171,-1.4854413746962727
-0.8163941469707968,0.05503109708700335,-2.7873420900121335,-1.4226404943026183
-0.8158438359999268,0.12939093256859807,-2.8015684949551596,-1.3596501537541692
-0.8145499266742409,0.2050741712330024,-2.8151649964927015,-1.2963032169744992
-0.8124991849619109,0.2820319837327641,-2.8281280286624466,-1.2324273153796885
-0.8096788651245832,0.3602204819155942,-2.8404523018162435,-1.1678453531019675
-0.8060766603054272,0.43960020245744297,-2.8521307553472632,-1.1023760599412111
-0.8016806582808528,0.5201355342760364,-2.8631545159466754,-1.0358345988073854
-0.7964793029380924,0.6017940852561221,-2.873512861934749,-0.9680332357027565
-0.7904613620855312,0.6845459835698846,-2.883193194291777,-0.8987820813927044
-0.7836159022498324,0.7683631088225871,-2.8921810151057037,-0.8278899147732338
-0.7759322711616065,0.8532182484380089,-2.900459914253436,-0.7551650984956763
-0.7674000886772264,0.9390841751682291,-2.908011565238393,-0.680416597577482
-0.7580092469255442,1.0259326424183064,-2.914815731214168,-0.6034551114250428
-0.7477499205013611,1.1137332952701804,-2.920850282328418,-0.5240943288247001
-0.7366125875486593,1.2024524967216832,-2.9260912256166653,-0.44215231392150833
-0.7245880625814425,1.2920520707700982,-2.9305127487558806,-0.35745302890314307
-0.7116675418737415,1.3824879665981047,-2.934087279044912,-0.2698279959487162
-0.6978426622077605,1.473708851277961,-2.936785559004399,-0.17911809691865732
-0.6831055736949808,1.5656546420859287,-2.938576739973586,-0.08517550421373683
-0.6674490272741215,1.658254993666562,-2.939428495015723,0.012134269772711662
-0.6508664773374558,1.7514277598144643,-2.939307152317996,0.11293022407323536
-0.6333521997393112,1.8450774544051842,-2.9381778500772637,0.2173136485187751
-0.6149014251952594,1.9390937408030544,-2.936004713592076,0.32536586625195607
-0.5955104877872288,2.0333499836348756,-2.9327510549295566,0.43714598280020683
-0.57517698795088,2.1277019008165072,-2.9283795951015543,0.552688693022961
-0.553899968942715,2.2219863567752385,-2.922852708171325,0.6720022042332068
-0.5316801053749626,2.316020339511604,-2.916132686128993,0.7950663392113254
-0.5085199019798465,2.40960016407212,-2.9081820227368795,0.9218308859667625
-0.48442390033912536,2.5025009427738305,-2.8989637138772117,1.0522142612477643
-0.4593988909113871,2.594476357825643,-2.888441571264734,1.1861025513047458
-0.43345412733313066,2.685258764652834,-2.8765805457516866,1.3233489857789185
-0.4066015396866023,2.774559644252823,-2.8633470558938976,1.463773888547273
-0.37885594324407407,2.8620704105200128,-2.848709317008425,1.607165132955875
-0.35023523913887394,2.9474635641573443,-2.832637665678866,1.7532791085466273
-0.3207606034973005,3.030394169287555,-2.8151048745933998,1.9018421829825076
-0.290456661804425,3.110501613177734,-2.7960864527635745,2.052552617682413
-0.2593516456726476,3.187411594782316,-2.7755609265867505,2.205082870350276
-0.22747752972482446,3.260738275396193,-2.7535100978832476,2.35908219407458
-0.19487014697086252,3.330086515913072,-2.729919275942502,2.5141794230887453
-0.1615692818117318,3.3950541212297094,-2.7047774817116146,2.669985821712371
-0.1276187405994347,3.455234014236829,-2.6780776234944907,2.826097867336622
-0.0930664004570664,3.510216270286927,-2.6498166448211244,2.9820998421027074
-0.05796423775419714,3.559589958320511,-2.6199956464000973,3.1375661221571853
-0.022368338170992028,3.602944756799246,-2.5886199851785254,3.292063078422508
0.01366110939700043,3.6398723405822144,-2.5556993543943003,3.445150538360537
0.05005983280282258,3.66996756773895,-2.521247849010695,3.5963828031602905
0.08675950848021208,3.692829531377764,-2.485284020979092,3.745309267344317
0.12368780379398972,3.708062578754234,-2.4478309283056485,3.891474745437765
0.16076842958153206,3.7152774356071854,-2.408916180851271,4.03441966985511
0.19792120393760393,3.7140926047666825,-2.36857198415272,4.173680381614988
0.23506212998527076,3.7041362310498576,-2.32683518033657,4.308789786299254
0.27210349229576936,3.685048635367322,-2.2837472824735774,4.439278686600292
0.3089539786494426,3.65648571561652,-2.2393544956075746,4.564678124112376
0.34551883580560777,3.618123386186103,-2.1937077143664507,4.684523060736907
0.3817000696674688,3.5696631780935566,-2.1468624837590817,4.7983576984429455
0.41739670144840435,3.51083904547702,-2.0988789067746523,4.905742670394703
0.45250509190317456,3.441425320983661,-2.049821480070705,5.006264233878738
0.48691934511301116,3.3612456352175086,-1.9997588377319178,5.0995454565370375
0.5205318014651863,3.270182470470903,-1.9487633831665474,5.18525921716555
0.5532336261698954,3.16818686764874,-1.896910790994892,5.263142651355609
0.5849154948463827,3.0552876632530657,-1.8442793644813358,5.333012477084402
0.6154683714789134,2.931599519616872,-1.7909492397104918,5.394780457889488
0.6447843666750821,2.7973289466369864,-1.737001435131597,5.448468126782018
0.672757656141452,2.6527775155125246,-1.6825167538637769,5.494219827940126
0.6992854312965773,2.4983415471268007,-1.6275745555843757,5.5323131565764605
0.7242688467678453,2.334507722868217,-1.5722514240186112,5.563166002351382
0.7476139239965275,2.1618443048196494,-1.5166197639950973,5.587339627649776
0.769232367044724,1.9809879434557738,-1.4607463677185997,5.605537523553617
0.7890422464792817,1.7926263614915006,-1.4046909924830635,5.618600154179925
0.8069685100941967,1.5974774932052342,-1.3485049909412643,5.627496085104919
0.822943285026249,1.3962658903055003,-1.2922300300902152,5.633310351357078
0.8369059439293041,1.1896973458509037,-1.2358969265766444,5.637231216654587
0.8488029173878131,0.9784327167775295,-1.1795246144100986,5.640536681136598
0.8585872445555884,0.7630618383928854,-1.1231192475987326,5.6445821987254305
0.8662178629395173,0.5440782309627867,-1.0666734256114783,5.650791073837347
0.8716586452491452,0.3218550213582015,-1.0101655148731048,5.660648942269933
0.8748771954627271,0.09662217067365547,-0.9535590254504055,5.675703635237499
0.8758434171694637,-0.1315552575476579,-0.8968019890980305,5.697571615349301
0.8745278645939871,-0.3627984058497903,-0.8398262729445375,5.727952092278303
0.8708998805354892,-0.5974364475669995,-0.7825467520217545,5.768649896096633
0.8649255160598192,-0.8360301316833022,-0.7248602530607882,5.8216082080932186
0.8565652147429861,-1.0793984166285435,-0.666644170979856,5.88895228337362
0.8457712305767007,-1.3286495416620236,-0.6077546481461198,5.973045233959274
0.8324847351600805,-1.585217494926924,-0.5480241958065271,6.07655651702573
0.8166325602108112,-1.8509036796606262,-0.48725863063626973,6.202542434374479
0.7981235234142049,-2.127920807148766,-0.4252332062925249,6.354534523480581
0.7768443153427173,-2.418929878917558,-0.3616878610577191,6.5366237517551005
0.7526550165535417,-2.7270478712665462,-0.2963216235401681,6.753510805237999
0.7253845378408763,-3.0557758638017027,-0.2287865154877881,7.010455006111272
0.6948267792028593,-3.408739957044143,-0.1586819654266754,7.312975654398524
0.6607393796324179,-3.7890231088754773,-0.08555220888269016,7.666001413681926
0.6228491485436631,-4.197654247661804,-0.008892194745870899,8.071867618754576
0.580872606067045,-4.630490312208699,0.07182648144167486,8.526094761393978
0.534567702944958,-5.072453115726933,0.15708742905561462,9.009481744166688
0.4838431717876887,-5.488828757006184,0.24718224649728152,9.476046318219636
0.42895488421762684,-5.817810461603331,0.3419427096794779,9.842515845364888
0.3707767796015935,-5.978867089368519,0.4403678681331268,9.999515799350819
0.31098810870790833,-5.914200160918908,0.540363026126635,9.868374165252101
0.25184610709871924,-5.640368530800285,0.639046767779156,9.471770159485603
0.1954424217907164,-5.24190537399506,0.7337644693740121,8.92422710245863
0.1430233680507658,-4.8083207552258305,0.8230067403985983,8.345460181508724
0.09494016049850748,-4.393447565070118,0.9064613422136856,7.805635144710156
0.0510056848478063,-4.018083714560281,0.9845176936607871,7.330071214987383
0.010824847702203488,-3.685374352361299,1.057818405810661,6.920709933978645
-0.026028895821409506,-3.3915408574074823,1.1270255051504474,6.5707455879006496
-0.05994430439548433,-3.130955404043049,1.192732961029454,6.2713849171111065
-0.09125385843591483,-2.8981043652873026,1.255446810200565,6.0143640175516735
-0.12023490208878786,-2.68819941720699,1.3155904503760816,5.7926605643428655
-0.14711689626085775,-2.497269759818616,1.3735170560195102,5.600535926455978
-0.1720895938590439,-2.3220804870854677,1.42952241528407,5.433367443564298
-0.19531039872989858,-2.160009530086399,1.483856089719713,5.2874423341735115
-0.21691049403076257,-2.008929746189508,1.5367305130614481,5.159770274096094
-0.23699979149265765,-1.8671096011163095,1.588328215802409,5.047928706904284
-0.2556708875038207,-1.7331338295740684,1.638807502871452,4.94994001467721
-0.2730022257995614,-1.605841593417533,1.688306903018224,4.864175389300705
-0.28906064173373675,-1.4842788537483105,1.7369486569112311,4.789279783909172
-0.30390343027121985,-1.3676619187997512,1.7848414547503229,4.724113074176427
-0.31758004945921736,-1.2553496506929454,1.832082585492087,4.667703554945334
-0.3301335459661468,-1.146822332761309,1.8787596210415403,4.619210815323655
-0.3416017692937599,-1.0416656294958633,1.9249517291947769,4.577895792944606
