th1 (rad),w1 (rad/s),th2 (rad),w2 (rad/s),a1 (rad/s^2),a2 (rad/s^2)
1.8286765336858222,-1.445940427368309,3.5915219940334477,-2.5968389012033355,-6.065750580904109,1.051958538965689
1.814217129412139,-1.50659793317735,3.5655536050214143,-2.586319315813679,-6.158736507518859,0.6926506543977072
1.7991511500803654,-1.5681852982525386,3.5396904118632775,-2.579392809269702,-6.239638989917612,0.3212046066700839
1.78346929709784,-1.6305816881517148,3.5138964837705804,-2.576180763203001,-6.308035630892558,-0.06280735708230678
1.767163480216323,-1.6936620444606403,3.4881346761385505,-2.576808836773824,-6.36344500212038,-0.4597027973380638
1.7502268597717165,-1.757296494481844,3.4623665877708123,-2.5814058647472047,-6.405321347240026,-0.8696829252956373
1.7326538948268981,-1.8213497079542444,3.43655252912334,-2.5901026940001612,-6.433048773224371,-1.292826285401032
1.7144403977473557,-1.8856801956864881,3.4106515021833386,-2.6030309568541714,-6.4459350260453325,-1.729082303660045
1.6955835957904908,-1.9501395459469415,3.3846211926147967,-2.6203217798907716,-6.4432049834921346,-2.1782647540712117
1.6760822003310214,-2.014571595781863,3.358417974815889,-2.6421044274314838,-6.423994036622063,-2.6400452277872
1.6559364843732027,-2.0788115361480837,3.331996930541574,-2.6685048797093556,-6.3873415716473545,-3.113946729295336
1.635148369011722,-2.1426849518645574,3.3053118817444807,-2.699644347002309,-6.3321848058072465,-3.5993375718935394
1.6137215194930763,-2.20600679992263,3.2783154382744577,-2.7356377227212443,-6.257353273375529,-4.095425801632396
1.59166145149385,-2.268580332656385,3.2509590610472454,-2.7765919807375683,-6.161564300495022,-4.601254444935877
1.5689756481672863,-2.3301959756613355,3.2231931412398698,-2.822604525186927,-6.043419848665339,-5.115697950076737
1.545673688410673,-2.3906301741479887,3.1949670959880003,-2.8737615046876943,-5.901405144572059,-5.637460275768029
1.5217673866691932,-2.449644225593709,3.1662294809411233,-2.9301361074453744,-5.733889546054649,-6.165075169844109
1.4972709444132561,-2.5069831210542555,3.1369281198666696,-2.9917868591438155,-5.539130117185288,-6.696909275030702
1.4722011132027135,-2.5623744222261085,3.1070102512752316,-3.0587559518941223,-5.315278395715512,-7.231168793898624
1.4465773689804524,-2.6155272061832635,3.0764226917562905,-3.1310676398331085,-5.060390828770928,-7.765910536988827
1.4204220969186199,-2.6661311144709727,3.0451120153579594,-3.2087267452029966,-4.772443322058885,-8.2990582614402
1.39376078577391,-2.7138555476915616,3.0130247479059293,-3.291717327817399,-4.449350287701108,-8.828425275838248
1.3666222302969944,-2.758349050568573,2.9801075746277554,-3.3800015805757813,-4.088988479280468,-9.351744333078363
1.3390387397913086,-2.7992389353613776,2.9463075588219976,-3.4735190239065648,-3.6892257627534835,-9.86670584874899
1.3110463504376948,-2.8361311929889124,2.911572368582932,-3.5721860823940546,-3.247954781758708,-10.371005459552638
1.2826850385078057,-2.8686107408064996,2.875850507758991,-3.675896136989581,-2.76313122973506,-10.86240186660654
1.2539989310997406,-2.89624205310385,2.839091546389095,-3.7845201556556463,-2.2328161351990334,-11.338785785310817
1.225036510568702,-2.9185702144558405,2.8012463448325384,-3.8979080135087543,-1.6552211995389043,-11.798260642354776
1.1958508084241435,-2.9351224264512297,2.762267264697451,-4.015890619932302,-1.028755802094461,-12.239235420481558
1.1664995841596313,-2.945409984472174,2.722108358498128,-4.138282974137117,-0.35207381422559475,-12.660529757034837
1.1370454843149096,-2.94893072261443,2.680725528756757,-4.264888271707465,0.37588214096635203,-13.061491063712797
1.1075561770887652,-2.9451719012047666,2.638076646039682,-4.395503182344593,1.1558418581462502,-13.442123070518404
1.0781044580767176,-2.9336134826233042,2.594121614216236,-4.529924413049778,1.9881775054625215,-13.803224832569754
1.0487683232504845,-2.913731707568679,2.5488223700857384,-4.6679566613754755,2.872886128212117,-14.146538906720094
1.0196310061747977,-2.885002846286558,2.5021428034719837,-4.809422050442676,3.8095887281504357,-14.474907141122232
0.9907809777119322,-2.8469069590050533,2.454048582967557,-4.954171121853899,4.797549995859782,-14.792432355211243
0.9623119081218816,-2.7989314590464556,2.4045068717490183,-5.102095445406012,5.835722508959976,-15.104644131104836
0.934322593531417,-2.7405742339568557,2.3534859172949583,-5.25314188671706,6.922818501489063,-15.418666957711315
0.9069168511918484,-2.671346048941965,2.300954498427788,-5.407328556294173,8.057410980777433,-15.743388949687658
0.8802033907024287,-2.5907719391341906,2.2468812128648463,-5.564762445791049,9.238063749600883,-16.089629037901492
0.8542956713110867,-2.498391301638182,2.191233588406936,-5.725658736170065,10.463486352391692,-16.470299366499283
0.8293117582947049,-2.3937564381142646,2.1339770010452352,-5.890361729835058,11.732704375856953,-16.900556650719476
0.8053741939135622,-2.276429394355695,2.0750733837468847,-6.059367296342252,13.045226627180341,-17.397929682275386
0.7826098999700053,-2.1459771280838917,2.014479710783462,-6.233346593165006,14.401176248824006,-17.982396887564516
0.7611501286891664,-2.0019653655956517,1.9521462448518119,-6.413170562040651,15.801328851263108,-18.676362343655967
0.74113047503321,-1.8439520770830207,1.8880145392314054,-6.599934185477211,17.24696028494614,-19.504431277051097
0.7226909542623797,-1.6714824742335592,1.8220151973766332,-6.794978498247722,18.739337560424715,-20.492799923870738
0.7059761295200442,-1.484089098629312,1.754065412394156,-6.999906497486429,20.278567733881463,-21.667920501427893
0.691135238533751,-1.2813034212904975,1.6840663474192916,-7.2165857025007085,21.861316322722406,-23.053830535319786
0.678322204320846,-1.0626902580632733,1.6119004903942846,-7.4471240078539065,23.47656366447959,-24.667067350675048
0.6676953017402133,-0.8279246214184774,1.5374292503157456,-7.693794681360657,25.098006964959627,-26.50730800579199
0.6594160555260286,-0.5769445517688812,1.460491303502139,-7.958867761418577,26.670861002952723,-28.540658003115734
0.6536466100083398,-0.3102359417393539,1.380902625887953,-8.244274341449733,28.089700219030465,-30.670872388539713
0.6505442505909462,-0.02933893954904926,1.2984598824734557,-8.55098306533513,29.163155981330636,-32.69239396637756
0.6502508611954557,0.2622926202642571,1.2129500518201044,-8.877907004998905,29.56280969567121,-34.22066837842836
0.6528737873980983,0.5579207172209693,1.1241709817701153,-9.220113688783188,28.763289919936337,-34.60756632640359
0.658452994570308,0.8455536164203326,1.0319698448822834,-9.566189352047225,26.010101132324646,-32.889036023279154
0.6669085307345114,1.105654627743579,0.9363079513618111,-9.895079712280017,20.411636938075013,-27.893447730556897
0.6779650770119472,1.3097709971243292,0.8373571542390109,-10.174014189585586,11.307568732926708,-18.71670414304508
0.6910627869831905,1.4228466844535963,0.735617012343155,-10.361181231016037,-1.0488184358834984,-5.618630767377436
0.7052912538277264,1.4123585000947614,0.6320052000329947,-10.417367538689811,-14.943413389136241,9.259873447666912
0.719414838828674,1.2629243662033989,0.5278315246460965,-10.324768804213143,-27.663139197872372,22.524839642750237
0.732044082490708,0.9862929742246751,0.4245838366039651,-10.09952040778564,-37.012623181618146,31.534297800663527
0.7419070122329547,0.6161667424084936,0.3235886325261087,-9.784177429779005,-42.42426298012607,35.804272884058776
0.7480686796570397,0.1919241126072328,0.22574685822831864,-9.426134700938418,-44.659436458764226,36.529489199016226
0.749987920783112,-0.2546702519804095,0.13148551121893445,-9.060839808948256,-44.863461424991876,35.305158555745386
0.747441218263308,-0.7033048662303283,0.0408771131294519,-8.707788223390802,-43.96143053664369,33.35758006138367
0.7404081696010048,-1.1429191715967653,-0.04620076910445611,-8.374212422776965,-42.52721967290636,31.412246268874274
0.7289789778850371,-1.5681913683258288,-0.12994289333222575,-8.060089960088222,-40.86368613509777,29.826205661006988
0.7132970642017787,-1.9768282296768065,-0.210543792933108,-7.761827903478152,-39.10997304381083,28.740204153848318
0.6935287819050107,-2.3679279601149146,-0.2881620719678895,-7.474425861939669,-37.31890778654001,28.18204766713421
0.6698495023038615,-2.741117037980315,-0.3629063305872862,-7.192605385268327,-35.50301392196432,28.124744445344824
0.6424383319240584,-3.096147177199958,-0.4348323844399695,-6.911357940814879,-33.659589532378334,28.516211628955222
0.6114768601520588,-3.4327430725237416,-0.5039459638481183,-6.626195824525327,-31.783720644264193,29.293606108147223
0.5771494294268213,-3.7505802789663836,-0.5702079220933716,-6.333259763443855,-29.874703512178996,30.39005496398387
0.5396436266371575,-4.049327314088173,-0.6335405197278101,-6.029359213804016,-27.93888557153295,31.737944015681578
0.49915035349627573,-4.328716169803503,-0.6938341118658503,-5.7119797736472,-25.99050434207443,33.27085404265592
0.4558631917982407,-4.588621213224247,-0.7509539096023223,-5.379271233220641,-24.051350973246596,34.92512423009011
0.4099769796659982,-4.829134722956713,-0.8047466219345287,-5.03001999091974,-22.149714266084846,36.64143724649653
0.3616856324364311,-5.050631865617562,-0.8550468218437262,-4.663605618454775,-20.31888926765139,38.36651178155617
0.3111793137802555,-5.253820758294076,-0.901682878028274,-4.2799405006392135,-18.595458966606703,40.05482735808557
0.25864110619731473,-5.4397753479601425,-0.9444822830346661,-3.8793922270583576,-17.017521524206213,41.67022793316854
0.2042433527177133,-5.609950563202204,-0.9832762053052496,-3.4626899477266724,-15.623007498547974,43.187221095291825
0.14814384708569125,-5.766180638187684,-1.0179031047825164,-3.030817736773754,-14.448193875681515,44.591786599517725
0.09048204070381441,-5.9106625769445,-1.048211282150254,-2.5848998707785764,-13.526463206791357,45.881511432167244
0.03137541493436941,-6.045927209012413,-1.0740602808580397,-2.126084756456904,-12.887266899794822,47.06485369042772
-0.029083857155754726,-6.1747998780103615,-1.0953211284226088,-1.6554362195526267,-12.555117664420386,48.159269025101125
-0.09083185593585835,-6.300351054654565,-1.111875490618135,-1.1738435293016154,-12.548231750530686,49.18775853141631
-0.153835366482404,-6.425833372159873,-1.123613925911151,-0.6819659439874524,-12.87612028435641,50.17303584816665
-0.21809370020400273,-6.554594575003437,-1.1304335853510257,-0.1802355855057859,-13.534912493221288,51.127846007555384
-0.2836396459540371,-6.689943699935649,-1.1322359412060836,0.331042874569768,-14.498372259591198,52.03884747392838
-0.35053908295339364,-6.834927422531561,-1.1289255124603859,0.8514313493090517,-15.701354769034449,52.83978426615561
-0.41888835717870926,-6.991940970221906,-1.1204111989672954,1.3798291919706078,-17.011011143704827,53.36770247360059
-0.4888077668809283,-7.162051081658954,-1.1066129070475892,1.9135062167066137,-18.180578051314672,53.29544957541815
-0.5604282776975178,-7.3438568621721005,-1.0874778448805231,2.4464607124607953,-18.78527010450303,52.04062809842271
-0.6338668463192388,-7.531709563217131,-1.0630132377559152,2.9668669934450227,-18.160287110374092,48.680677159480176
-0.7091839419514101,-7.713312434320872,-1.033344567821465,3.4536737650398246,-15.414533958277435,41.98008303918826
-0.7863170662946188,-7.867457773903646,-0.9988078301710668,3.8734745954317074,-9.676751410506771,30.752968820287744
-0.8649916440336554,-7.964225288008714,-0.9600730842167498,4.181004283634585,-0.7225743030765852,14.769625406034116
-0.9446338969137424,-7.9714510310394795,-0.9182630413804039,4.328700537694926,10.259542547689,-4.144919928714991
-1.0243484072241373,-7.868855605562589,-0.8749760360034546,4.287251338407777,20.696735070212906,-22.159109963599672
-1.1030369632797632,-7.66188825486046,-0.8321035226193769,4.06566023877178,28.064941632521425,-35.506700126642265
-1.1796558458283677,-7.381238838535246,-0.7914469202316591,3.710593237505358,31.459861344286505,-42.770849563262914
-1.2534682342137202,-7.066640225092382,-0.7543409878566055,3.2828847418727287,31.62811014251217,-44.961387119293136
-1.324134636464644,-6.75035912366726,-0.7215121404378783,2.8332708706797973,29.897157994954714,-43.985529621519646
-1.3916382277013166,-6.451387543717713,-0.6931794317310803,2.393415574464601,27.358079616255754,-41.4531935972471
-1.4561521031384936,-6.177806747555156,-0.6692452759864344,1.9788836384921298,24.664837193359492,-38.36210136884691
-1.5179301706140451,-5.931158375621561,-0.649456439601513,1.5952626248036608,22.135540693164593,-35.22620398116528
-1.5772417543702608,-5.709802968689916,-0.6335038133534764,1.243000584992008,19.893046749850647,-32.27079873357738
-1.63433978405716,-5.510872501191409,-0.6210738075035563,0.9202925976562342,17.962684196349805,-29.571868019660663
-1.689448509069074,-5.331245659227911,-0.611870881526994,0.6245739174596275,16.326764149042802,-27.13564593025925
-1.7427609656613532,-5.167978017737483,-0.6056251423523977,0.35321745815703504,14.95179220727085,-24.939502715960604
-1.794440745838728,-5.018460095664775,-0.6020929677708273,0.103822430997429,13.80101662411238,-22.951606211189425
-1.8446253467953757,-4.880449929423651,-0.6010547434608531,-0.12569363111446527,12.83970273690277,-21.139788429877925
-1.8934298460896122,-4.752052902054624,-0.6023116797719977,-0.33709151541324456,12.036986595785223,-19.475154782274252
-1.9409503751101584,-4.631683036096772,-0.6056825949261302,-0.5318430632359871,11.366207169716516,-17.933223525203537
-1.9872672054711262,-4.518020964399606,-0.61100102555849,-0.7111752984880224,10.804620852092217,-16.493959174725564
-2.032447415115122,-4.409974755878684,-0.6181127785433702,-0.876114890235278,10.33291359646911,-15.141353036873207
-2.076547162673909,-4.306645619913993,-0.626873927445723,-1.02752842060401,9.934691795353862,-13.862855949880974
-2.119613618873049,-4.207298701960454,-0.6371492116517631,-1.1661569801028198,9.596022965360326,-12.648800003257895
-2.1616866058926534,-4.1113384723068505,-0.6488107814527913,-1.2926449801353987,9.305047104607787,-11.491865779188139
-2.202799990615722,-4.018288001260773,-0.6617372312541452,-1.4075636379272802,9.051657934531772,-10.386614324845288
-2.24298287062833,-3.9277714219154554,-0.675812867633418,-1.5114297811757331,8.82724499417531,-9.329086412715752
-2.2822605848474846,-3.8394989719737023,-0.6909271654451753,-1.6047206453028906,8.624485436741084,-8.316464813512614
-2.3206555745672217,-3.7532541176062915,-0.7069743718982042,-1.6878852934380166,8.437174901382873,-7.346792996691911
-2.3581881157432845,-3.6688823685924628,-0.7238532248325844,-1.7613532234049358,8.2600883511917,-6.418743333357184
-2.394876939429209,-3.5862814850805456,-0.7414667570666338,-1.8255406567385077,8.088863521991163,-5.531428302172111
-2.4307397542800144,-3.505392849860634,-0.7597221636340189,-1.8808549397602288,7.919901283805854,-4.684248849034335
-2.465793682778621,-3.4261938370225753,-0.7785307130316211,-1.927697428250572,7.7502786491946365,-3.8767747030746444
-2.5000556211488467,-3.348691050530629,-0.7978076873141269,-1.9664651752813185,7.577671336872801,-3.1086520311429613
-2.533542531654153,-3.272914337161901,-0.8174723390669401,-1.9975516955927481,7.4002837250733675,-2.379534310892646
-2.5662716750257717,-3.1989114999111674,-0.8374478560228675,-2.0213470387016748,7.216784734749818,-1.6890327330891084
-2.5982607900248835,-3.126743652563669,-0.8576613264098842,-2.0382373660325657,7.026248701764601,-1.0366828258897787
-2.62952822655052,-3.0564811655460233,-0.8780437000702099,-2.0486041942914635,6.828100663640383,-0.4219243436943011
-2.6600930382059804,-2.9882001589096197,-0.8985297420131245,-2.0528234377284065,6.622065731855437,0.15590820837254896
-2.6899750397950766,-2.9219795015910655,-0.9190579763904085,-2.051264355644681,6.40812237302906,0.6975867303992422
-2.7191948348109873,-2.857898277860775,-0.9395706199468553,-2.0442884883406887,6.186459505643856,1.2039843809166213
-2.747773817589595,-2.796033682804336,-0.9600135048302622,-2.0322486445315224,5.957437353135503,1.676065859486047
-2.7757341544176386,-2.736459309272981,-0.9803359912755774,-2.015487985936662,5.721551995377163,2.114874582332069
-2.8030987475103686,-2.679243789319209,-1.000490871134944,-1.9943392401133413,5.479403541454603,2.5215179651889223
-2.829891185403561,-2.624449753904663,-1.0204342635360775,-1.9691240604614522,5.231667816779389,2.897151799104475
-2.8561356829426074,-2.5721330757368692,-1.040125504140692,-1.9401525424704074,4.979071424031987,3.2429644992400175
-2.881857013699976,-2.5223423614965492,-1.059527029565396,-1.9077228974780072,4.7223700050231185,3.560161824587193
-2.9070804373149413,-2.475118661446318,-1.078604258540176,-1.8721212792321353,4.462329502441504,3.8499525080854573
-2.9318316239294044,-2.4304953664219027,-1.0973254713324974,-1.8336217541512807,4.199710198404976,4.11353510125224
-2.9561365775936235,-2.3884982644378527,-1.11566168887401,-1.7924864031387584,3.93525329152502,4.352086223945718
-2.980021560238002,-2.3491457315226025,-1.1335865529053977,-1.7489655408993012,3.6696697658792012,4.566750316650382
-3.003513017553228,-2.3124490338638104,-1.1510762083143906,-1.7032980377327973,3.403631303412872,4.758630917809034
-3.0266375078918664,-2.2784127208296816,-1.1681091886917185,-1.655711728554707,3.1377629951007466,4.928783430170227
-3.0494216351001633,-2.2470350908786743,-1.1846663059772655,-1.6064238942530047,2.8726376147621435,5.0782092957869045
-3.07189198600895,-2.218308714731053,-1.2007305449197956,-1.5556418012951356,2.608771231750907,5.207851467146293
-3.0940750731562603,-2.192221002413544,-1.2162869629327469,-1.5035632866236728,2.3466199538579158,5.318591040003117
-3.1159972831803957,-2.168754802874965,-1.2313225957989835,-1.4503773762236416,2.0865776087642605,5.41124490005706
-3.137684831209145,-2.1478890267873223,-1.24582636956122,-1.396264927223071,1.828974190461686,5.486564229075987
-3.1591637214770185,-2.1295992848827052,-1.2597890188334506,-1.341399284932311,1.5740749155296085,5.54523371503587
-3.1804597143258455,-2.113858535727409,-1.2732030116827737,-1.2859469477819523,1.3220797524693728,5.587871314147005
-3.20159829968312,-2.1006377382027153,-1.2860624811605932,-1.2300682346404823,1.0731233050205542,5.615028419285293
-3.222604677065147,-2.0899065051525096,-1.298363163506998,-1.1739179504476294,0.8272749472212894,5.627190298559518
-3.243503742116672,-2.0816337556802966,-1.3101023430114744,-1.1176460474620342,0.5845391237437034,5.624776678913158
-3.264320079673475,-2.0757883644428596,-1.3212788034860947,-1.0613982806729025,0.3448557436674176,5.608142362342649
-3.2850779633179035,-2.0723398070061854,-1.3318927862928238,-1.005316857049476,0.10810060938358061,5.577577776231122
-3.3058013613879655,-2.0712588009123496,-1.3419459548633186,-0.9495410792871647,-0.12591416511833672,5.533309374314233
-3.326513949397089,-2.072517942563533,-1.3514413656561903,-0.8942079855440224,-0.35743978051163156,5.4754998209246795
-3.3472391288227246,-2.0760923403686493,-1.3603834455116306,-0.8394529873347756,-0.5867904454786292,5.404247908560888
-3.368000052226411,-2.081960244823436,-1.3687779753849783,-0.7854105082491667,-0.8143431482962764,5.319588177801004
-3.3888196546746454,-2.0901036763063985,-1.3766320804674699,-0.7322146264711566,-1.0405375059307553,5.221490229605029
-3.4097206914377094,-2.100509051365706,-1.3839542267321814,-0.6799997241751063,-1.265875676905746,5.109857743766621
-3.4307257819513666,-2.1131678081347633,-1.3907542239739323,-0.6289011467374401,-1.4909223093456374,4.984527244545888
-3.451857460032714,-2.12807703122822,-1.3970432354413067,-0.5790558742919812,-1.7163044780017849,4.84526668642625
-3.4731382303449965,-2.1452400760082377,-1.4028337941842266,-0.5306032074277187,-1.942711542724301,4.691773970851949
-3.494590631105079,-2.164667191435481,-1.4081398262585039,-0.48368546771919924,-2.1708948345513503,4.523675550388214
-3.516237303019434,-2.1863761397809944,-1.4129766809356958,-0.4384487122153171,-2.401667042973583,4.34052533201875
