th1 (rad),w1 (rad/s),th2 (rad),w2 (rad/s)
3.6695170301844686,-2.690822650222279,5.3296535275804615,-2.310457392601245
3.6426088036822457,-2.614218553201534,5.306548953654449,-2.2958236194411343
3.6164666181502305,-2.5399745803934732,5.283590717460037,-2.275758723765747
3.5910668723462957,-2.4681824764657008,5.26083313022238,-2.2506267797107946
3.5663850475816385,-2.3989249177612746,5.238326862425272,-2.2207776878139662
3.542395798404026,-2.33227456153601,5.216119085547133,-2.18654643895779
3.519073052788666,-2.2682934107188704,5.194253621157555,-2.1482526071012447
3.4963901186814774,-2.2070324513045434,5.172771095086543,-2.1062000611172533
3.474319794168432,-2.14853152181623,5.151709094475371,-2.06067688004855
3.4528344789502694,-2.092819377066437,5.1311023256748856,-2.011955451952048
3.431906285179605,-2.039913911570778,5.110982771155365,-1.960292733927305
3.4115071460638973,-1.989822511310848,5.091379843816092,-1.9059306496399615
3.3916089209507887,-1.9425425059813646,5.072320537319693,-1.8490966004005502
3.372183495890975,-1.8980616972910098,5.0538295713156876,-1.7900040664136119
3.353202878918065,-1.8563589422288147,5.0359295306515515,-1.728853275970843
3.334639289495777,-1.8174047733883785,5.018640997891843,-1.66583192195299
3.316465241761893,-1.7811620414077158,5.001982678672314,-1.6011159068843475
3.298653621347816,-1.747586567295866,4.985971519603471,-1.534870099833149
3.2811777556748574,-1.7166277948558053,4.970622818605139,-1.4672490905768025
3.2640114777262994,-1.6882294355663048,4.955950327699371,-1.3983979285798689
3.247129183370636,-1.662330100153196,4.9419663484135725,-1.3284528364101231
3.2305058823691044,-1.638863912671479,4.928681820049471,-1.257541889204498
3.2141172432423897,-1.617761104248702,4.9161064011574265,-1.1857856536652853
3.1979396321999025,-1.5989485847267404,4.904248544620773,-1.1132977818007739
3.181950146352635,-1.5823504913064186,4.8931155668027655,-1.0401855562144842
3.1661266414395706,-1.5678887139723023,4.882713711240621,-0.9665503851901082
3.1504477542998477,-1.5554833979793634,4.87304820738872,-0.8924882471162584
3.134892920320054,-1.5450534240451366,4.864123324917558,-0.8180900849501893
3.119442386079603,-1.5365168671360412,4.855942424068056,-0.7434421524387644
3.1040772174082423,-1.5297914348893356,4.848508002543668,-0.6686263147052859
3.088779303059349,-1.5247948867959846,4.841821739396615,-0.5937203065802714
3.073531354191389,-1.521445435306288,4.835884536330813,-0.5187979527111475
3.058316899838326,-1.5196621300294122,4.8306965568037015,-0.44392935403868405
3.043120278538032,-1.5193652261981716,4.826257263263314,-0.3691810456856345
3.02792662627605,-1.5204765385777732,4.822565452806458,-0.2946161316746406
3.0127218608902724,-1.5229197820261813,4.819619291489712,-0.2202944021876873
2.9974926630700107,-1.5266208999767688,4.817416347467835,-0.14627243930861172
2.982226454070243,-1.531508382221694,4.815953623074749,-0.07260371736462584
2.966911370248026,-1.5375135735358576,4.815227585901102,0.0006612958852734302
2.9515362345126674,-1.5445709749035959,4.8152341988599545,0.07347503086443656
2.9360905247636313,-1.5526185393989893,4.815968949168599,0.1457926941568487
2.9205643393696414,-1.5615979651298586,4.817426876110167,0.2175721263230275
2.9049483597183428,-1.571454988087575,4.819602597373397,0.2887736329227669
2.889233809837467,-1.5821396782505415,4.822490333702624,0.35935978197801266
2.8734124130549614,-1.5936067428674747,4.826083931522404,0.42929516092675846
2.857476345626287,-1.6058158414939765,4.830376883131671,0.4985460858774858
2.841418187211347,-1.6187319180657027,4.835362343990446,0.5670802556647905
2.82523086803069,-1.6323255560526106,4.841033146547094,0.6348663428283444
2.808907612470164,-1.6465733635337505,4.847381809975378,0.7018735131969496
2.7924418788348264,-1.6614583958339115,4.854400545107348,0.7680708652793745
2.7758272948764873,-1.6769706241315996,4.862081253760142,0.8334267801869629
2.759057588635171,-1.693107459122284,4.870415521562011,0.8979081724121643
2.742126514043948,-1.7098743393140463,4.879394603286133,0.9614796315756715
2.7250277706508075,-1.7272853937187638,4.889009399601889,1.0241024454026528
2.7077549167136197,-1.7453641884022786,4.899250424055916,1.0857334949420074
2.6903012748295967,-1.764144565322417,4.910107759005336,1.1463240147502112
2.6726598291763723,-1.7836715797718028,4.921570999152838,1.2058182139058184
2.6548231133786544,-1.804002539090825,4.933629181291896,1.2641517589569118
2.6367830879877463,-1.8252081395132047,4.946270698881465,1.3212501281013433
2.6185310065926144,-1.8473736892623414,4.959483200162478,1.377026858185442
2.600057269699991,-1.8706003933410174,4.973253468744333,1.431381723898531
2.5813512657665805,-1.895006657658279,4.987567285983318,1.4841989135531752
2.5624011991899978,-1.9207293458604653,5.00240927511885,1.5353453000382964
2.543193905731393,-1.9479248900723831,5.017762728119233,1.5846689509764342
2.5237146568306694,-1.9767701154853112,5.033609417628997,1.6319980806486112
2.5039469556758163,-2.0074625877264367,5.049929398435483,1.677140718909825
2.483872329798552,-2.0402202318640317,5.066700805624581,1.7198854583899827
2.4634701274799116,-2.0752799056900164,5.083899660208481,1.7600037368572288
2.4427173284230115,-2.1128945441890674,5.1014996975770535,1.79725420766053
2.421588382981121,-2.153328438785865,5.119472239653659,1.831389831069727
2.400055098593262,-2.1968501929446265,5.137786137964356,1.8621683565485168
2.378086596663816,-2.2437229317396157,5.156407821529841,1.8893668225538145
2.3556493673464196,-2.2941914708177706,5.1753014897553795,1.9128005280398914
2.332707452638242,-2.34846640591025,5.194429495035778,1.9323465758229503
2.3092227885791394,-2.406705496647379,5.213752960794007,1.9479715089015526
2.2851557336126658,-2.4689932936523613,5.2332326758830225,1.959761745029088
2.2604658006761422,-2.5353206577531116,5.2528302933333135,1.9679545119277422
2.235112594098611,-2.6055665436192235,5.272509838452591,1.9729659350804356
2.209056928662419,-2.6794849961869716,5.292239497803395,1.975412073433826
2.1822620787005493,-2.756700515481371,5.311993618537733,1.976118353685995
2.1546950735457355,-2.8367145681423094,5.3317548020745935,1.9761133385858642
2.1263279278643124,-2.91892493945282,5.351515935460452,1.9766042716712138
2.097138678469784,-3.002657888835018,5.371281978177165,1.978934306189222
2.067112099581434,-3.0872109851586127,5.391071321239057,1.9845243556216863
2.036239989729848,-3.1719025337375313,5.410916564795274,1.9948054236303716
2.004520964392473,-3.2561221911476497,5.430864619031578,2.011149319261039
1.9719597424809963,-3.3393770838754775,5.450976112224188,2.034806254830492
1.9385659716422414,-3.421328597879263,5.4713241747724926,2.0668567800100215
1.9043526856634487,-3.501816754720051,5.4919927425725925,2.1081831227158694
1.8693345181162482,-3.5808712677715264,5.513074573799751,2.159461938049334
1.8335258054385328,-3.658710453111487,5.534669193180244,2.221177474266818
1.796938700907418,-3.73573074270407,5.556880967922912,2.2936518738985052
1.7595813934803772,-3.8124904143608074,5.579817486661897,2.3770880706830275
1.7214564893367692,-3.8896913330834377,5.603588367368727,2.4716205391740953
1.6825595760059349,-3.968162163670011,5.6283045727604675,2.577369795990345
1.6428779543692347,-4.048845900775111,5.654078270720371,2.6944977294891337
1.6023894953614835,-4.132793895293269,5.681023248015262,2.823262247216413
1.5610615564085508,-4.221168007423572,5.709255870487427,2.964071155735448
1.518849876334315,-4.3152521958678305,5.738896582044781,3.1175365069347087
1.4756973543756366,-4.416474814847243,5.770071947114128,3.2845318364674543
1.4315326062271643,-4.526443157229182,5.802917265478802,3.466255833543074
1.3862681746548724,-4.646992356786982,5.837579823814233,3.664307108639225
1.3397982510870026,-4.780251636838455,5.874222894900625,3.8807759643682274
1.291995734718618,-4.928732025010944,5.913030654544308,4.118360471681087
1.2427084144685085,-5.0954408955398955,5.954214259261119,4.380515585589081
1.1917540055131095,-5.284029589600028,5.998019415117009,4.671644917803042
1.1389137096171091,-5.498979604925596,6.04473586429504,4.9973433467348976
1.0839239135678531,-5.745826996798232,6.094709297762389,5.364690099769549
1.0264656435998707,-6.031404808261624,6.1483561987600845,5.782563874569971
0.9661515955172545,-6.3640269606683315,6.206181837505785,6.261872373886005
0.9025113259105711,-6.753387553676922,6.268800561244645,6.815379143068683
0.8349774503738019,-7.209570297624174,6.336954352675332,7.45627925631096
0.7628817473975602,-7.7396542433293325,6.411517145238442,8.193401677711487
0.6854852049642669,-8.338492581296107,6.493451162015557,9.018236847273869
0.6021002791513058,-8.967655170289014,6.583633530488296,9.875354020516859
0.5124237274484157,-9.52008252812381,6.682387070693465,10.612757488680199
0.4172229021671776,-9.803703153211812,6.788514645580267,10.958867422084442
0.3191858706350595,-9.64716162166361,6.898103319801111,10.67091985532031
0.22271425441842338,-9.108975265839103,7.0048125183543135,9.828324470715724
0.13162450176003235,-8.438190762284995,7.103095763061471,8.777562912800075
0.0472425941371824,-7.819495428767418,7.190871392189472,7.77578393124246
-0.030952360150491784,-7.3103522459973185,7.2686292315018965,6.902983023320385
-0.10405588261046497,-6.907884434031845,7.3376590617351,6.1550595675056705
-0.1731347269507834,-6.594314678762608,7.3992096574101565,5.506984034551757
-0.2390778737384095,-6.352136227090738,7.454279497755674,4.933918767710262
-0.3025992360093169,-6.167344576374595,7.503618685432777,4.41578647914732
-0.3642726817730628,-6.029331047344185,7.54777655022425,3.9372230227811293
-0.42456599224650465,-5.930113869286682,7.587148780452061,3.486623999218079
-0.4838671309393715,-5.863597609298707,7.622015020444242,3.055243572834024
-0.5425031070323586,-5.824989681441369,7.652567456172583,2.6365241748884736
-0.6007530038467723,-5.810363237986194,7.678932697921468,2.225640011600463
-0.6588566362266343,-5.816332496740506,7.701189098037473,1.8192010509216505
-0.7170199611940393,-5.839811969964765,7.719381108546689,1.4150665792997086
-0.775418080893687,-5.877841153032315,7.733531774339687,1.0122259627725918
-0.8341964924240102,-5.927464868071492,7.743654033967412,0.6107115614408628
-0.8934711411047251,-5.985665232889233,7.749761149581821,0.21151452506286844
-0.9533277934336175,-6.0493438447662635,7.751876294832449,-0.18352010207595143
-1.01382123188128,-6.115352259687549,7.7500410938116895,-0.5718354109956272
-1.0749747544781556,-6.180565612672154,7.744322739701733,-0.950348915235466
-1.1367804106048771,-6.241989249990631,7.7348192505493785,-1.3156791404054613
-1.1992003031047833,-6.296883122470228,7.721662459145324,-1.6643974545266067
-1.2621691343294856,-6.342885293910278,7.705018484600058,-1.9932815046183097
-1.3255979872685884,-6.378115773693013,7.6850856695538745,-2.299543018482965
-1.3893791450055184,-6.401245514019134,7.662090239369045,-2.581005297359706
-1.4533916001457097,-6.411522055049464,7.636280186395448,-2.836213785913391
-1.5175068206962044,-6.408751177127912,7.607918048536313,-3.0644742757965595
-1.5815943324674835,-6.393240963551546,7.5772733057783475,-3.2658244358065818
-1.6455267421029989,-6.365719329683904,7.544615061420282,-3.440952767995389
-1.709183935399838,-6.327237740957045,7.5102055337403275,-3.591083355215799
-1.7724563128094084,-6.279072879016045,7.474294700188169,-3.717844935171007
-1.835247041599569,-6.222635356897467,7.437116250836459,-3.823139991495763
-1.8974733951685436,-6.159391284540627,7.398884850921501,-3.909025166865873
-1.95906730801395,-6.0907993800699884,7.359794599252842,-3.9776096930546334
-2.01997530181465,-6.018263889229575,7.320018502322296,-4.030974573118278
-2.0801579407069455,-5.943101964898145,7.279708756591113,-4.071112339667239
-2.139588960355927,-5.866523298577318,7.23899763319444,-4.099885384745542
-2.1982541933417004,-5.7896195079744714,7.197998779346985,-4.11899993709372
-2.256150388421445,-5.7133608716147934,7.156808779976048,-4.129992500985366
-2.313283997137593,-5.638598293742025,7.115508854966194,-4.134225724927654
-2.369669980075013,-5.5660687575998775,7.074166597716918,-4.132891044040572
-2.425330667651012,-5.496402904477746,7.032837687276512,-4.127015900588212
-2.4802946966957893,-5.430133717204148,6.99156752827063,-4.117473808141744
-2.534596033867831,-5.3677055721625475,6.950392790189213,-4.104995940451545
-2.5882730895894563,-5.309483150453491,6.909342830784698,-4.090183276903063
-2.641367921093991,-5.255759871571112,6.868440998015667,-4.073518619071325
-2.693925519809702,-5.206765640328234,6.827705811824954,-4.055378012650869
-2.7459931762129846,-5.162673788885404,6.7871520316984455,-4.036041275027194
-2.7976199141018387,-5.123607159070359,6.746791618948174,-4.015701451060288
-2.848855985692542,-5.089643312921082,6.70663460443757,-3.9944731078330005
-2.899752418821753,-5.060818887388469,6.666689873359241,-3.9723994415450252
-2.9503606076956377,-5.037133126984736,6.626965878943791,-3.949458213397087
-3.000731938965485,-5.0185506394088835,6.58747129680982,-3.9255665618898576
-3.0509174453595738,-5.005003426550717,6.548215631190922,-3.9005847610086906
-3.100967479625081,-4.996392248886767,6.509209783580835,-3.874319010909234
-3.1509314021139483,-4.992587386809432,6.470466593471743,-3.846523362867251
-3.2008572759820426,-4.993428869237952,6.4320013598430705,-3.816900895751795
-3.2507915646744223,-4.998726249089234,6.393832350885552,-3.7851042790161578
-3.3007788271653147,-5.008258017811627,6.355981308095391,-3.7507358786741274
-3.350861407343431,-5.021770768019311,6.3184739493086495,-3.713347589041814
-3.401079115023624,-5.038978234926966,6.281340473418231,-3.6724406048110505
-3.451468897372894,-5.059560374109073,6.244616067370121,-3.6274653852968965
-3.502064501113985,-5.083162665002634,6.208341413517152,-3.577822104639999
-3.552896127764011,-5.109395865806079,6.172563192470752,-3.5228619263537673
-3.6039900864220717,-5.137836484360991,6.137334573207214,-3.4618894843456793
-3.655368451265682,-5.168028268364775,6.102715678363757,-3.3941669898927023
-3.7070487339493297,-5.199485052408274,6.06877400846483,-3.3189204071187004
-3.7590435844734125,-5.231695322561556,6.035584804393643,-3.235348137791532
-3.811360537699028,-5.264128863262529,6.003231323015728,-3.1426326166823575
-3.8640018263316533,-5.29624582604035,5.971804996848904,-3.039955126404044
-3.9169642845920567,-5.32750849403542,5.941405445584864,-2.9265139803522615
-3.9702393695324107,-5.35739589971977,5.9121403057813415,-2.801545981270997
-4.0238133285296085,-5.385421277890268,5.884124845968632,-2.6643507345471003
-4.077667541308511,-5.411152100274842,5.857481338623161,-2.5143169844711326
-4.131779062311259,-5.434232150365137,5.832338168778449,-2.3509496700245798
-4.1861213838149105,-5.454404779472521,5.808828672078203,-2.1738959070480033
-4.240665431609636,-5.471536175468122,5.787089713007723,-1.9829676610865485
-4.295380793364317,-5.485637227085926,5.767260036396857,-1.7781585631121384
-4.350237165635177,-5.4968824412205,5.749478450765736,-1.5596522284713212
-4.4052059900473814,-5.5056244289520615,5.733881928481022,-1.3278196447643875
-4.460262234336902,-5.5124027620920755,5.7206037320333785,-1.0832037367907148
-4.515386261957823,-5.517946527419824,5.709771694665472,-0.8264900757475335
-4.5705657272320215,-5.523170638177963,5.701506793907996,-0.5584637810090896
-4.625797433613801,-5.529166824336381,5.695922156097906,-0.2799538011047724
-4.681089101857165,-5.5371911042485555,5.693122618086858,0.008233254517273358
-4.736461012899651,-5.548650322383812,5.693204950632031,0.3053869434642127
-4.791947516123489,-5.565090926435736,5.696258820066673,0.6109716068451183
-4.847598425387846,-5.588193510459755,5.702368536135124,0.9247074437070131
-4.903480360492444,-5.619776795711373,5.711615610572194,1.2466528662252832
-4.959678128449558,-5.661814751252996,5.724082139234446,1.577288631975176
-5.0162962759620875,-5.716470612436695,5.739855025554198,1.9176063046765117
-5.073460982086455,-5.786151788309637,5.759031088600963,2.2692058823594863
-5.131322499969551,-5.873590168809851,5.781723147424558,2.634409799036524
-5.19005840165765,-5.98195312964287,5.808067245414923,3.0164027222793424
-5.249877932954078,-6.114991248812086,5.838231272637716,3.4194080744490325
-5.311027845442199,-6.277228277256904,5.872425353382207,3.848911444755691
-5.373800128214768,-6.4741941880071865,5.910914467829763,4.311933812715119
-5.438542070094839,-6.712685204616999,5.9540338059569144,4.817332696652994
-5.505668922141009,-7.000985237290997,6.002207132923444,5.376038519305877
-5.575678774513919,-7.348849820121084,6.0559675181165025,6.000944732473263
-5.64916727271513,-7.766710664420878,6.115976965441235,6.705687196171948
-5.726834379359339,-8.262722036665648,6.183033837402955,7.50037233531322
-5.809461599725996,-8.834445616514317,6.258037560756087,8.379752911651018
-5.897806055891139,-9.449169710699852,6.341835089872597,9.295426626307243
-5.992297752998137,-10.008509527469894,6.43478935613567,10.105994892914941
-6.092382848272837,-10.323509769870716,6.535849305064819,10.542214212777573
-6.195617945971544,-10.202223726002364,6.6412714471925955,10.330774906374534
-6.297640183231568,-9.670969485284763,6.744579196256341,9.50634506233575
-6.394349878084416,-8.97960884306072,6.839642646879699,8.419718691193658
-6.484145966515023,-8.333817162857505,6.923839833791635,7.361601622135023
-6.567484138143598,-7.802134740901849,6.997455850012985,6.430865314587546
-6.645505485552617,-7.383486092195823,7.0617645031588605,5.62820806845508
-6.719340346474575,-7.0589854448560665,7.1180465838434115,4.928587317974679
-6.789930200923136,-6.809655220869311,7.167332457023158,4.306250033395597
-6.858026753131829,-6.620238939258343,7.2103949573571136,3.7403359636714613
-6.924229142524412,-6.479128135982629,7.247798316993828,3.215007520554986
-6.989020423884239,-6.3775239583294,7.279948392199378,2.7184736217434082
-7.052795663467533,-6.30863126289046,7.307133128416812,2.242034766613405
-7.115881976096437,-6.267032619550457,7.329553476082946,1.7793620943582735
-7.1785523022919415,-6.248230837359542,7.347347097026529,1.3259943567229504
-7.241034610665537,-6.248322520357201,7.3606070405937585,0.8789941834896475
-7.303517835869108,-6.263770676063406,7.369396982428655,0.4367080767651189
-7.366155542629742,-6.291254341317507,7.373764063196306,-0.0014141948069082422
-7.429068086042917,-6.327580899250215,7.373749921248237,-0.4349742583409785
-7.492343895035419,-6.369651116345087,7.3694001786648275,-0.862777659647061
-7.5560404061988695,-6.414468276039764,7.360772402068357,-1.2829989179368795
-7.620185088959267,-6.459181947128133,7.3479424128889885,-1.6933647227918986
-7.684776908430548,-6.501154989669118,7.331008765661069,-2.0913521900009266
-7.749788458327239,-6.538040591430787,7.31009524376106,-2.474391739559183
-7.815168864241547,-6.567855561194333,7.285351326365468,-2.840059401072815
-7.88084741985349,-6.589037479870324,7.25695073235474,-3.186242155849443
-7.9467377946521935,-6.600476669047506,7.225088310796246,-3.5112624714482057
-8.01274256134267,-6.601518649813784,7.189975686081764,-3.813953680204478
-8.078757747840807,-6.591937773061185,7.15183614927972,-4.093684758287037
-8.14467712557142,-6.57188691420719,7.11089930169685,-4.350339619419607
-8.210395994713492,-6.541830784050722,7.067395905502654,-4.584260845515217
-8.275814302554,-6.502471277633061,7.021553297047501,-4.79617014781937
-8.340839015330332,-6.454672610580391,6.9735915955693075,-4.987077853344663
-8.405385741436135,-6.399392312981306,6.923720817035861,-5.1581919433967505
-8.469379664565947,-6.337622060726113,6.872138897601893,-5.310834447364228
-8.532755885173207,-6.270340309521707,6.8190305531282505,-5.446370064864107
-8.595459288268424,-6.198477056635386,6.764566852479609,-5.5661492814348765
-8.657444058834779,-6.122889906277853,6.70890535966526,-5.671466230578288
-8.718672957897557,-6.044349939605028,6.652190697359477,-5.763530201081303
-8.779116457293608,-5.963535599605737,6.594555395348664,-5.843448921899486
