th1 (rad),w1 (rad/s),th2 (rad),w2 (rad/s),a1 (rad/s^2),a2 (rad/s^2)
6.277898498928311,-0.5910949636948601,3.3144918098014973,1.6672526518119575,1.2906184097377036,3.018094076052399
6.271987549291362,-0.5781887795974832,3.331164336319617,1.6974335925724815,1.4616761390900381,3.3456787846563047
6.266205661495387,-0.5635720182065828,3.3481386722453417,1.7308903804190445,1.6176268957686577,3.6575780887057543
6.260569941313321,-0.5473957492488962,3.365447576049532,1.767466161306102,1.757097830117398,3.9526071423064417
6.255095983820832,-0.5298247709477223,3.3831222376625933,1.8069922327291665,1.8788650998904601,4.229801863478706
6.249797736111354,-0.5110361199488177,3.401192159989885,1.8492902513639535,1.9818631289889939,4.488429065457176
6.244687374911866,-0.4912174886589278,3.4196850625035244,1.8941745420185252,2.0651910660861694,4.7279920605914265
6.239775200025276,-0.4705655779980661,3.43862680792371,1.9414544626244394,2.1281163206691867,4.948231735391834
6.235069544245295,-0.4492844147913742,3.4580413525499543,1.9909367799783577,2.1700751428069256,5.149123252449714
6.230576700097381,-0.42758366336330494,3.477950720349738,2.042428012502855,2.1906703043568307,5.330868687103884
6.226300863463748,-0.40567696031973666,3.4983750004747667,2.0957366993738935,2.1896660277764113,5.493886045256813
6.22224409386055,-0.38378030004197256,3.5193323674685058,2.1506755598264617,2.1669803886470898,5.638795225839123
6.2184062908601305,-0.36211049615550167,3.54083912306677,2.207063512084853,2.1226754844553297,5.766401580748593
6.214785185898576,-0.3408837413109484,3.562909758187619,2.264727527892339,2.05694571115286,5.877677782403511
6.211376348485466,-0.3203142841994198,3.585557033466542,2.323504305716374,1.9701045179695948,5.973744732555233
6.2081732056434715,-0.30061323901972387,3.608792076523706,2.383241753041926,1.8625700188907457,6.0558522364582545
6.205167073253274,-0.2819875388308164,3.632624494054125,2.4438002754065087,1.7348498267261672,6.12536012703897
6.202347197864966,-0.26463904056355475,3.65706249680819,2.5050538766768984,1.587525444802025,6.183720459465192
6.1997008074593305,-0.2487637861155345,3.6821130355749587,2.5668910812715504,1.4212365051146039,6.232461314054259
6.197213169598175,-0.23455142106438848,3.707781946387674,2.629215694412093,1.2366650841489628,6.273172652109925
6.194867655387531,-0.22218477022289884,3.7340741033317952,2.691947420933192,1.0345202626288785,6.307494572533971
6.192645807685302,-0.21183956759661005,3.760993577541127,2.755022366658532,0.8155230272696445,6.337108223980451
6.190527412009336,-0.2036843373239136,3.7885438012077124,2.818393448898336,0.5803915447371104,6.363729544107528
6.188490568636097,-0.1978804218765425,3.8167277356966958,2.8820307443394113,0.32982677333922533,6.389105929183889
6.1865117644173315,-0.19458215414315025,3.8455480431400897,2.9459218036312502,0.06449831846548981,6.415015887702525
6.1845659428759,-0.19393717095849536,3.8750072611764024,3.0100719625082757,-0.21496961554183755,6.443271703279221
6.182626571166315,-0.19608686711391374,3.905107980801485,3.074504679541068,-0.5080123714924848,6.475725126406329
6.180665702495176,-0.2011669908288386,3.9358530275968957,3.139261930805131,-0.814139319504188,6.514276132174446
6.178654032586888,-0.20930838402388047,3.967245646904947,3.2044046921268756,-1.1329489451005732,6.560884821871187
6.176560948746649,-0.2206378734748862,3.9992896938262157,3.2700135403455874,-1.4641448552826979,6.617586610147178
6.1743545700119,-0.23527932202771318,4.031989829229672,3.336189406447059,-1.8075530496909873,6.68651092593888
6.172001776791623,-0.25335485252462303,4.0653517232941425,3.403054515706448,-2.1631408448787406,6.769903764524245
6.169468228266377,-0.27498626097341045,4.099382268451207,3.4707535533516904,-2.531037887367601,6.8701545603075855
6.166718365656642,-0.30029663984708643,4.1340898039847245,3.5394550989547664,-2.9115597482538638,6.989828005920862
6.163715399258171,-0.32941223732962505,4.169484354974272,3.609353379013975,-3.305234660778557,7.1317016239164275
6.160421276884875,-0.3624645839374106,4.205577888764411,3.680670395253139,-3.712834043326463,7.298810103283873
6.156796631045501,-0.39959292437067523,4.242384592716943,3.753658496285978,-4.13540754236496,7.494497643348804
6.1528007018017945,-0.44094699979432483,4.279921177679802,3.828603472719466,-4.574323427382452,7.722479797818163
6.148391231803851,-0.4866902340681494,4.318207212406997,3.9058282706976475,-5.031315260263075,7.9869165699325855
6.14352432946317,-0.5370033866707802,4.357265495113974,3.9856974363969733,-5.508535819489919,8.29249874977083
6.138154295596462,-0.5920887448656794,4.397122469477943,4.0686224238946815,-6.008619237928153,8.644549654399949
6.132233408147806,-0.652174937244961,4.43780869371689,4.155067920438681,-6.534752126365212,9.04914443106071
6.125711658775356,-0.7175224585086131,4.479359372921277,4.245559364749288,-7.090753951710012,9.513248728527067
6.11853643419027,-0.7884299980257132,4.52181496656877,4.340691852034558,-7.681165851230559,10.044877497314557
6.110652134210013,-0.8652416565380188,4.565221885089115,4.441140627007703,-8.311344922627868,10.653272343819843
6.101999717644633,-0.9483551057642975,4.609633291359192,4.547673350445902,-8.987557009967214,11.349091161792284
6.09251616658699,-1.0382306758639697,4.655110024863651,4.661164262063825,-9.717053660986862,12.14459478185521
6.0821338598283505,-1.1354012124738382,4.701721667484289,4.782610209882377,-10.508105720400906,13.053798709693819
6.070779847703612,-1.2404822696778472,4.749547769583113,4.913148196979315,-11.369942478754295,14.092527614655271
6.058375025006834,-1.3541816944653902,4.798679251552906,5.054073473125868,-12.312503577914914,15.278255365292342
6.04483320806218,-1.4773067302445393,4.849219986284165,5.206856026778792,-13.34583731407338,16.62951523826273
6.030060140759734,-1.610765103385273,4.901288546551953,5.373151179161419,-14.478850095294233,18.164490796603403
6.013952489725882,-1.7555536043382154,4.9550200583435675,5.554796087127453,-15.71688848694134,19.898092950758016
5.9963969536825,-1.9127224892076289,5.010568019214842,5.753777016635033,-17.05725639342423,21.836306124336783
5.977269728790423,-2.083295053141871,5.0681057893811925,5.972140077878401,-18.48115306002718,23.965726957372265
5.956436778259005,-2.268106583742143,5.127827190159977,6.211797347452124,-19.939595003581612,26.23491752441477
5.933755712421584,-2.4675025337779593,5.189945163634498,6.474146522696271,-21.32976123398795,28.522574101263412
5.909080687083804,-2.680800146117839,5.25468662886146,6.759372263708905,-22.457656457807378,30.586614225455804
5.882272685622626,-2.9053767106959127,5.3222803514985495,7.065238405963464,-22.98577282783863,31.99186894302779
5.853218918515666,-3.135234438974299,5.392932735558184,7.385157095393741,-22.377679979602874,32.03198790567722
5.821866574125924,-3.359011238770328,5.466784306512122,7.705476974450513,-19.887769276664894,29.710966277052922
5.788276461738221,-3.557888931536977,5.543839076256627,8.002586637221043,-14.707663016331866,23.937253886620613
5.752697572422851,-3.7049655617002957,5.623864942628837,8.24195917608725,-6.4074168836085,14.121165625680845
5.715647916805848,-3.7690397305363805,5.7062845343897095,8.383170832344058,4.399733876650562,1.078673506496941
5.677957519500484,-3.725042391769875,5.79011624271315,8.393957567409029,15.773578915928308,-12.588867573828466
5.640707095582785,-3.567306602610592,5.874055818387241,8.268068891670744,25.2703144328682,-23.629524266596952
5.60503402955668,-3.31460345828191,5.956736507303948,8.031773649004775,31.396229913411368,-30.116557465920064
5.571887994973861,-3.0006411591477966,6.037054243793996,7.730608074345574,34.1974272629993,-32.214912619196696
5.541881583382383,-2.658666886517804,6.114360324537452,7.408458948153608,34.63717561790646,-31.297148263046733
5.515294914517205,-2.312295130338739,6.188444914018988,7.09548746552314,33.76143315845545,-28.80311908283599
5.492171963213818,-1.9746807987541846,6.259399788674219,6.807456274694781,32.31475174638211,-25.73501505388435
5.472425155226276,-1.6515332812903636,6.327474351421167,6.5501061241559375,30.722692188738137,-22.65177666912516
5.455909822413372,-1.3443063594029823,6.392975412662727,6.323588357464686,29.19245355312411,-19.816498104496873
5.442466758819342,-1.052381823871741,6.456211296237374,6.125423376419717,27.807018156725775,-17.328459703796774
5.431942940580624,-0.7743116423044833,6.517465530001571,5.952138779381749,26.585936851077527,-15.206362416215791
5.424199824157579,-0.508452273793708,6.576986917795389,5.8000751552195915,25.519169999697155,-13.43357646418879
5.419115301419642,-0.2532605737967365,6.634987669347585,5.665739390577704,24.58451530462388,-11.98071628886058
5.416582695681674,-0.00741542075049767,6.691645063253362,5.545932227689098,23.75611564348854,-10.816106468926884
5.416508541474169,0.23014573568438773,6.747104385530253,5.437771162999829,23.008395607116576,-9.910155529526984
5.418809998831013,0.4602296917555535,6.801482097160251,5.33866960770456,22.317746134217504,-9.236795304427057
5.423412295748569,0.6834071530977286,6.854868793237297,5.246301654660289,21.66314320992519,-8.773575456115704
5.430246367279546,0.9000385851969805,6.9073318097839,5.158565900099132,21.026290726537077,-8.501192875110153
5.439246753131515,1.1103014924623513,6.958917468784891,5.073553971348031,20.39157287934916,-8.402829927766867
5.450349768056139,1.314217221255843,7.009653008498372,4.9895256720703625,19.74594774956912,-8.463476076538166
5.463491940268697,1.5116766987515342,7.0595482652190755,4.904890911304981,19.07883695099675,-8.669310978065967
5.478608707256212,1.7024650682615017,7.108597174332125,4.818197801524321,18.38202847918112,-9.007181412475536
5.495633357938827,1.8862853530533128,7.156779152347369,4.728125987399566,17.649592059548382,-9.464183109433236
5.51449621146936,2.0627812736487967,7.204060412221365,4.633484156305234,16.877798716358054,-10.027348705847784
5.535124024205848,2.2315592608123773,7.250395253784417,4.533210669246756,16.06503410948446,-10.683438322912206
5.557439616813972,2.392209601907222,7.295727360476884,4.426376286017634,15.211695898175055,-11.41882656253404
5.581361712833044,2.5443265608889725,7.339991123337061,4.312188020392293,14.32006762661037,-12.219477771489787
5.606804978441934,2.6875272371550762,7.383113003540984,4.189993242677395,13.39416457738386,-13.070999738620971
5.633680250813485,2.8214688829289147,7.425012935967758,4.059283245291185,12.439550174243491,-13.958764517457501
5.661894939642774,2.9458643846713497,7.46560576842067,3.9196956001166106,11.463124460363101,-14.868083905576926
5.691353583489487,3.0604956292749805,7.504802724421836,3.771014761060841,10.472888675533099,-15.78442638450805
5.7219585397822375,3.1652245160303116,7.542512872032445,3.613170497215761,9.477691854701911,-16.693662098138066
5.75361078494254,3.260001434577331,7.578644577004602,3.44623387623438,8.48696662325274,-17.582322711852676
5.786210799288313,3.344871100809858,7.613106915766946,3.270410649115853,7.510462011555032,-18.437863667371726
5.819659510296412,3.4199757209254087,7.645811022258105,3.0860320124421357,6.557981254726041,-19.248917310372043
5.853859267505666,3.485555533472669,7.676671342382527,2.8935428393384153,5.63913231160334,-20.00552650495319
5.888714822840393,3.5419468565887025,7.705606770775911,2.6934875742888833,4.763098348500948,-20.699349587498514
5.92413429140628,3.5895778400737117,7.7325416465188,2.486494078413898,3.9384347701914697,-21.323828840249266
5.960030069807017,3.6289621877756266,7.757406587302938,2.2732557900114054,3.1728985754451906,-21.874316127361745
5.996319691684773,3.6606911735300787,7.780139145203052,2.054512628737788,2.47331485676438,-22.34815101094994
6.032926603420074,3.6854243220977225,7.8006842714904305,1.8310311186282886,1.8454841203349308,-22.744688621622338
6.069780846641051,3.703879163301072,7.818994582676713,1.6035842324120653,1.294132744707865,-23.065276817906916
6.106819638274062,3.7168204907481504,7.835030425000833,1.3729314642329962,0.822907328961695,-23.313184672059098
6.143987843181543,3.7250495640377674,7.848759739643163,1.1397996175124052,0.434411954031244,-23.493486915710108
6.181238338821921,3.72939368357808,7.860157735818287,0.9048647483553042,0.1302855924628714,-23.612911439837973
6.218532275657702,3.7306965395027087,7.86920638330184,0.6687356339569245,-0.08868482018687757,-23.6796589970783
6.255839241052729,3.72980969130084,7.875893739641409,0.43193904398614147,-0.22242166780147285,-23.703205624744133
6.293137337965737,3.7275854746228254,7.880213130081271,0.19490698773870013,-0.2713915524954024,-23.694098751811584
6.330413192711966,3.7248715590978714,7.882162199958658,-0.042033999779415715,-0.23642602643363075,-23.663757281087275
6.367661908302944,3.722507298833535,7.881741859960863,-0.27867157259028846,-0.11853713702272482,-23.624283994958652
6.40488698129128,3.7213219274633076,7.87895514423496,-0.514914412539875,0.08126241047895623,-23.58829525130322
6.442100200565913,3.722134551568097,7.873806000109561,-0.7507973650529072,0.3621233442323806,-23.568767835231508
6.479321546081594,3.725755785010421,7.866298026459032,-0.9864850434052223,0.7234945207497623,-23.5788954683876
6.516579103931698,3.7329907302179186,7.8564331760249795,-1.2222739980890982,1.165209792366855,-23.6319368182995
6.553909011233877,3.744642828141587,7.844210436044088,-1.4585933662720931,1.6874999548105438,-23.741021046531387
6.591355439515293,3.7615178276896923,7.8296245023813675,-1.696003576737407,2.2908876460289695,-23.91885283682809
6.62897061779219,3.784426704149982,7.8126644666139935,-1.935192105105688,2.975897804652311,-24.177221306628333
6.6668148848336894,3.8141856821965052,7.793312545562936,-2.1769643181719713,3.74247493213352,-24.526158147015437
6.704956741655654,3.8516104315178405,7.771542902381217,-2.4222258996421258,4.588932302705637,-24.972497719167357
6.743472845970833,3.897499754544897,7.747320643384795,-2.671950876833799,5.5101557733006405,-25.517449291135655
6.782447843516281,3.9526013122779036,7.720601134616458,-2.9271253697451556,6.494633216255019,-26.152581098124802
6.82197385663906,4.017547644440453,7.691329880919006,-3.1886511807264037,7.519674859117123,-26.853330061639298
6.862149333083464,4.092744393031625,7.659443369111742,-3.4571844813427965,8.543960182086542,-27.568831209385394
6.903076777013781,4.17818399485249,7.624871524298314,-3.7328727934366506,9.496430006139363,-28.20669647941173
6.944858616962306,4.2731482949138835,7.587542796363947,-4.014939758230768,10.260939209011955,-28.611922329130923
6.987590099911445,4.375757687004003,7.547393398781639,-4.301058981522077,10.657944067511842,-28.541691936393146
7.031347676781485,4.482337127679122,7.504382808966419,-4.5864759008860085,10.429586941758316,-27.644930785316035
7.076171048058277,4.586632997096705,7.458518049957559,-4.862925208739169,9.244884790972216,-25.4699025267459
7.122037378029244,4.679081845006427,7.409888797870167,-5.117624234006628,6.755781631779769,-21.542721881038034
7.168828196479308,4.746639661324225,7.358712555530101,-5.333051452817008,2.737524148586905,-15.563303844405286
7.21629459309255,4.7740149028100936,7.305382041001931,-5.488684491261061,-2.6980515640211795,-7.702280260308198
7.264034742120651,4.747034387169882,7.25049519608932,-5.565707293864143,-8.941639620077733,1.176967678849668
7.31150508599235,4.657617990969105,7.194838123150678,-5.553937617075647,-14.987186456417133,9.66340435583284
7.35808126590204,4.507746126404934,7.139298746979922,-5.4573035735173185,-19.84759283631316,16.382754243896308
7.4031587271660895,4.309270198041802,7.084725711244748,-5.293476031078355,-22.995403593595984,20.61257342216614
7.446251429146508,4.079316162105842,7.0317909509339644,-5.087350296856694,-24.475018888376805,22.43394918899616
7.4870445907675665,3.834565973222074,6.980917447965398,-4.863010804966732,-24.685968941346346,22.42309040893432
7.525390250499787,3.5877062838086107,6.932287339915731,-4.638779900877389,-24.102461868387167,21.256621532515712
7.561267313337873,3.346681665124739,6.885899540906957,-4.426213685552232,-23.110751958057854,19.48422198192789
7.594734129989121,3.1155741455441603,6.8416374040514345,-4.231371465732953,-21.96923706781713,17.473924328622125
7.625889871444563,2.895881774865989,6.799323689394105,-4.056632222446732,-20.829179095383427,15.442175971277608
7.654848689193223,2.6875899839121544,6.758757367169637,-3.9022104627339558,-19.76908872999953,13.502682283237855
7.681724589032345,2.489899096612159,6.719735262542297,-3.7671836399015772,-18.82347076478948,11.707069141736378
7.706623579998467,2.301664388964264,6.682063426143282,-3.6501129484842134,-18.002244473459548,10.072315429819449
7.72964022388811,2.1216419442296686,6.64556229665844,-3.549389794186019,-17.302558775135758,8.597442821676282
7.7508566433304065,1.948616356478311,6.61006839871658,-3.463415365969256,-16.71553953009737,7.273060645362706
7.770342806895189,1.7814609611773373,6.575434245056887,-3.3906847595156293,-16.22996134558869,6.086578578467567
7.788157416506962,1.6191613477214504,6.5415273974617305,-3.3298189737309536,-15.834147502076538,5.024923674721173
7.804349029984177,1.460819872700685,6.508229207724421,-3.279569736983742,-15.516883512068416,4.075866834037882
7.818957228711184,1.3056510375800008,6.475433510354583,-3.238811068643363,-15.267797501396347,3.2285955770183783
7.832013739086984,1.1529730625660373,6.44304539966815,-3.2065251128731793,-15.07746221175497,2.4738907088886632
7.843543469712645,1.0021984404484876,6.410980148539418,-3.1817862057842925,-14.93735928856184,1.8041038352266576
7.85356545411713,0.8528248475628692,6.379162286481575,-3.163745167432026,-14.839782209937221,1.2130421580251478
7.862093702592759,0.704427025463497,6.347524834807255,-3.1516147458517745,-14.777718463128993,0.6958165991986914
7.869137972847394,0.556649840832207,6.316008687348737,-3.1446565798597876,-14.744731923174637,0.24868155700560826
7.874704471255716,0.40920252160046067,6.284562121550139,-3.1421697642897315,-14.734855722331005,-0.13112048209677937
7.87879649647172,0.2618539643771506,6.253140423907242,-3.143480969110699,-14.742500209539859,-0.4455042924406548
7.8814150361154915,0.11442896228175198,6.221705614216135,-3.1479360120351054,-14.762377641203688,-0.6956761676433398
7.882559325738309,-0.03319481413028491,6.1902262540957835,-3.1548927737115386,-14.789443762603298,-0.882258010974291
7.882227377597006,-0.1810892517563179,6.158677326358668,-3.1637153538212814,-14.818855732880449,-1.00540296650059
7.880416485079444,-0.3292778090851224,6.127040172820455,-3.1737693834862872,-14.845945526082595,-1.0649044387670323
7.877123706988592,-0.4777372643459483,6.095302478985592,-3.1844184278739576,-14.866207791982626,-1.0603001399129213
7.872346334345132,-0.6263993422657745,6.0634582947068525,-3.195021429273087,-14.875301068660796,-0.990972414976034
7.866082340922475,-0.7751523529523825,6.031508080414121,-3.2049311534228475,-14.869061147387919,-0.8562456259617163
7.858330817392951,-0.9238429644262617,5.999458768879893,-3.2134936096824647,-14.84352527674969,-0.6554808828762958
7.849092387748689,-1.0722782171937586,5.967323832783068,-3.2200484185112277,-14.794965755728395,-0.3881679359794388
7.8383696055767516,-1.2202278747510427,5.935123348597956,-3.223930097871022,-14.719931315969614,-0.05401361869385065
7.826167326829241,-1.3674271879107387,5.902884047619246,-3.2244702340579607,-14.61529455035005,0.3469741205844727
7.812493054950133,-1.5135801334142391,5.870639345278666,-3.221000492852116,-14.478303529706741,0.8144078184317518
7.797357253615991,-1.6583631687113065,5.838429340350145,-3.2128564146677987,-14.306635682471521,1.347449104034685
7.780773621928878,-1.8014295255360218,5.806300776203467,-3.1993819236274517,-14.098452008290467,1.9447457404814696
7.7627593266735175,-1.9424140456189265,5.774306956967193,-3.1799344662226368,-13.852449763533839,2.604378480577268
7.743335186217328,-2.080938543254265,5.7425076123049665,-3.153890681416864,-13.56791189031129,3.3238190007123825
