th1 (rad),w1 (rad/s),th2 (rad),w2 (rad/s),a1 (rad/s^2),a2 (rad/s^2)
5.456340134206681,0.48632926833510204,1.5310583381582819,0.5311182769588113,5.050100334955207,-6.382161684045135
5.461203426890032,0.5368302716846541,1.53636952092787,0.46729666011835996,4.95809720166215,-6.484073946024322
5.466571729606879,0.5864112437012756,1.5410424875290536,0.40245592065811675,4.865289760618837,-6.593161377920049
5.472435842043891,0.635064141307464,1.5450670467356347,0.33652430687891627,4.7720474975002345,-6.708973431772197
5.478786483456966,0.6827846162824663,1.5484322898044238,0.2694345725611943,4.678809304926278,-6.831034122229675
5.485614329619791,0.7295727093317291,1.5511266355300357,0.20112423133889756,4.586083956863226,-6.958842610263146
5.492910056713108,0.7754335489003614,1.5531378778434246,0.1315358052362661,4.49444995245285,-7.0918752811638255
5.500664392202112,0.8203780484248899,1.5544532358957872,0.06061705242462784,4.404554589633758,-7.229589522976032
5.508868172686361,0.8644235943212275,1.5550594064200336,-0.011678842805132483,4.317112152820285,-7.3714293865760405
5.517512408629573,0.9075947158494304,1.5549426179919823,-0.08539313667089289,4.2329011331930655,-7.516833270380886
5.526588355788067,0.9499237271813611,1.5540886866252734,-0.16056146937470175,4.152760444861332,-7.665243721920904
5.5360875930598805,0.9914513316299745,1.5524830719315263,-0.23721390659391078,4.077584654654561,-7.816119387032844
5.54600210637618,1.03222717817652,1.5501109328655873,-0.3153751004642392,4.0083183062327565,-7.968949068135764
5.556324378157946,1.0723103612388476,1.5469571818609449,-0.3950645911455969,3.9459494884594326,-8.123267779983488
5.567047481770334,1.111769856123442,1.5430065359494889,-0.4762972689454318,3.891502870750204,-8.278674619524882
5.578165180331569,1.1506848848309439,1.5382435632600346,-0.5590840151406806,3.846032501026074,-8.434852201953241
5.589672029179878,1.1891452098412045,1.5326527231086278,-0.643432537160213,3.8106147312760785,-8.59158736408211
5.601563481278291,1.2272513571539654,1.5262183977370256,-0.7293484108010341,3.7863416978765034,-8.748792805296151
5.61383599484983,1.2651147741327304,1.5189249136290153,-0.8168363388539956,3.77431583540892,-8.906529331493733
5.626487142591158,1.3028579324868197,1.5107565502404754,-0.9059016321689329,3.775645941238556,-9.065028393712605
5.639515721916026,1.3406143918992053,1.5016975339187861,-0.996551916106059,3.791445332207303,-9.224714674159
5.652921865835018,1.3785288452212783,1.4917320147577255,-1.088799062847649,3.822832644614091,-9.386228570070045
5.666707154287231,1.4167571716674192,1.480844024129249,-1.1826613485483495,3.8709358260657316,-9.55044856029672
5.680874726003905,1.4554665299280765,1.4690174106437657,-1.2781658341513167,3.936899856422727,-9.71851360899601
5.695429391303186,1.4948355284923038,1.4562357523022524,-1.3753509702412767,4.021898720234306,-9.891845962199248
5.710377746588109,1.535054515694647,1.4424822425998396,-1.4742694298632693,4.127152141407786,-10.072174922144386
5.725728291745056,1.5763260371087247,1.427739548301207,-1.574991179084713,4.25394758991617,-10.261562436609555
5.741491552116143,1.6188655130078864,1.41198963651036,-1.6776068034508087,4.403668087845741,-10.462431611718255
5.757680207246222,1.6629021938863437,1.3952135684758518,-1.7822311195679912,4.577826385079436,-10.677599542919156
5.774309229185085,1.7086804577371382,1.3773912572801719,-1.8890071149971828,4.778106148603113,-10.910316156408939
5.791396033762457,1.7564615192231694,1.3585011861302,-1.9981102765612722,5.006410915459085,-11.16431105749638
5.808960648954688,1.8065256283777602,1.3385200833645874,-2.109753387136236,5.264921693211144,-11.443850684760577
5.827025905238465,1.8591748453098718,1.317422549493225,-2.224191893983842,5.55616423830591,-11.753808351281851
5.845617653691564,1.914736487692931,1.2951806305533866,-2.3417299774966605,5.883087168638353,-12.099749978780784
5.864765018568493,1.9735673593793144,1.27176333077842,-2.4627274772844685,6.249152107170788,-12.488038420818066
5.884500692162286,2.0360588804510225,1.2471360560055753,-2.587607861492649,6.658436888637366,-12.925959079593953
5.904861280966796,2.102643249337396,1.2212599773906487,-2.7168674522885885,7.115752273848363,-13.421868769993944
5.9258877134601695,2.1738007720758796,1.1940913028677629,-2.851086139988528,7.626771215957326,-13.985367963526809
5.947625721180929,2.250068484235453,1.1655804414678776,-2.990939819623796,8.19816681326965,-14.62749272379241
5.970126406023283,2.3320501523681494,1.1356710432716397,-3.13721474686172,8.837749418775502,-15.360915142125252
5.993446907546964,2.4204276465559045,1.1042988958030224,-3.290823898282973,9.554582732499044,-16.200126864162936
6.017651184012523,2.5159734738808948,1.0713906568201927,-3.4528251669246024,10.359039099464953,-17.161553904981094
6.042810918751332,2.6195638648755444,1.0368624051509467,-3.6244407059744135,11.262718560198401,-18.263502570186155
6.069006557400088,2.732191050477528,1.0006179980912027,-3.807075731676275,12.278091782795938,-19.525748378198987
6.096328467904863,2.8549719683054877,0.9625472407744399,-4.002333215458265,13.41761149811703,-20.96842132079595
6.124878187587918,2.989148083286658,0.9225239086198572,-4.212017428666225,14.69183186963537,-22.609557682741464
6.154769668420785,3.136066401983012,0.880403734333195,-4.438113005493639,16.1057165732719,-24.460191427254575
6.186130332440616,3.297123567715731,0.8360226042782586,-4.682714919766185,17.65170838086308,-26.51501138710819
6.2191015681177735,3.4736406515243616,0.7891954550805967,-4.9478650336372665,19.29716355723783,-28.735253384970697
6.253837974633017,3.66661228709674,0.7397168047442241,-5.235217567486973,20.962404235434267,-31.018592834730246
6.290504097503984,3.8762363294510824,0.6873646290693544,-5.545403495834276,22.484393405472645,-33.14900843820178
6.329266460798495,4.101080263505809,0.6319105941110116,-5.876893580216294,23.562064241865183,-34.720907622581095
6.370277263433553,4.33670090592446,0.5731416583088487,-6.2241026564421045,23.689164878847432,-35.04532379931066
6.413644272492798,4.573592554712935,0.5109006317444276,-6.574555894435211,22.11310188745771,-33.091269245202746
6.459380198039927,4.794723573587512,0.44515507280007544,-6.905468586887239,17.92741817296254,-27.61169240037905
6.507327433775802,4.9739977553171375,0.37610038693120307,-7.18158551089103,10.470689016487194,-17.694628073214933
6.5570674113289735,5.078704645482009,0.30428453182229276,-7.35853179162318,0.06321071008342463,-3.783422223966391
6.607854457783794,5.079336752582844,0.23069921390606096,-7.396366013862844,-11.463735136698993,11.59313307207935
6.658647825309622,4.964699401215854,0.15673555376743253,-7.28043468314205,-21.40838110250199,24.716937933033183
6.708294819321781,4.750615590190834,0.08393120693601203,-7.033265303811718,-27.85793634625424,32.981991799253095
6.755800975223689,4.472036226728291,0.013598553897894841,-6.703445385819187,-30.64114690026229,36.19711979256422
6.800521337490972,4.165624757725668,-0.05343589996029703,-6.341474187893544,-30.768600432473708,35.78991422281942
6.842177585068229,3.8579387534009313,-0.11685064183923248,-5.98357504566535,-29.430102437494366,33.41387761859706
6.880756972602239,3.5636377290259875,-0.17668639229588598,-5.649436269479379,-27.485894381596843,30.25261655345754
6.916393349892498,3.288778785210019,-0.23318075499067978,-5.346910103944803,-25.424380057106003,26.970694110618183
6.949281137744599,3.034534984638959,-0.2866498560301278,-5.077203162838622,-23.47908450158793,23.88068891817569
6.979626487590989,2.7997441396230798,-0.33742188765851405,-4.838396273656865,-21.741022433494976,21.100480992084034
7.007623928987219,2.58233391528813,-0.3858058503950827,-4.627391463736024,-20.230493038672375,18.652734334009196
7.033447268140101,2.380028984901406,-0.43207976503244294,-4.440864120395932,-18.93619466279634,16.51860239946003
7.057247557989115,2.1906670382734426,-0.47648840623640226,-4.2756780964013315,-17.834788735059558,14.664301122669556
7.079154228371849,2.012319150922847,-0.5192451872004156,-4.129035085174636,-16.900072712775508,13.053378768421153
7.099277419881078,1.8433184237950917,-0.5605355380521619,-3.998501297490425,-16.106955268049262,11.651894458378997
7.117710604119029,1.682248871114599,-0.6005205510270661,-3.881982352906635,-15.432937512545726,10.430231589366846
7.134533092830175,1.5279194959891418,-0.6393403745561325,-3.777680037012966,-14.858449871249219,9.363390810787477
7.149812287790066,1.3793349972766495,-0.6771171749262621,-3.6840461289050914,-14.366700670807232,8.430650274456942
7.163605637762833,1.2356679905685772,-0.713957636215313,-3.599739626160522,-13.943347343921726,7.615008128323701
7.175962317668519,1.09623451712936,-0.7499550324769183,-3.523589544877285,-13.576132150759257,6.902592808834964
7.186924662839813,0.9604731956217674,-0.7851909279256911,-3.4545636167889353,-13.254542734266215,6.282117246701557
7.1965293947960305,0.8279277682791052,-0.8197365640935804,-3.3917424443219195,-12.969519212131209,5.744402220174348
7.204808672478822,0.6982325761577931,-0.8536539885367996,-3.334298422120176,-12.713211858928695,5.28197153932799
7.211790998240399,0.5711004575685061,-0.8869969727580014,-3.2814787067268965,-12.478785900772175,4.888712715340717
7.217502002816085,0.44631259856078437,-0.9198117598252703,-3.2325915795734894,-12.260267199863378,4.559594028675388
7.221965128801693,0.3237099265621506,-0.9521376756210052,-3.1869956392867356,-12.052422041192536,4.290428946960171
7.225202228067315,0.20318570615022524,-0.9840076320138725,-3.144091349817134,-11.850664590301742,4.077679970427551
7.227234085128817,0.08467906024720782,-1.0154485455120439,-3.1033145501128585,-11.650986278547213,3.9182954079765
7.2280808757312895,-0.03183080253826431,-1.0464816910131725,-3.0641315960330937,-11.44990212820181,3.809573954567446
7.2277625677059065,-0.14632982382028242,-1.0771230069735034,-3.0260358564874195,-11.24440975082159,3.7490531056475156
7.226299269467703,-0.2587739213284983,-1.1073833655383776,-2.988545325430944,-11.03195740979093,3.7344183616516085
7.223711530254418,-0.3690934954264076,-1.137268818792687,-2.951201141814428,-10.810418134856063,3.7634308471100932
7.220020595300154,-0.47719767677496827,-1.1667808302108311,-2.913566833343327,-10.578067426110104,3.8338714179011912
7.215248618532404,-0.5829783510360693,-1.1959164985442643,-2.875228119164315,-10.333562600475542,3.9434995902465078
7.209418835022043,-0.6863139770408248,-1.2246687797359075,-2.8357931232618503,-10.07592232340697,4.090025734667161
7.202555695251634,-0.7870732002748945,-1.253026710968526,-2.7948928659151786,-9.804505333798394,4.271094978206891
7.194684963248886,-0.8851182536128784,-1.280975639627678,-2.7521819161331096,-9.518987805949731,4.484281190303337
7.185833780712757,-0.9803081316723757,-1.308497458789009,-2.7073391042300763,-9.219339188854793,4.7270893320456135
7.176030699396033,-1.0725015235609237,-1.3355708498313097,-2.6600682109096203,-8.905796706938236,4.996964362218939
7.165305684160424,-1.161559490630306,-1.362171531940406,-2.610098567287431,-8.57883898401729,5.2913048480848275
7.1536900892541215,-1.2473478804704787,-1.3882725176132802,-2.5571855188065826,-8.239159451834231,5.607479448384967
7.141216610449416,-1.329739474988821,-1.4138443728013461,-2.501110724322733,-7.88764031802779,5.942844535684418
7.127919215699528,-1.408615878169099,-1.4388554800445734,-2.4416822789658887,-7.525327893302619,6.294761410150515
7.113833056917837,-1.4838691571021252,-1.4632723028342323,-2.3787346648643837,-7.153410017369704,6.6606118227147
7.098994365346816,-1.5554032572758223,-1.487059649482876,-2.3121285466372368,-6.7731961876159055,7.037810859025784
7.083440332774058,-1.6231352191519814,-1.5101809349492483,-2.241750438046979,-6.3861007983967,7.42381661637696
7.067208980582538,-1.6869962271359484,-1.532598439329718,-2.167512271883209,-5.99362966132523,7.816136508786423
7.0503390183111785,-1.7469325237492008,-1.5542735620485502,-2.089350906795345,-5.597369719316235,8.21233043323315
7.032869693073686,-1.8029062209423632,-1.5751670711165036,-2.0072276024630136,-5.198981611438167,8.610011395391515
7.014840630864263,-1.8548960370567449,-1.5952393471411337,-1.9211274885090983,-4.8001945128631425,9.00684450098289
6.9962916704936955,-1.9028979821853764,-1.6144506220262247,-1.8310590434992695,-4.402802483090039,9.4005454478873
6.977262690671842,-1.9469260070162768,-1.6327612124612174,-1.7370535890203964,-4.008661421509588,9.78887978839482
6.957793430601679,-1.9870126212313728,-1.6501317483514213,-1.6391647911364482,-3.619685663570042,10.169664260347835
6.937923304389366,-2.023209477867073,-1.6665233962627857,-1.5374681485329698,-3.2378432600543205,10.540771406822776
6.917691209610695,-2.0555879104676165,-1.6818980777481154,-1.432060434464742,-2.865149068259587,10.900138519559716
6.897135330506019,-2.0842394011502123,-1.6962186820927627,-1.323059049269145,-2.5036549441933755,11.245781661552535
6.876292936494516,-2.109275950592146,-1.7094492725854542,-1.2106012326536195,-2.1554365512935116,11.575815165811175
6.855200176988594,-2.1308303161050812,-1.7215552849119904,-1.0948430809955079,-1.822576580792015,11.888476593452674
6.833891873827543,-2.1490560819130016,-1.7325037157219454,-0.9759583150609811,-1.5071444942901355,12.182156693758458
6.812401313008413,-2.164127526855903,-1.7422632988725553,-0.8541367481233965,-1.211173229175878,12.45543347474038
6.7907600377398545,-2.176239259147662,-1.7508046663537893,-0.7295824133759927,-0.9366336282798982,12.70710910047938
6.768997645148378,-2.1856055954304607,-1.7581004904875492,-0.6025113223711989,-0.6854076416619913,12.936248016067292
6.747141589194073,-2.1924596718470806,-1.7641256037112611,-0.47314884221052594,-0.4592615767027413,13.142214493879091
6.725216992475603,-2.197052287614108,-1.7688570921333664,-0.341726697271735,-0.2598208221922472,13.32470772068084
6.703246469599462,-2.1996504958360306,-1.7722743591060837,-0.2084796200649266,-0.08854752808243936,13.48379261821198
6.681249964641101,-2.200535971116855,-1.7743591553067328,-0.07364169388280678,0.053277321961106114,13.619924812390401
6.659244604929933,-2.2000031978972436,-1.7750955722455608,0.06255755424109724,0.16456615091144494,13.733968526627784
6.63724457295096,-2.198357536388129,-1.7744699967031499,0.1998972395073751,0.24443027679538554,13.827206648289568
6.615260997587079,-2.195913233620175,-1.7724710243080761,0.3381693059902708,0.29217788004215844,13.901342768604929
6.5933018652508775,-2.1929914548197535,-1.7690893312481735,0.4771827336763201,0.3073040155518029,13.95849558271683
6.57137195070268,-2.1899184146642354,-1.7643175039114103,0.6167676895034884,0.2894725785391421,14.001186613094866
6.549472766556038,-2.187023688878844,-1.7581498270163753,0.756779555634437,0.23849045360319684,14.032322744004928
6.5276025296672495,-2.184638784342812,-1.7505820314600309,0.8971027830744862,0.15427434584801095,14.055175492337925
6.505756141823821,-2.183096040884332,-1.741611003629286,1.0376545379978654,0.036810989211559286,14.073359266908378
6.483925181414977,-2.182727930992216,-1.7312344582493073,1.1783881306669493,-0.11388846321179431,14.09081107297969
6.4620979021050555,-2.183866815624334,-1.7194505769426378,1.3192962413967462,-0.29783904312668885,14.111774202120667
6.4402592339488125,-2.186845206055601,-1.7062576145286703,1.4604139834179528,-0.5151368071123383,14.140788420190503
6.418390781888257,-2.1919965741267244,-1.6916534746944907,1.601821867619858,-0.7660172884085226,14.18268904424777
6.39647081614699,-2.1996567470108097,-1.675635256018292,1.7436487580623357,-1.0509171112077191,14.242617097362725
6.374474248676882,-2.210165918122887,-1.6581987684376687,1.8860749290359629,-1.370538496425904,14.326042453933308
6.352372589495653,-2.223871303087146,-1.639338019147309,2.029335353575296,-1.7259165149256226,14.438801521257773
6.330133876464782,-2.241130468236402,-1.619044665611556,2.1737233687878734,-2.118488941768645,14.587150492300966
6.307722571782418,-2.2623153576540886,-1.5973074319236773,2.319594873710883,-2.5501683150500996,14.777834433626866
6.285099418205877,-2.2878170408045895,-1.5741114831865686,2.4673732180471517,-3.0234151185250866,15.018171222062863
6.2622212477978305,-2.3180511919898406,-1.549437751006097,2.6175549302677803,-3.5413095842523314,15.316147223972068
6.239040735877932,-2.353464287832364,-1.5232622017034192,2.770716402507501,-4.107616943848236,15.68051794732285
6.215506092999608,-2.394540457270846,-1.4955550376783442,2.9275215819807294,-4.726836194270509,16.120900534415146
6.1915606884269,-2.441808819213551,-1.466279821858537,3.0887305873248807,-5.404214149936149,16.647833935033187
6.167142600234765,-2.4958509607129127,-1.435392515985288,3.2552089266752127,-6.145692298613571,17.272763562943897
6.142184090627636,-2.5573078836990484,-1.402840426718536,3.4279365623046516,-6.957729668049671,18.007874532794112
6.116611011790646,-2.626885180379545,-1.3685610610954895,3.6080153076325927,-7.8469036904161875,18.865641690859416
6.09034215998685,-2.7053542172837073,-1.3324809080191635,3.796671724541187,-8.819121641028149,19.85786987077988
6.063288617814013,-2.7935454336939887,-1.2945141907737516,3.9952504232489856,-9.878159636404488,20.993838925997544
6.035353163477073,-2.8923270300580337,-1.2545616865412619,4.205188812508961,-11.023057465235995,22.27690712362398
6.0064298931764935,-3.0025576047103937,-1.2125097984161723,4.427957883745201,-12.243600592023524,23.69851334994233
5.97640431712939,-3.124993610630629,-1.1682302195787204,4.6649430172446245,-13.512685943541252,25.227909442034022
5.945154381023084,-3.2601204700660418,-1.1215807894062741,4.917222111664965,-14.773826070705924,26.795186011845306
5.912553176322423,-3.407858730773101,-1.0724085682896245,5.185173971783418,-15.921651927520301,28.264574000037257
5.878474589014692,-3.5670752500483043,-1.0205568285717903,5.467819711783791,-16.773919549963264,29.395837781017725
5.842803836514209,-3.734814445547937,-0.9658786314539524,5.761778089593967,-17.03755503374876,29.79707573964766
5.80545569205873,-3.9051899958854244,-0.9082608505580126,6.059748846990444,-16.283363377194267,28.888931003756046
5.766403792099876,-4.068023629657367,-0.8476633620881082,6.348638157028004,-13.969350688418054,25.935347729852033
5.725723555803302,-4.2077171365415476,-0.7841769805178281,6.607991634326525,-9.583670180910161,20.239271742270983
5.683646384437887,-4.303553838350649,-0.7180970641745629,6.810384351749235,-2.9629483052855266,11.580711559325751
5.640610846054381,-4.333183321403505,-0.6499932206570705,6.926191467342493,5.31937819621225,0.7508389683876969
5.597279012840346,-4.279989539441382,-0.5807313059836456,6.93369985702637,13.873867501741303,-10.343653549690714
5.554479117445932,-4.141250864423969,-0.511394307413382,6.830263321529462,21.058743898017994,-19.46502169120441
5.513066608801692,-3.930663425443789,-0.44309167419808737,6.635613104617418,25.844318529690465,-25.23603556742356
5.473759974547254,-3.6722202401468844,-0.37673554315191315,6.383252748943183,28.179369686047988,-27.631636866430348
5.437037772145785,-3.3904265432864045,-0.31290301566248135,6.10693638027888,28.66125881800436,-27.508590810583936
5.403133506712921,-3.103813955106361,-0.25183365185969253,5.83185047217304,28.02168837552291,-25.89145100900683
5.372095367161857,-2.8235970713511316,-0.19351514713796214,5.572935962082973,26.835985180761,-23.576192969050553
5.343859396448346,-2.5552372195435216,-0.1377857875171324,5.3371740323924675,25.46711760305979,-21.059710474211656
5.318307024252911,-2.300566043512924,-0.08441404719320775,5.126576927650351,24.112608202803216,-18.609251924488344
5.2953013638177815,-2.0594399614848915,-0.03314827791670424,4.940484408405468,22.865716229383313,-16.349155841623947
5.274706964202933,-1.8307827991910584,0.016256566167350446,4.776992849989229,21.76119923642441,-14.324792155476084
5.256399136211022,-1.6131708068268142,0.06402649466724274,4.633744928434468,20.80359816255303,-12.54166225370724
5.2402674281427535,-1.4051348252012839,0.11036394395158741,4.508328305897396,19.98313311845908,-10.987129166054356
