th1 (rad),w1 (rad/s),th2 (rad),w2 (rad/s),a1 (rad/s^2),a2 (rad/s^2)
2.775984847524111,-2.519057390688257,2.0644234784578113,1.449933193176015,-3.4930092161678736,-1.8408517001693
2.7507942736172284,-2.553987482849936,2.0789228103895714,1.431524676174322,-3.7611922319146287,-1.5579556399975196
2.725254398788729,-2.5915994051690823,2.0932380571513147,1.415945119774347,-4.047505793981276,-1.2591723599544282
2.6993384047370386,-2.632074463108895,2.107397508349058,1.4033533961748026,-4.3509115859897705,-0.9464447251874362
2.6730176601059497,-2.675583578968793,2.1214310423108063,1.3938889489229283,-4.669651389771279,-0.6229083484604967
2.646261824316262,-2.7222800928665056,2.1353699318000356,1.3876598654383232,-5.001055133731122,-0.2931852814104987
2.6190390233875966,-2.772290644203817,2.149246530454419,1.3847280126242183,-5.34132811853354,0.0362919132751378
2.5913161169455585,-2.8257039253891523,2.163093810580661,1.3850909317569697,-5.685330699065929,0.3569458669194751
2.563059077691667,-2.8825572323798117,2.176944719898231,1.3886603904261645,-6.026375073057363,0.6577468022984417
2.534233505367869,-2.9428209831103853,2.1908313238024926,1.395237858449149,-6.356079114879772,0.9249909773177906
2.504805295536765,-3.006381774259183,2.204783702386984,1.404487768222327,-6.664335345859195,1.142251100932564
2.474741477794173,-3.073025127717775,2.218828580069207,1.4159102792316525,-6.939470701485792,1.2906103371138598
2.444011226516995,-3.1424198347326326,2.232987682861524,1.428816382602791,-7.168682705973236,1.3493061234033465
2.4125870281696686,-3.214106661792365,2.2472758466875518,1.4423094438368245,-7.338828892424679,1.296897492020939
2.380445961551745,-3.287494950716612,2.26169894112592,1.4552784187570338,-7.437605327195167,1.113010369301717
2.3475710120445785,-3.3618710039885635,2.2762517253134904,1.466408522450051,-7.455066631069505,0.7805944882109195
2.313952302004693,-3.4364216702992585,2.290915810537991,1.4742144673321602,-7.385316872398096,0.28844707357411536
2.2795880853017003,-3.5102748390232397,2.305657955211313,1.4770989380679014,-7.228065429206181,-0.3664386426320601
2.244485336911468,-3.5825554933153017,2.320428944591992,1.4734345516415808,-6.989649439182077,-1.177278656240573
2.208659781978315,-3.6524519877071224,2.3351632901084076,1.461661765079175,-6.683141970252845,-2.127214920212871
2.1721352621012437,-3.719283407409651,2.349779907759199,1.4403896158770464,-6.327334167593865,-3.1906619678367876
2.134942428027147,-3.7825567490855896,2.3641838039179697,1.4084829961986784,-5.944674270525482,-4.336179561497284
2.0971168605362913,-3.8420034917908445,2.3782686338799564,1.3651212005837057,-5.558561647448685,-5.5303112576637465
2.058696825618383,-3.8975891082653313,2.3919198458857935,1.3098180880070682,-5.190590973094369,-6.74153780825104
2.0197209345357297,-3.949495017996275,2.4050180267658643,1.2424027099245578,-4.858328801509998,-7.943502164010078
1.9802259843557668,-3.998078306011375,2.41744205386511,1.162967688284457,-4.573996182793875,-9.116952944063007
1.940245201295653,-4.043818267839313,2.4290717307479546,1.071798158843827,-4.344134149128545,-10.250274643276015
1.89980701861726,-4.087259609330599,2.4397897123363927,0.9692954124110669,-4.1700736053870235,-11.33884058247066
1.858934422523954,-4.128960345384469,2.4494826664605034,0.8559070065863603,-4.0488976367756395,-12.383622199969244
1.8176448190701093,-4.169449321752225,2.458041736526367,0.7320707845866679,-3.9745785515764065,-13.389504280101026
1.775950325852587,-4.209195107267989,2.465362444372234,0.5981757417856576,-3.9390492216939244,-14.363651935448063
1.7338583747799072,-4.248585599484929,2.4713442017900906,0.45453922243117695,-3.9330722509727405,-15.314130858620178
1.691372518785058,-4.287916321994656,2.4758895940144026,0.30139791384497516,-3.9468610587813107,-16.24885498963097
1.6484933555651113,-4.327384932582469,2.478903573152852,0.13890936394866546,-3.9704672183952257,-17.174850214281037
1.6052195062392867,-4.367089604766422,2.4802926667923386,-0.03283913819414491,-3.9939786775088932,-18.09777941623628
1.5615486101916225,-4.407029391541511,2.479964275410397,-0.2138169323565077,-4.00758210374761,-19.021661990370454
1.5174783162762073,-4.447105212578987,2.477826106086832,-0.4040335522602122,-4.001538915255508,-19.948726785635518
1.4730072641504175,-4.487120601731542,2.47378577056423,-0.6035208201165674,-3.9661157808994916,-20.879351216347754
1.4281360581331022,-4.526781759540537,2.4677505623630642,-0.8123143322800449,-3.8915008767151225,-21.8120546573445
1.3828682405376969,-4.565696768307688,2.4596274190402636,-1.0304348788534898,-3.7677290418377214,-22.743528067091894
1.33721127285462,-4.6033740587260645,2.4493230702517286,-1.2578701595244088,-3.5846327961164093,-23.668692918486773
1.2911775322673593,-4.639220386687229,2.4367443686564845,-1.4945570887092765,-3.331831788954819,-24.580790857025875
1.244785328400487,-4.672538704576777,2.4217987977693918,-1.7403649972795352,-2.9987701382083203,-25.471511353586532
1.1980599413547193,-4.70252640595886,2.4043951477965964,-1.9950801108154006,-2.5748086988318875,-26.331168336313272
1.1510346772951308,-4.728274492947179,2.384444346688442,-2.258391794178533,-2.0493770181167217,-27.148938642774166
1.103751932365659,-4.748768263128346,2.361860428746657,-2.529881180606275,-1.4121871178831569,-27.913175272123265
1.0562642497343755,-4.7628901343071774,2.3365616169405943,-2.8090129333275073,-0.6535079315298328,-28.611806879595093
1.0086353483913038,-4.769425213622476,2.3084714876073194,-3.095131002123458,0.23550502326104433,-29.23283174100415
0.960941096255079,-4.7670701633898656,2.277520177586085,-3.3874593195335,1.2624354318561746,-29.76490954791281
0.9132703946211803,-4.754445809071304,2.24364558439075,-3.685108415012628,2.433204356644379,-30.198047997441567
0.8657259365304673,-4.73011376550486,2.2067945002406235,-3.9870888949870436,3.751664636263909,-30.524373500737433
0.8184247988754186,-4.692597119142221,2.1669236112907533,-4.292332629994418,5.219222444887725,-30.7389669534143
0.7714988276839965,-4.640404894693344,2.1240002849908093,-4.599722299528561,6.834523492457995,-30.840737137733335
0.7250947787370631,-4.5720596597687635,2.0780030619955236,-4.908129670905894,8.593246378310063,-30.83329694649887
0.6793741821393754,-4.486127195985663,2.028921765286465,-5.2164626403708825,10.488047970144809,-30.725802397223767
0.6345129101795187,-4.381246716284215,1.976757138882756,-5.52372066434312,12.508704088108537,-30.533712544358675
0.5907004430166766,-4.256159675403129,1.9215199322393248,-5.829057789786707,14.642481921987144,-30.27943088110704
0.5481388462626453,-4.109734856183258,1.8632293543414578,-6.131852098597777,16.874767237605404,-29.99279599279727
0.5070414977008127,-3.940987183807204,1.80191083335548,-6.43178005852575,19.18994828005777,-29.711400112835232
0.4676316258627407,-3.7490877010066264,1.7375930327702225,-6.7288940596541025,21.57252774580371,-29.48072550575868
0.43014074885267445,-3.5333624235485894,1.6703040921736814,-7.02370131471169,24.008391278454006,-29.354092825390662
0.39480712461718853,-3.293278510764049,1.6000670790265645,-7.317242242965596,26.486098942446404,-29.392398185652826
0.36187433950954806,-3.028417521339585,1.5268946565969086,-7.611166224822124,28.99796991955142,-29.663549171426055
0.33159016429615223,-2.738437822144071,1.4507829943486874,-7.907801716536385,31.54056761344291,-30.241342830871346
0.30420578607471155,-2.423032146009642,1.3717049771833236,-8.2102151448451,34.11389523803997,-31.203163007004203
0.27997546461461514,-2.081893193629242,1.2896028257348726,-8.522246774915141,36.718048133261014,-32.625123731044674
0.2591565326783227,-1.714712712296632,1.2043803579857213,-8.848498012225587,39.34498834261436,-34.57179975264612
0.2420094055553564,-1.3212628288704884,1.1158953778634655,-9.194216009752049,41.96107194257702,-37.074843104765314
0.22879677726665154,-0.9016521094447182,1.023953217765945,-9.564964440799702,44.47232850183207,-40.08963995616387
0.21978025617220437,-0.4569288244263975,0.9283035733579479,-9.96586084036134,46.65881040925792,-43.41091953184479
0.2152109679279404,0.009659279666181686,0.8286449649543345,-10.39997003567979,48.05846184368704,-46.51906171106915
0.21530756072460222,0.49024389810305213,0.7246452645975365,-10.86516065279048,47.78682777523928,-48.334446633011055
0.22020999970563274,0.968112175855445,0.6159936580696317,-11.348505119120592,44.338345668615005,-46.93423780114795
0.2298911214641872,1.411495632541595,0.5025086068784258,-11.817847497132071,35.618061808824606,-39.55903521791621
0.24400607778960315,1.7676762506298411,0.3843301319071051,-12.213437849311234,19.811499330069047,-23.728191324346973
0.26168284029590155,1.9657912439305316,0.2621957534139927,-12.450719762554703,-2.4489739037870897,-0.09318695503460314
0.28134075273520687,1.9413015048926607,0.1376885557884457,-12.45165163210505,-26.30135009713489,25.22486639294926
0.3007537677841335,1.678288003921312,0.013172039467395188,-12.199402968175557,-45.037401523522284,43.85764768130003
0.3175366478233466,1.227913988686089,-0.10882199021436038,-11.760826491362556,-55.385921788355,52.115550179822186
0.32981578771020753,0.6740547708025391,-0.22643025512798592,-11.239670989564335,-58.74522334422731,52.32898156470226
0.33655633541823293,0.08660253736026591,-0.3388269650236293,-10.716381173917313,-58.105087321696814,48.611147272458894
0.3374223607918356,-0.4944483358567022,-0.4459907767628024,-10.230269701192723,-55.71613763821579,43.87516417864019
0.33247787743326856,-1.0516097122388601,-0.5482934737747296,-9.791518059406322,-52.75436157662558,39.54208890240656
0.32196178031087996,-1.5791533280051158,-0.6462086543687928,-9.396097170382255,-49.70801222346396,36.130548699506356
0.3061702470308288,-2.0762334502397555,-0.7401696260726154,-9.034791683387192,-46.729575095103506,33.74010232979958
0.28540791252843123,-2.5435292011907906,-0.8305175429064873,-8.697390660089196,-43.832009434259945,32.30428482822046
0.2599726205165233,-2.98184929553339,-0.9174914495073793,-8.374347811806992,-40.98137553060553,31.701291177321337
0.23015412756118941,-3.3916630508394454,-1.001234927625449,-8.057334900033778,-38.13725023145841,31.797051158671493
0.19623749705279497,-3.7730355531540294,-1.0818082766257868,-7.739364388447063,-35.26922190186228,32.45987529701183
0.15850714152125467,-4.125727772172652,-1.1592019205102575,-7.414765635476945,-32.36270540026445,33.56436233059341
0.11724986379952815,-4.449354826175297,-1.2333495768650269,-7.079122012171011,-29.4198958810828,34.99201051367411
0.07275631553777517,-4.7435537849861245,-1.304140796986737,-6.72920190703427,-26.4583696886701,36.63145122913364
0.02532077768791393,-5.008137481872826,-1.3714328160570797,-6.362887394742933,-23.508447608906145,38.379269326137845
-0.024760597130814327,-5.243221957961887,-1.435061690004509,-5.9790947014815545,-20.609886426170643,40.14153208595668
-0.0771928167104332,-5.449320822223593,-1.4948526370193245,-5.577679380621988,-17.808268095752602,41.83579338739714
-0.13168602493266912,-5.627403503181119,-1.5506294308255444,-5.159321446748017,-15.151390870746155,43.3932119131287
-0.1879600599644803,-5.778917411888581,-1.6022226452930246,-4.72538932761673,-12.68593521738036,44.76041304633283
-0.24574923408336613,-5.905776764062384,-1.6494765385691919,-4.277785197153402,-10.454638655490927,45.90078317992166
-0.30480700172399,-6.010323150617293,-1.692254390540726,-3.818777365354185,-8.494155304630159,46.7949834195776
-0.3649102332301629,-6.095264703663595,-1.7304421641942678,-3.350827531158409,-6.833699415622592,47.44058477360929
-0.42586288026679886,-6.163601697819821,-1.7639504395058518,-2.876421683422316,-5.494485267344654,47.85083850940898
-0.48749889724499706,-6.218546550493268,-1.792714656340075,-2.3979132983282265,-4.489887597434347,48.052684091292775
-0.5496843627499297,-6.263445426467611,-1.8166937893233575,-1.9173864574152988,-3.826164008649315,48.08414510502187
-0.6123188170146059,-6.301707066554105,-1.8358676538975105,-1.4365450063650802,-3.503504858822952,47.99125448363541
-0.675335887680147,-6.336742115142334,-1.8502331039611613,-0.956632461528726,-3.5170996380925588,47.82456788157578
-0.7387033088315703,-6.371913111523259,-1.8597994285764485,-0.47838678271296825,-3.8578122303799844,47.635147531564904
-0.802422439946803,-6.410491233827059,-1.8645832964035782,-0.0020353073973192193,-4.511904992252548,47.469595403659746
-0.8665273522850736,-6.455610283749585,-1.8646036494775515,0.47266064663927826,-5.458987229215964,47.36322882565541
-0.9310834551225695,-6.510200156041744,-1.8598770430111586,0.9462929348958324,-6.666911655767259,47.32974282004142
-0.996185456682987,-6.576869272599417,-1.8504141136622003,1.4195903630962468,-8.081631147498216,47.344614723748336
-1.0619541494089813,-6.657685584074399,-1.8362182100312379,1.89303651033373,-9.6090963058265,47.318155843318976
-1.1285310052497253,-6.753776547132665,-1.8172878449279006,2.36621806876692,-11.08561834247105,47.05322582233511
-1.196068770721052,-6.864632730557375,-1.7936256642402315,2.836750326990271,-12.23461846168869,46.18487204758329
-1.2647150980266257,-6.986978915174261,-1.7652581609703288,3.298599047466104,-12.616454947192798,44.11178012755066
-1.3345848871783683,-7.113143464646189,-1.7322721704956678,3.739716848741611,-11.604057556195334,39.966473860491774
-1.4057163218248303,-7.229184040208143,-1.6948750020082517,4.139381587346529,-8.468062382118324,32.7432026966624
-1.4780081622269117,-7.313864664029326,-1.6534811861347865,4.466813614313153,-2.696857607018194,21.760379262742465
-1.551146808867205,-7.340833240099508,-1.6088130499916549,4.684417406940578,5.4361805035380515,7.4715614960805645
-1.6245551412682,-7.2864714350641275,-1.561968875922249,4.759133021901383,14.46547917154792,-7.958242109533444
-1.6974198556188413,-7.1418166433486485,-1.5143775457032351,4.679550600806048,22.201528248990112,-21.330359149533525
-1.7688380220523279,-6.919801360858747,-1.4675820396951746,4.466247009310713,27.016394574034962,-30.259883998954667
-1.8380360356609153,-6.649637415118398,-1.4229195696020676,4.163648169321166,28.679595060826493,-34.38360941100368
-1.9045324098120993,-6.362841464510133,-1.3812830879088558,3.8198120752111295,28.004079283343064,-34.86321646130507
-1.9681608244572006,-6.0828006716767025,-1.3430849671567444,3.471179910598079,26.027012862202362,-33.20992009362183
-2.028988831173968,-5.822530543054679,-1.3083731680507635,3.1390807096618607,23.531852776000733,-30.587391962726663
-2.0872141366045147,-5.587212015294671,-1.2769823609541449,2.833206790034594,20.974553750954623,-27.69338283465898
-2.1430862567574613,-5.377466477785125,-1.2486502930537988,2.556272961688004,18.57402203637052,-24.881915932467
-2.1968609215353125,-5.19172625742142,-1.2230875634369187,2.307453802363334,16.412641487879693,-22.30470278918939
-2.248778184109527,-5.027599842542624,-1.2000130254132855,2.0844067744714403,14.504196207278321,-20.00847073638261
-2.2990541825349533,-4.88255788046984,-1.179168957668571,1.8843220671076142,12.831999185206287,-17.990605509918005
-2.3478797613396516,-4.754237888617777,-1.1603257369974949,1.7044160120084342,11.368252157522456,-16.228087669389776
-2.3954221402258296,-4.640555367042553,-1.1432815768774105,1.5421351353145365,10.083147825945012,-14.691601165901842
-2.441827693896255,-4.539723888783103,-1.1278602255242651,1.395219123655518,8.948763157141748,-13.351967311806368
-2.4872249327840863,-4.450236257211685,-1.11390803428771,1.2616994505374544,7.940438818839913,-12.182776095271265
-2.531727295356203,-4.370831869023286,-1.1012910397823354,1.1398716895847416,7.037008811184604,-11.161206083893427
-2.575435614046436,-4.30046178091144,-1.089892322886488,1.0282596287458072,6.220547427717512,-10.26802709486729
-2.6184402318555504,-4.2382563066342644,-1.07960972659903,0.9255793577971343,5.475949402126194,-9.487270218906636
-2.660822794921893,-4.1834968126130025,-1.0703539330210587,0.8307066556080679,4.790486060782681,-8.805794384473717
-2.7026577630480233,-4.135591952005176,-1.062046866464978,0.7426487117633307,4.153396763268223,-8.212852430466283
-2.744013682568075,-4.094057984372494,-1.0546203793473448,0.6605201874586679,3.5555356563324967,-7.699698275678636
-2.7849542624118,-4.058502627809169,-1.0480151774727582,0.5835232047018816,2.9890761658914236,-7.259247682673633
-2.825539288689892,-4.028611866150254,-1.0421799454257394,0.5109307278751453,2.4472684861296017,-6.885791961504768
-2.8658254073513945,-4.004139181288958,-1.037070638146988,0.4420728082600976,1.9242430641501995,-6.574758556538818
-2.905866799164284,-3.984896750647456,-1.032649910064387,0.3763252226947094,1.4148530188392172,-6.322510719441775
-2.9457157666707587,-3.970748220459064,-1.02888665783744,0.31310011550029165,0.9145492702329259,-6.126178365857876
-2.9854232488753496,-3.9616027277567345,-1.025755656682437,0.2518383318417129,0.4192832787796769,-5.9835127515932784
-3.025039276152917,-3.957409894968938,-1.02323727336402,0.1920032043257801,-0.07456657105182911,-5.892758316626344
-3.0646133751026063,-3.9581555606794563,-1.0213172413207623,0.13307562115951665,-0.5702478726225465,-5.852535724106901
-3.104194930709401,-3.963858039405682,-1.0199864851091671,0.07455026391844764,-1.0706684147780559,-5.8617306900318615
-3.1438335111034577,-3.9745647235534625,-1.0192409824699826,0.015932957018129024,-1.578412989050471,-5.919383647285267
-3.183579158338992,-3.990348853443967,-1.0190816528998012,-0.04326087945472365,-2.0957434444995546,-6.024575640144161
-3.223482646873432,-4.011306287888963,-1.0195142616943484,-0.10350663585616526,-2.624582174191933,-6.176306148105311
-3.2635957097523214,-4.037552109630882,-1.02054932805291,-0.16526969733721839,-3.1664788932806767,-6.373358852326675
-3.30397123084863,-4.069216898563688,-1.0222020250262822,-0.22900328586048513,-3.7225604134156836,-6.614151759175493
-3.344663399834267,-4.1064425026978455,-1.024492057884887,-0.29514480345224003,-4.293463161016605,-6.896568671445262
-3.3857278248612457,-4.149377134308011,-1.0274435059194094,-0.36411049016669267,-4.879248465661609,-7.217769848070798
-3.4272215962043258,-4.198169618964627,-1.0310846108210763,-0.43628818864740065,-5.479301201685709,-7.573980923307946
-3.469203292393972,-4.252962630981484,-1.0354474927075503,-0.5120279978804801,-6.0922132400027635,-7.96026086868802
-3.5117329187037867,-4.313884763381512,-1.0405677726863551,-0.5916306065673603,-6.715654382557136,-8.370252058593001
-3.5548717663376017,-4.381041307207083,-1.0464840787520286,-0.6753331271532903,-7.3462350033859005,-8.795918383623354
-3.5986821794096726,-4.4545036572409415,-1.0532374100235615,-0.7632923109895239,-7.9793664553829435,-9.227280814219466
-3.643227215982082,-4.534297321794771,-1.0608703331334568,-0.8555651191317185,-8.609127303382229,-9.65216371678952
-3.6885701892000298,-4.620388594828593,-1.069425984324774,-0.9520867562996137,-9.228145419623779,-10.055969304163236
-3.734774075148316,-4.7126700490248306,-1.07894685188777,-1.0526464493412462,-9.82750766266404,-10.421501463507546
-3.7819007756385643,-4.810945125651471,-1.0894733163811825,-1.1568614639763217,-10.396709946575427,-10.72886333824243
-3.830010226895079,-4.9149122251172255,-1.1010419310209456,-1.264150097358746,-10.923660700178079,-10.955454896264898
-3.879159349146251,-5.024148832119006,-1.113683431994533,-1.373704646321395,-11.394749830567449,-11.0760968299614
-3.929400837467441,-5.1380963304246805,-1.127420478457747,-1.4844656146210091,-11.79499337954669,-11.06330529051264
-3.980781800771688,-5.2560462642201475,-1.1422651346039572,-1.5950986675261356,-12.108261466372896,-10.88773836798943
-4.033342263413889,-5.377128878883877,-1.1582161212792186,-1.70397605120603,-12.317594602125608,-10.51883062441504
-4.0871135522027275,-5.5003048249051325,-1.1752558817912788,-1.8091643574501803,-12.405612120760429,-9.925627578836409
-4.142116600451779,-5.624360946112737,-1.1933475253657806,-1.9084206332385445,-12.355017471715206,-9.077829217736108
-4.198360209912906,-5.7479111208298885,-1.212431731698166,-1.9991989254159055,-12.149209293390507,-7.947051330483379
