th1 (rad),w1 (rad/s),th2 (rad),w2 (rad/s)
0.971692609948144,-2.440932247441138,1.053851194505948,0.5981600579300534
0.9472832874737326,-2.5122428596981523,1.0598327950852486,0.5791458672899105
0.922160858876751,-2.5781681439103714,1.0656242537581477,0.552082794148356
0.8963791774376473,-2.6384115251603375,1.0711450816996313,0.5164450781852334
0.8699950621860439,-2.6927656021742052,1.0763095324814835,0.47184772748276826
0.8430674061643019,-2.741117892874641,1.0810280097563112,0.418059845144588
0.8156562272355554,-2.7834496889783766,1.085208608207757,0.3550080111157748
0.7878217303457716,-2.8198282404618196,1.0887586883189146,0.2827698234953338
0.7596234479411534,-2.850393344128626,1.091586386553868,0.20155894634725458
0.7311195144998672,-2.8753400306340895,1.0936019760173405,0.11170393746047258
0.7023661141935263,-2.8948993277600876,1.0947190153919453,0.013623584241096678
0.6734171209159254,-2.9093190165276908,1.0948552512343563,-0.09219856144106606
0.6443239307506485,-2.9188459651965597,1.0939332656199456,-0.2052381898702884
0.6151354710986829,-2.923711143441747,1.0918808837212428,-0.3249511820926008
0.5858983596642655,-2.9241179065333425,1.088631371900317,-0.45079061808807797
0.5566571805989321,-2.9202336900402615,1.084123465719436,-0.5822196019736696
0.5274548436985295,-2.9121849207242483,1.0783012696996994,-0.7187201476856626
0.498332994491287,-2.9000547414602025,1.0711140682228428,-0.8597986783897487
0.469332447076685,-2.8838830527846273,1.0625160814389454,-1.0049888429671985
0.44049361654883873,-2.8636683631473057,1.0524661930092734,-1.153852379846092
0.4118569329173657,-2.839370983693804,1.0409276692108125,-1.305978703385245
0.38346322308042763,-2.810917175156009,1.02786788217696,-1.46098378727617
0.35535405132886755,-2.778203934865944,1.0132580443041983,-1.618508800203963
0.32757201198020813,-2.741104188889129,0.9970729563021586,-1.7782188289239549
0.3001609700913168,-2.6994722216367166,0.9792907680129191,-1.9398019125165649
0.27316624787494964,-2.6531492312757576,0.9598927488877534,-2.1029685125149826
0.24663475556219205,-2.601968944911805,0.9388630637626036,-2.2674514566236024
0.220615066113074,-2.5457632656992972,0.9161885491963676,-2.4330063163250673
0.19515743345608103,-2.484367958544568,0.8918584860331169,-2.599412107010801
0.17031375387063535,-2.417628416240739,0.8658643649630089,-2.7664721288565843
0.14613746970822797,-2.3454055883905007,0.838199643674443,-2.934014692479811
0.12268341382432296,-2.267582206304155,0.8088594967496449,-3.1018933898762016
0.1000075917612814,-2.18406950348384,0.7778405628508829,-3.2699864719343976
0.078166896726443,-2.094814718862209,0.7451406981315389,-3.4381947718054158
0.05721874953782091,-1.9998097842085776,0.7107587504134848,-3.606437460660546
0.03722065169573514,-1.8991017428872812,0.6746943758068793,-3.774644730994466
0.018229634266862325,-1.7928056269186774,0.6369479284969346,-3.9427462666586495
0.0003015779976755506,-1.6811207297790465,0.5975204658303481,-4.110654078502197
-0.016509629300114913,-1.5643514382308197,0.5564139250453262,-4.278237974657964
-0.03215314368242311,-1.4429339890949886,0.5136315452987466,-4.445291639517419
-0.046582483573372996,-1.3174706159799725,0.46917862890357237,-4.611487114436763
-0.05975718973317272,-1.188772396780371,0.42306375775920474,-4.776315598820871
-0.07164491370097643,-1.0579114494610977,0.375300601770996,-4.939013260393737
-0.08222402819558741,-0.9262815542101644,0.3259104691670586,-5.09847269399484
-0.09148684373768906,-0.7956632641212209,0.2749257422271102,-5.253144543704324
-0.09944347637890127,-0.6682845246916774,0.22239429679006695,-5.40094042712576
-0.10612632162581805,-0.546860475646199,0.16838489251880934,-5.539158128213241
-0.11159492638228004,-0.43458720691218033,0.11299331123667691,-5.664462161285765
-0.11594079845140184,-0.3350566883333459,0.05634868962381927,-5.772963470040668
-0.1192913653347353,-0.25205993228248685,-0.0013809450765874115,-5.860443157690809
-0.12181196465756017,-0.18926113482532075,-0.0599853766534955,-5.922745326422086
-0.12370457600581337,-0.14976322660526534,-0.11921282991771637,-5.956314857690769
-0.12520220827186604,-0.13563972382973621,-0.17877597849462407,-5.958784020661146
-0.1265586055101634,-0.14755508833131328,-0.23836381870123552,-5.929449030654974
-0.12803415639347654,-0.18460039649518842,-0.2976583090077852,-5.869471653630341
-0.12988016035842842,-0.24441246869231842,-0.35635302554408865,-5.781718795783626
-0.1323242850453516,-0.3235440430436153,-0.4141702135019249,-5.670285601346135
-0.13555972547578776,-0.41796624270560023,-0.47087306951538627,-5.539859624385498
-0.13973938790284376,-0.5235598917213586,-0.5262716657592412,-5.395112791394592
-0.14497498682005736,-0.6364911003520769,-0.5802227936731872,-5.24025340508056
-0.15133989782357812,-0.7534326044835251,-0.6326253277239928,-5.078782133868198
-0.15887422386841338,-0.8716467373790159,-0.6834131490626748,-4.913425367826489
-0.16759069124220355,-0.9889718644375743,-0.7325474027409397,-4.746187553165442
-0.1774804098865793,-1.1037558488616672,-0.780009278272594,-4.578464247744582
-0.18851796837519597,-1.2147696565562474,-0.8257939207500399,-4.411173064491584
-0.20066566494075844,-1.3211213968073119,-0.8699056513949557,-4.244877304259588
-0.21387687890883156,-1.4221807934070028,-0.9123544244375515,-4.079890762107938
-0.22809868684290158,-1.5175174257765678,-0.953153332058631,-3.9163607307067694
-0.24327386110066726,-1.6068524679822203,-0.9923169393656986,-3.7543306452145213
-0.25934238578048946,-1.6900220611276928,-1.0298602458178439,-3.593785591541307
-0.2762426063917664,-1.7669500094914574,-1.065798101733257,-3.4346842338105525
-0.293912106486681,-1.837627607798088,-1.1001449440713624,-3.276980385720581
-0.31228838256466185,-1.902098746121133,-1.1329147479285682,-3.1206368911814195
-0.3313093700258732,-1.9604488247708307,-1.1641211168403824,-2.965633906483185
-0.3509138582735815,-2.0127963654564653,-1.1937774559052143,-2.8119731773082757
-0.37104182192814616,-2.059286499551574,-1.2218971876782971,-2.6596795027565228
-0.3916346869236619,-2.1000857463730873,-1.2484939827058623,-2.508800270036637
-0.41263554438739275,-2.135377670999098,-1.2735819854062287,-2.359403712098661
-0.43398932109738375,-2.1653591422312837,-1.2971760225272153,-2.2115763691452095
-0.4556429125196966,-2.1902370065956216,-1.3192917862186675,-2.0654201085235364
-0.47754528258565276,-2.2102250621463777,-1.3399459873039028,-1.9210489638319888
-0.4996475332071165,-2.2255412630681257,-1.3591564769422226,-1.7785859839919076
-0.5219029458377977,-2.236405117966631,-1.3769423367821416,-1.6381602298488573
-0.5442669970174641,-2.243035265395114,-1.3933239390806302,-1.4999040148274674
-0.5666973496714152,-2.2456472227131843,-1.408322979228905,-1.3639504539664775
-0.589153821898547,-2.24445131121785,-1.4219624837685696,-1.2304313600305894
-0.6115983350107256,-2.2396507634490987,-1.4342667973688754,-1.0994755047739417
-0.6339948426452165,-2.231440019050112,-1.4452615524166148,-0.9712072467375459
-0.6563092428357177,-2.2200032146086164,-1.4549736248839902,-0.8457455134346799
-0.6785092749818038,-2.205512871308185,-1.463431080018337,-0.7232031148485413
-0.7005644036948856,-2.1881287825490428,-1.4706631111668225,-0.603686356395442
-0.7224456915203761,-2.167997102355104,-1.476699974730777,-0.4872949125361297
-0.7441256625439271,-2.145249634619982,-1.4815729238561384,-0.3741219167487259
-0.7655781588901269,-2.1200033231880684,-1.4853141430236256,-0.2642542193643198
-0.7867781921220076,-2.0923599434367115,-1.4879566852172688,-0.15777276162458034
-0.8077017915563748,-2.06240599734141,-1.4895344128335146,-0.054753012135728876
-0.8283258515297889,-2.030212815792629,-1.490081942954872,0.04473458936092774
-0.8486279796877152,-1.9958368739231995,-1.4896345970612628,0.14062423622552978
-0.8685863484269472,-1.9593203270427098,-1.4882283546990074,0.23285446152249062
-0.8881795516973743,-1.9206917760197495,-1.4858998100837826,0.32136799885529665
-0.9073864694575717,-1.879967271093951,-1.4826861300952296,0.40611184484232665
-0.9261861421685113,-1.837151561583574,-1.4786250116468065,0.48703756370742857
-0.944557657784347,-1.7922395952278927,-1.4737546360097322,0.5641018645071662
-0.9624800537366259,-1.7452182644823073,-1.4681136173646605,0.6372674680804945
-0.979932236381449,-1.6960683876427785,-1.4617409426838555,0.7065042636141818
-0.9968929202578768,-1.6447669001598333,-1.4546759000477136,0.7717907338448182
-1.0133405892594751,-1.5912892162441121,-1.4469579927092655,0.8331156039512709
-1.0292534814219163,-1.5356117036902113,-1.4386268366697528,0.8904796433639927
-1.0446095984588184,-1.4777141971294814,-1.4297220402361128,0.943897523987005
-1.0593867404301132,-1.417582458571433,-1.4202830649962428,0.993399615337357
-1.0735625650158276,-1.3552104814103478,-1.4103490688428693,1.0390335799897596
-1.087114669829931,-1.2906025274965698,-1.3999587330429717,1.080865624727248
-1.1000206951048968,-1.2237747885956554,-1.3891500767956992,1.1189812667942338
-1.1122584429908533,-1.154756575089639,-1.3779602641277569,1.1534854924635152
-1.1238060087417496,-1.083590956506065,-1.3664254092031216,1.1845022170140287
-1.1346419183068104,-1.0103348093755977,-1.3545803870329813,1.2121729994530184
-1.1447452664005664,-0.9350582655290888,-1.3424586570384511,1.2366550181681297
-1.1540958490558573,-0.8578435945215688,-1.33009210685677,1.2581183697703306
-1.162674285001073,-0.7787835929651941,-1.3175109231590667,1.2767428063984878
-1.1704621209307249,-0.6979795867129893,-1.3047434950950818,1.2927140705313063
-1.1774419167978547,-0.6155391753606441,-1.2918163543897687,1.3062200158977542
-1.183597308551461,-0.5315738601007826,-1.2787541542307912,1.3174467154208027
-1.188913047152469,-0.4461966949679694,-1.2655796870765832,1.326574751761073
-1.1933750141021486,-0.35952008906177657,-1.2523139395589724,1.3337758648427178
-1.1969702149927663,-0.27165386592310437,-1.2389761809105453,1.3392100975384749
-1.1996867536519973,-0.18270365919664483,-1.2255840799351605,1.3430235403542266
-1.2015137902439637,-0.09276969458692948,-1.2121538445316182,1.3453467335788145
-1.202441487189833,-0.001945980114519269,-1.19870037719583,1.3462937454670032
-1.2024609469909782,0.08968009771996627,-1.18523743974116,1.3459619110021142
-1.2015641460137785,0.1820277934927117,-1.1717778206311389,1.3444321896847458
-1.1997438680788512,0.2750226731909406,-1.1583334987342915,1.3417700833353137
-1.1969936413469418,0.3685959781264162,-1.1449157979009383,1.3380270457006198
-1.1933076815656776,0.46268372797638857,-1.131535527443932,1.3332423135613336
-1.1886808442859136,0.5572256072572138,-1.1182031043083187,1.3274450924522598
-1.1831085882133414,0.6521636754384847,-1.104928653383796,1.3206570372871045
-1.1765869514589566,0.7474409350635479,-1.091722083010925,1.3128949774459915
-1.1691125421083213,0.8429997856484738,-1.078593133236465,1.3041738457522831
-1.1606825442518365,0.9387803846210777,-1.0655513947789423,1.2945097799964058
-1.1512947404056257,1.0347189308109663,-1.0526062969789782,1.2839233732623176
-1.140947551097516,1.130745881552583,-1.0397670632463551,1.2724430544857335
-1.1296400922819902,1.2267841117585998,-1.0270426327014979,1.2601085827825056
-1.1173722511644042,1.3227470227408122,-1.0144415468736727,1.2469746375901265
-1.104144780936996,1.4185366104452246,-1.0019718004977713,1.2331144810856711
-1.0899594148325438,1.5140415074499658,-0.9896406556869146,1.2186236592476296
-1.0748189997580442,1.6091350208389912,-0.9774544190944383,1.2036236929532396
-1.0587276495496543,1.7036731991299248,-0.9654181821649059,1.188265690415104
-1.041690917558355,1.797492975876002,-0.9535355252607549,1.1727337870748786
-1.0237159877995952,1.8904104552016578,-0.9418081873900062,1.157248289216501
-1.0048118832475785,1.9822194247908536,-0.9302357044978411,1.1420683641034821
-0.98498968899967,2.0726902035746697,-0.9188150208568063,1.127494084350132
-0.9642627869639233,2.161568952654304,-0.907540080013305,1.113867600636771
-0.9426470974373803,2.2485775960443686,-0.8964014040069372,1.1015731892789467
-0.9201613214769366,2.333414508884463,-0.8853856721141478,1.0910359054934429
-0.896827176388092,2.4157561302967543,-0.8744753130592133,1.082718576605472
-0.8726696150851244,2.495259641127496,-0.8636481272931587,1.077116899609934
-0.8477170186738494,2.5715668088385173,-0.8528769582970593,1.0747524715288377
-0.8220013505854642,2.644309039743799,-0.842129433581771,1.076163683679704
-0.7955582601880262,2.7131135924218936,-0.831367796744974,1.0818945526642303
-0.7684271242638073,2.7776107995262915,-0.8205488512183317,1.0924817354859502
-0.7406510162685445,2.837442027596262,-0.8096240338634721,1.1084401696415664
-0.7122765959925819,2.8922679902531994,-0.7985396321670565,1.1302479692308005
-0.6833539160900499,2.941776937548288,-0.7872371524747485,1.1583313670442128
-0.653936146714567,2.9856921922484583,-0.7756538388043064,1.193050590536566
-0.6240792247920824,3.023778508277401,-0.7637233328989407,1.2346875714235517
-0.5938414397093085,3.055846795493365,-0.7513764571847051,1.2834363003440095
-0.5632829717543748,3.0817568856830437,-0.738542094181265,1.3393964518486001
-0.5324654028975444,3.1014181924253696,-0.7251481296627791,1.4025706410708167
-0.5014512209732908,3.114788317948642,-0.7111224232520709,1.4728653670524603
-0.47030333779380434,3.121869854030958,-0.6963937695815463,1.5500953921872167
-0.4390846392534948,3.122705783585318,-0.6808928156596742,1.633991044821436
-0.4078575814176416,3.1173739943542143,-0.6645529052114598,1.7242077449552136
-0.37668384147409945,3.105981456704012,-0.6473108277619077,1.8203369576483022
-0.34562402690705935,3.0886585962288136,-0.6291074581854247,1.9219177742860756
-0.3147374409447712,3.0655543207626668,-0.6098882804425639,2.0284483928853523
-0.28408189773714454,3.036832058151556,-0.5896037965137104,2.1393968907164953
-0.253713577155629,3.0026670447101176,-0.5682098276065455,2.2542108286879423
-0.2236869067085278,2.963244991233685,-0.5456677193196661,2.372325373043342
-0.19405445679619096,2.9187621556421535,-0.5219444655892327,2.493169748172028
-0.16486683523976942,2.869426775266429,-0.4970127681075124,2.6161719346207004
-0.13617256748710513,2.815461758908547,-0.4708510487613054,2.740761595877138
-0.10801794989801966,2.757108506619291,-0.443443432802534,2.8663712591771136
-0.08044686483182675,2.6946317084196756,-0.41477972021076287,2.9924357965655277
-0.053500547747629995,2.62832496504087,-0.3848553622451076,3.1183902623733593
-0.027217298097221294,2.5585170663062766,-0.353671459621374,3.243666153244949
-0.0016321274341585292,2.4855787476099316,-0.32123479808892447,3.3676861787474115
0.023223660041940788,2.4099297133135047,-0.2875579363014503,3.489857676732919
0.047322957175075835,2.3320456590144625,-0.2526593595341211,3.609564890389102
0.07064341376522046,2.2524649343955483,-0.21656371063023008,3.7261604549437837
0.09316806310917594,2.17179435869676,-0.17930210608079225,3.8389566304001597
0.11488600669614354,2.090713530407904,-0.14091253977679066,3.9472170656992094
0.13579314200022258,2.0099767690575843,-0.10144036911979856,4.050150181273062
0.15589290969079841,1.9304116119321475,-0.06093886730706794,4.146905584175465
0.1751970258101199,1.8529126048927567,-0.01946981146531329,4.236575228494211
0.19372615185904746,1.7784290422897704,0.02289594081962882,4.318201214877628
0.21151044228194515,1.7079454187888026,0.0660779529684051,4.390792064142089
0.2285898964698332,1.6424537599702849,0.109985873609826,4.4533488601007045
0.24501443406953605,1.582917785128851,0.15451936221083304,4.504901715009567
0.26084361192082456,1.5302300453633846,0.19956837936092872,4.5445555293327216
0.2761459123744584,1.4851646719329423,0.24501393465425594,4.571542115425074
0.2909975590937878,1.4483299030969392,0.2907293558085067,4.585273762436647
0.3054808581247572,1.4201257264044485,0.33658209343287315,4.585391761233635
0.3196821153888017,1.4007123238718782,0.3824360110452095,4.571802875600782
0.3336892386275205,1.3899942091094837,0.42815403980121736,4.544697675502325
0.34758918071861533,1.3876229722012685,0.4736010165562406,4.504547080838298
0.361465410440628,1.393018768315439,0.5186464873646236,4.452076927786138
0.3753955981237824,1.4054077812564507,0.563167256642485,4.388223986009964
0.38944967593634694,1.4238706171802786,0.6070494965025847,4.314079656216718
0.4036883821081497,1.4473954740956663,0.6501902930647518,4.230828883457546
0.41816233684910636,1.474930125503063,0.6924985818993273,4.139691477121077
0.432911638104137,1.5054279891801516,0.7338954966705381,4.041871391992963
0.44796591799593855,1.537885328168801,0.7743142105904677,3.9385172469271708
0.4633447712776266,1.5713684366405807,0.8136993830597394,3.8306950975882312
0.4790584556440324,1.605031129230211,0.8520063340356218,3.7193726975830614
0.4951087669363345,1.6381238122384483,0.8892000610114523,3.6054133706237805
0.511490005058719,1.669995875762111,0.9252541947176901,3.4895771452650783
0.5281899638163401,1.7000932166012757,0.9601499661703409,3.3725268173374685
0.5451908959823528,1.7279525244851954,0.9938752343437156,3.2548369131668085
0.5624704212272048,1.7531936662311478,1.0264236034753838,3.137003963608199
0.5800023578895163,1.7755111763349463,1.0577936431114658,3.019456948811884
0.5977574696528657,1.7946655635067679,1.0879882125995848,2.902567170257499
0.6157041252879334,1.8104748964429056,1.1170138843021598,2.786657122255333
0.6338088742523624,1.8228069445806998,1.1448804555247132,2.6720081668502904
0.6520369436981694,1.831572015690784,1.171600537193216,2.558866973947914
0.6703526638550773,1.8367165421971101,1.1971892069326953,2.447450787559816
0.6887198292770484,1.8382174114752048,1.2216637148082934,2.3379516346367635
0.7071020033918005,1.83607700252395,1.245043231154661,2.230539618288649
0.72546277341704,1.8303188746195016,1.2673486273375476,2.1253654427591937
0.743765962163235,1.8209840470324123,1.2886022817651395,2.022562311076636
0.7619758026335591,1.8081278084862245,1.3088279048759057,1.922247323273113
0.7800570807184214,1.7918169979593657,1.3280503781086368,1.824522487085572
0.797975250698015,1.7721277028826452,1.3462956029794926,1.7294754364244365
0.8156965277268414,1.7491433256734261,1.363590357343737,1.6371799369938913
0.8331879609835757,1.7229529742706844,1.3799621567136757,1.5476962440070705
0.8504174907262826,1.6936501366053878,1.3954391191537465,1.4610713642828497
0.8673539920923364,1.66133160266788,1.410049832796575,1.3773392641987716
0.8839673081190152,1.6260966010432023,1.4238232254385625,1.2965210559101261
0.9002282741294473,1.5880461195616398,1.4367884359976637,1.2186251867449367
0.9161087353250637,1.5472823821649793,1.448974687865113,1.1436476505249866
0.9315815591467135,1.5039084563310023,1.460411164370363,1.0715722345109635
0.9466206437100235,1.4580279675302252,1.4711268867154725,1.0023708115027579
0.9612009233853258,1.409744899291409,1.4811505948305002,0.9360036831447722
0.9752983723782399,1.3591634595843014,1.4905106316619479,0.8724199775231294
0.9888900069740829,1.306387996423341,1.499234831437179,0.8115581015651291
1.0019538869383162,1.2515229478643908,1.5073504124528303,0.7533462464668719
1.0144691164169601,1.1946728138953473,1.514883874917499,0.6977029423248912
1.0264158445559135,1.1359421400786571,1.521860904340748,0.6445376563076641
1.0377752659567,1.0754355051419089,1.5283062809038246,0.5937514270772976
1.0485296210081192,1.0132575069735161,1.5342437951745975,0.5452375267868198
1.0586621960778544,0.9495127436004774,1.5396961704424657,0.49888214087505944
1.068157323513859,0.8843057876407133,1.5446849918512162,0.4545650551059969
1.0770003813902662,0.8177411543754335,1.5492306424022761,0.41216033889784065
1.0851777929340205,0.7499232649295314,1.5533522457912545,0.3715370139948457
1.0926770255833158,0.6809564070464466,1.557067615931203,0.3325596979728113
1.0994865896537802,0.6109446965814914,1.560393212910931,0.2950892129385937
1.1055960366195952,0.5399920431157221,1.563344105040317,0.2589831510644918
1.1109959570507524,0.46820212303057496,1.565933936550962,0.22409639024785
1.1156779782810582,0.3956783630179194,1.5681749004534404,0.19028155514243256
