th1 (rad),w1 (rad/s),th2 (rad),w2 (rad/s),a1 (rad/s^2),a2 (rad/s^2)
4.911957437084053,1.0552246718688756,4.065931427007575,-2.513256011971253,5.6030282784924905,4.941601603886023
4.922509683802741,1.1112549546538004,4.0407988668878625,-2.4638399959323927,5.63981222512934,5.038915343532517
4.933622233349279,1.167653076905094,4.016160466928539,-2.4134508424970673,5.684379463708161,5.146665129703666
4.94529876411833,1.2244968715421756,3.992025958503568,-2.3619841912000306,5.736431188113662,5.266330985472732
4.957543732833751,1.2818611834233122,3.968406116591568,-2.3093208813453034,5.795773652695502,5.399309217336234
4.9703623446679845,1.3398189199502673,3.945312907778115,-2.255327789171941,5.862304197873001,5.546930090915815
4.983760533867487,1.3984419619289972,3.9227596298863956,-2.199858488262783,5.935997078256307,5.710474339603452
4.9977449534867775,1.4578019327115603,3.900761045003768,-2.1427537448667486,6.016889334542606,5.89118796000592
5.012322972813893,1.5179708260569864,3.8793335075551005,-2.0838418652666895,6.105066795733376,6.0902948842113105
5.027502681074463,1.5790214940143201,3.8584950889024334,-2.0229389164245766,6.200650175626946,6.309007207813674
5.043292896014606,1.6410279957705896,3.8382656997381877,-1.95984884434644,6.3037811318485995,6.548532701419156
5.059703175972311,1.7040658070890755,3.818667211294723,-1.8943635173322484,6.414608081800795,6.810079349295568
5.076743834043202,1.7682118879070834,3.7997235761214005,-1.8262627238392928,6.533271513467287,7.09485664884092
5.094425952922273,1.8335446030417564,3.7814609488830078,-1.7553141573508837,6.659888486629427,7.404073375076255
5.11276139895269,1.9001434879080505,3.763907807309499,-1.6812734236001212,6.794535989585161,7.73893147148338
5.131762833831771,1.9680888478039023,3.7470950730734978,-1.6038841088852873,6.937232797012052,8.100615678175718
5.15144372230981,2.037461175774023,3.731056231984645,-1.52287795210353,7.087919466617648,8.490278456832842
5.17181833406755,2.1083403704401995,3.7158274524636097,-1.4379751675352017,7.246436117459054,8.909019725929369
5.192901737771952,2.1808047316147903,3.7014477007882576,-1.348884970275908,7.4124976544415455,9.357860887499656
5.2147097850880995,2.2549297081592057,3.6879588510854986,-1.2553063614009115,7.585666146031391,9.837712617398529
5.237259082169691,2.3307863696195197,3.6754057874714894,-1.1569292352269263,7.765320131432258,10.349335915869153
5.260566945865887,2.4084395709338424,3.66383649511922,-1.0534358760682347,7.950620736273265,10.893295987179892
5.284651341575225,2.487945778296575,3.653302136358538,-0.9445029161964358,8.140474619890746,11.46990865081029
5.309530799358191,2.5693505244954826,3.6438571071965735,-0.8298038296883329,8.333493970363476,12.079179197978355
5.335224304603146,2.6526854641991173,3.63555906889969,-0.7090120377085494,8.527954012619597,12.720733912115588
5.361751159245137,2.7379650043253134,3.6284689485226047,-0.5818046985873935,8.721748805097953,13.393744884420714
5.38913080928839,2.825182492376293,3.6226509015367307,-0.44786724974318637,8.912346472629542,14.096849285744263
5.417382634212153,2.9143059571025884,3.618172229039299,-0.30689875688574375,9.096745452253918,14.82806490580886
5.446525693783179,3.0052734116251276,3.6151032414704414,-0.15861810782765515,9.271433800699281,15.584704529965876
5.47657842789943,3.0979877496321206,3.613517060392165,-0.0027710625279963874,9.432354101941128,16.36329256501209
5.507558305395751,3.192311290651532,3.6134893497668847,0.16086186312212453,9.57487698171776,17.159488199785514
5.539481418302266,3.2880600604687094,3.615097968398106,0.3324567451199797,9.69378662956375,17.96802021846845
5.572362018906953,3.384997926764347,3.618422535849306,0.5121369473046642,9.783281980641162,18.782639273235667
5.606211998174597,3.4828307465707584,3.623543905322353,0.6999633400370209,9.83699724277348,19.596093843312442
5.6410403056403045,3.581200718998493,3.630543538722723,0.8959242784701453,9.848045190810094,20.400136121268204
5.676852312830289,3.679681170906594,3.639502781507425,1.0999256396828274,9.809086024589055,21.18556353985133
5.713649124539355,3.7777720311524847,3.650502037904253,1.3117812750813407,9.7124235606473,21.942300478294282
5.75142684485088,3.8748962667589577,3.6636198506550666,1.5312042798642835,9.5501291113395,22.65952282063486
5.7901758075184695,3.970397557872353,3.678931893453709,1.7577995080706321,9.314191673271006,23.32582552846147
5.829879783097193,4.063539474605063,3.6965098885344156,1.9910577633552469,8.996691151286761,23.929430405423194
5.870515177843244,4.153506386117931,3.716420466167968,2.2303520674094788,8.589989510700406,24.458428072035247
5.912050241704423,4.239406281224935,3.738723986842063,2.474936348129831,8.086933259970165,24.901045256826716
5.954444304516673,4.320275613824636,3.7634733503233613,2.7239468006980982,7.481059814020707,25.2459263367942
5.997647060654919,4.395086211964843,3.7907128183303422,2.9764060640660404,6.766800325255832,25.482417113224187
6.041597922774567,4.462754215217402,3.820476878971003,3.2312302351982822,5.939672630189899,25.600839463983384
6.086225464926741,4.522150941519301,3.8527891813229855,3.487238629838116,4.996459997589,25.592747922655626
6.131446974341935,4.572115541495191,3.887661567621367,3.7431661090646724,3.9353741039699517,25.45116323243639
6.177168129756886,4.61146928253489,3.9250932287120137,3.9976777413890363,2.756203593422999,25.170782974517007
6.223282822582235,4.6390313184691205,3.965070006125904,4.249385571134207,1.4604519976067296,24.748174593175758
6.269673135766927,4.6536358384451875,4.007563861837246,4.4968673170659645,0.051469900115210326,24.181960397536393
6.316209494151378,4.654150537446339,4.052532535007906,4.738686921041328,-1.4654147206225223,23.473006199790312
6.362750999525842,4.639496390240114,4.099919404218319,4.973416983039231,-3.0827675652258613,22.624624092372095
6.409145963428243,4.608668714587855,4.1496535740487115,5.199663223962951,-4.790926319638347,21.64279482565281
6.455232650574121,4.560759451391472,4.201650206288341,5.416091172219479,-6.577900464013823,20.536406336059716
6.500840245088036,4.494980446751334,4.255811118010536,5.621455235580076,-8.429316422794674,19.317493052326984
6.545790049555549,4.410687282523387,4.312025670366337,5.814630166103346,-10.328440801667941,18.001447457999728
6.589896922380783,4.307402874506708,4.370171972027371,5.994644640683344,-12.256320434633217,16.607163622828477
6.63297095112585,4.184839670160375,4.430118418434204,6.160716276911629,-14.192078598372227,15.157065157372829
6.674819347827454,4.042918884176653,4.49172558120332,6.312286928485356,-16.11340001517632,13.676970369268775
6.715248536669221,3.88178488402489,4.554848450488174,6.449056632178044,-17.997222175160097,12.195757577069134
6.75406638550947,3.701812662273289,4.619339016809954,6.5710142079487355,-19.820627744085435,10.744814222659217
6.791084512132202,3.503606384832435,4.685049158889441,6.6784623501753275,-21.56190510198337,9.357283024915523
6.826120575980527,3.287987333812601,4.751833782391195,6.772035180424483,-23.201716018101227,8.067152936259076
6.8590004493186525,3.0559701736315885,4.81955413419544,6.852706709787074,-24.724286927546952,6.908276213619365
6.889560151054968,2.808727304356119,4.888081201293311,6.921789471923268,-26.11852892816174,5.913418949697821
6.917647424098529,2.5475420150745016,4.957299096012544,6.980923661420246,-27.37899547897325,5.113465399731577
6.943122844249275,2.273752060284769,5.027108332626746,7.032058315417562,-28.506606886603368,4.536893491969323
6.965860364852122,1.9886859914187354,5.097428915780921,7.077427250337256,-29.509104494716908,4.2096207534009125
6.9857472247663095,1.6935949464715663,5.168203188284294,7.119523457871265,-30.401239401713497,4.1552907673592445
7.002683174231025,1.3895825524544314,5.239398422863006,7.161076365544858,-31.204743034239645,4.396036726776658
7.01657899975557,1.0775351221120348,5.311009186518455,7.205036732812625,-31.948162238944885,4.9537272817401945
7.02735435097669,0.758053499722586,5.383059553846581,7.254574005630026,-32.66666275256198,5.851674736452114
7.034934885973916,0.43138687219696614,5.455605293902882,7.3130907529945475,-33.40190541329646,7.116765008723804
7.039248754695886,0.09736781806400152,5.528736201432827,7.384258403081786,-34.202070244725554,8.781940694946483
7.040222432876526,-0.24465288438325405,5.602578785463645,7.472077810031251,-35.12202590032393,10.888902593333368
7.037775904032693,-0.5958731433864934,5.677299563563957,7.580966835964584,-36.22347242481039,13.490723785320755
7.031817172598828,-0.9581078676345973,5.753109231923602,7.715874073817791,-37.57452382616654,16.653648378493973
7.022236093922482,-1.3338531058962628,5.8302679726617805,7.882410557602731,-39.24741968924365,20.456358832720234
7.0088975628635195,-1.7263273027886994,5.909092078237808,8.086974145929933,-41.3113734776801,24.982758871153724
6.991634289835632,-2.1394410375655006,5.989961819697107,8.33680173464147,-43.81394995315818,30.29939092941085
6.970239879459977,-2.5775805370970826,6.073329837043522,8.63979564393558,-46.73680633285309,36.39814782130474
6.944464074089006,-3.0449486004256134,6.159727793482878,9.003777122148627,-49.89696575764201,43.06439011726131
6.91401458808475,-3.5439182580020336,6.249765564704364,9.43442102332124,-52.74165131808503,49.59761331832547
6.878575405504729,-4.071334771182884,6.344109774937577,9.930397156504496,-53.97210772102543,54.291903431383325
6.837862057792901,-4.611055848393138,6.443413746502622,10.473316190818329,-51.038862972316835,53.72689546963431
6.791751499308969,-5.121444478116307,6.548146908410805,11.010585145514671,-40.10154333438056,42.67773456147803
6.740537054527806,-5.522459911460112,6.6582527598659516,11.437362491129452,-18.20382141536189,17.058783592482524
6.685312455413205,-5.704498125613731,6.772626384777246,11.607950327054278,11.40902643156223,-18.81056431033758
6.6282674741570675,-5.590407861298109,6.888705888047789,11.419844683950902,37.62320850063821,-49.98020287801012
6.5723633955440866,-5.214175776291727,7.002904334887298,10.920042655170802,51.40734467950924,-64.52291082124992
6.5202216377811695,-4.700102329496635,7.1121047614390065,10.274813546958303,53.781569285435836,-64.1825399499884
6.473220614486203,-4.162286636642277,7.21485289690859,9.632988147458418,50.40798918796669,-56.737475586583564
6.43159774811978,-3.6582067447626097,7.3111827783831735,9.065613391592583,45.39673750603641,-47.641365998304074
6.395015680672154,-3.2042393697022455,7.401838912299099,8.589199731609542,40.549737995859836,-39.168176310702584
6.362973286975132,-2.798741989743647,7.487730909615195,8.197517968502515,36.41787614111158,-31.92713146697222
6.3349858670776955,-2.4345632283325314,7.56970608930022,7.878246653832793,33.06143799427085,-25.90536526905639
6.31064023479437,-2.1039488483898228,7.648488555838548,7.6191930011422295,30.387190759043325,-20.915640336009957
6.289600746310472,-1.8000769407993895,7.72468048584997,7.41003659778213,28.272404594417708,-16.753939525132708
6.271599976902478,-1.5173528948552124,7.798780851827791,7.242497202530803,26.604231508999924,-13.245230849883296
6.256426447953926,-1.251310579765213,7.871205823853099,7.11004489403197,25.288769929948202,-10.250891619127458
6.243913342156274,-0.9984228804657311,7.942306272793419,7.007535977840695,24.250279274749566,-7.664679312795006
6.233929113351617,-0.7559200877182355,8.012381632571826,6.930889184712745,23.4278201787199,-5.406408756840498
6.226369912474435,-0.5216418859310364,8.081690524418953,6.87682509714434,22.77174057721433,-3.4161465754418123
6.221153493615124,-0.29392448015889316,8.150458775390396,6.842663631389922,22.240698698777244,-1.6495606496981352
6.218214248813535,-0.07151749317112072,8.218885411704296,6.82616802489294,21.799328819086757,-0.07437529061003692
6.217499073881823,0.14647579501974686,8.287147091953225,6.82542427198684,21.416481380351335,1.332290943860509
6.218963831832021,0.3606406088232602,8.355401334673093,6.838747181425445,21.063936881613312,2.585935312476626
6.222570237920253,0.5712799776393933,8.423788806487348,6.864606534550211,20.715504844803192,3.696221320853613
6.228283037696647,0.7784350260874252,8.49243487183285,6.9015687477587475,20.346440206507722,4.668218058553771
6.2360673879575215,0.9818994281525024,8.561450559310439,6.948250928344285,19.933127838534666,5.503438015512702
6.245886382239046,1.1812307065378491,8.630933068593881,7.003285308499412,19.452998094188395,6.200750267978976
6.257698689304425,1.375760687479733,8.700965921678876,7.0652928111792015,18.884641865918777,6.757218251259246
6.271456296179222,1.5646071061389208,8.771618849790668,7.132864993691794,18.208093404694324,7.168887379733593
6.287102367240611,1.7466880401858642,8.842947499727586,7.20455386748913,17.405244628612937,7.4315271640478535
6.30456924764247,1.9207404864719937,8.914993038402477,7.2788691391296085,16.460348067824903,7.541316025690517
6.32377665250719,2.0853439671502425,8.987781729793772,7.354282299386513,15.360559789643947,7.495446551576126
6.344630092178693,2.238949565046682,9.061324552787637,7.429236764902274,14.096471705838338,7.292626727530049
6.3670195878291596,2.3799142821050654,9.135616920436659,7.502163032177575,12.662587192124555,6.933460429779509
6.39081873065021,2.506540154026311,9.210638550758436,7.57149763647537,11.057706062123419,6.420707984924908
6.415884132190473,2.6171172146475454,9.28635352712319,7.635704716324619,9.285203238723897,5.759451771606288
6.442055304336948,2.7099692470347843,9.362710574286435,7.693299234040682,7.353205531951253,4.957215985684054
6.469154996807296,2.783501302354297,9.439643566626842,7.742871393897522,5.274685838315157,4.024104500350637
6.496990009830839,2.8362481607374486,9.517072280565817,7.783112438901028,3.0674962762223994,2.9730166163353737
6.5253524914382135,2.8669231234996726,9.594903404954827,7.812842605064382,0.7543461273636994,1.8199711981377527
6.55402172267321,2.8744665847733097,9.67303183100547,7.83104231704576,-1.6373024918741574,0.5845162586882212
6.582766388520943,2.8580935598545683,9.751342254175928,7.836887479632643,-4.075490251385017,-0.7098658625838903
6.611347324119489,2.817338657340718,9.829711128972255,7.829788821006804,-6.524272027261119,-2.035508472109159
6.639520710692896,2.752095937068107,9.908009017182323,7.809433736285712,-8.94459905744765,-3.3606476054430137
6.667041670063576,2.66264994649363,9.98610335454518,7.7758272602312815,-11.295657279203938,-4.6500099475282
6.693668169528513,2.549693373701591,10.063861627147494,7.729327160755999,-13.536674172815028,-5.865990485313346
6.719165103265529,2.4143266319734407,10.141154898755055,7.670667255902866,-15.629101821904165,-6.970388687830999
6.743308369585264,2.258035613754399,10.217861571314083,7.600963369024556,-17.538974707968336,-7.926535904126182
6.7658887257228075,2.0826458666747154,10.29387120500433,7.521698009983294,-19.239160887111026,-8.701533608437353
6.786715184389554,1.8902542578036052,10.369088185104163,7.43468267389892,-20.71120333861932,-9.268267454995192
6.805617726967591,1.683142224417412,10.443435011843151,7.341999999348968,-21.946496362953084,-9.606884118118247
6.822449149211765,1.463677260787881,10.516855011836642,7.245931158167786,-22.946649729021463,-9.705510673826078
6.837085921819644,1.2342107634976665,10.58931432341832,7.148876051429525,-23.72303203454862,-9.560132244199181
6.849428029454621,0.9969804431521803,10.660803083932615,7.0532747289875335,-24.29561796741776,-9.173684408781046
6.859397833886143,0.7540242634780027,10.73133583122249,6.961537884899723,-24.69136068886282,-8.554527269462358
6.866938076520923,0.5071106565893745,10.800951210071487,6.875992612205099,-24.94235396090447,-7.714526722327977
6.872009183086817,0.25768711698032976,10.869711136193537,6.798847344981819,-25.084039663007168,-6.666971805705115
6.87458605425662,0.006846720350258073,10.937699609643355,6.732177626924768,-25.15366896492445,-5.424515841285147
6.874654521460123,-0.2446899692989864,11.005021385912602,6.677932468511917,-25.189159541803647,-3.9972617679151057
6.872207621767132,-0.49658156471702286,11.071800710597723,6.6379598508327655,-25.22842560422994,-2.3910370100154354
6.867241806119962,-0.7488658207593223,11.13818030910605,6.614049480732612,-25.30920534677934,-0.6058340920388727
6.859753147912369,-1.0019578742271156,11.204320803913376,6.607991139812222,-25.469377860540177,1.3656627024532526
6.849733569170098,-1.2566516528325173,11.270400715311498,6.621647766836755,-25.74774845968112,3.5395849520681018
6.837167052641773,-1.5141291374293284,11.336617192979865,6.657043616357436,-26.185282504754454,5.94256769021521
6.822025761267479,-1.775981962476873,11.40318762914344,6.716469293259588,-26.826772840942105,8.61376997292744
6.8042659416427105,-2.0442496908862937,11.470352322076037,6.802606992988863,-27.722916048624477,11.607356723217999
6.783823444733848,-2.3214788513725386,11.538378392005926,6.918680560221043,-28.932709587360364,14.995471466574621
6.760608656220122,-2.6108059472461425,11.607565197608137,7.068635274886789,-30.525880791689364,18.871448884750162
6.734500596747661,-2.916064755163036,11.678251550357006,7.257349763734291,-32.58452329130192,23.35228981072086
6.705339949196031,-3.2419099880760553,11.750825047994349,7.4908726618415,-35.201786200968904,28.577617929972345
6.67292084931527,-3.5939278500857443,11.825733774612765,7.776648841141224,-38.47225799420384,34.69796335138616
6.636981570814412,-3.9786504300277827,11.903500263024178,8.123628474655085,-42.46114369870456,41.83483102125025
6.597195066514135,-4.4032618670148285,11.984736547770728,8.541976784867588,-47.12219714116814,49.9712236593837
6.553162447843986,-4.87448383842651,12.070156315619403,9.041689021461425,-52.09866637773495,58.68132285374597
6.504417609459721,-5.395470502203859,12.160573205834018,9.628502249998885,-56.2840578384937,66.5266331817829
6.450462904437682,-5.958311080588796,12.256858228334007,10.293768581816714,-57.01229883665812,69.93156623832166
6.390879793631794,-6.528434068955377,12.359795914152174,10.993084244199931,-49.203016203833755,61.97814151969275
6.32559545294224,-7.020464230993714,12.469726756594174,11.612865659396858,-26.71211022560989,34.23138726202065
6.255390810632303,-7.2875853332498135,12.585855413188142,11.955179532017064,9.975295600512444,-12.665103581702429
6.182514957299805,-7.187832377244689,12.705407208508312,11.82852849620004,45.8389125620468,-58.15262391186823
6.110636633527358,-6.729443251624221,12.823692493470313,11.247002257081357,64.33192624747501,-79.84584069933801
6.043342201011116,-6.0861239891494705,12.936162516041126,10.448543850087978,65.86379711995669,-78.74927509365126
5.982480961119622,-5.427486017949904,13.040647954542006,9.661051099151464,59.772338975108646,-67.79057371599713
5.928206100940123,-4.829762628198817,13.13725846553352,8.983145361991493,52.29387351337045,-55.3730347791061
5.879908474658135,-4.306823893065113,13.227089919153435,8.429415014200432,45.68452301114114,-44.40575933029393
5.836840235727484,-3.849978662953702,13.311384069295439,7.9853574208974925,40.397084670788296,-35.37530053242337
5.798340449097947,-3.4460078162458188,13.391237643504414,7.631604415573259,36.321003423708085,-28.04570069906395
5.763880370935489,-3.082797782008738,13.467553687660146,7.351147408582619,33.22993267788674,-22.056242709158973
5.733052393115401,-2.7504984552298706,13.541065161745973,7.13058498149103,30.91181920016293,-17.087529123005037
5.705547408563103,-2.441380263228241,13.612371011560883,6.959709690260979,29.195792925940058,-12.891149584958761
5.68113360593082,-2.1494223339688405,13.681968108463494,6.830798194411392,27.949726295685505,-9.28262971354785
5.6596393825911315,-1.8699250710119855,13.750276090407608,6.737971897275913,27.071474198564776,-6.127841879242997
5.6409401318810115,-1.5992103290263378,13.817655809380367,6.676693478483483,26.480298808753588,-3.3309407201799224
5.624948028590748,-1.3344073409388018,13.884422744165203,6.643384071281684,26.109911947380162,-0.82527287470049
5.61160395518136,-1.073308221465,13.95085658487802,6.635131342534679,25.903140801708577,1.4330740047205135
