th1 (rad),w1 (rad/s),th2 (rad),w2 (rad/s)
5.252387768908408,0.6047025219280157,1.9523907813078532,1.8240541882433354
5.258434794127688,0.685665376561359,1.9706313231902866,1.81247553776898
5.2652914478933015,0.7662546870128876,1.9887560785679763,1.8012497606759457
5.27295399476343,0.8464326568891127,2.0067685761747356,1.7903448678774243
5.281418321332321,0.9261599523116613,2.0246720248535097,1.7797307407804923
5.290679920855438,1.0053947870112923,2.0424693322613146,1.7693772942475705
5.300733868725551,1.0840919978714425,2.0601631052037903,1.7592526473444585
5.311574788704266,1.162202130693964,2.0777556316772348,1.7493213278900157
5.323196810011205,1.2396705524982239,2.095248844956135,1.7395425324422253
5.335593515536187,1.3164366037556339,2.1126442702805575,1.7298684598231293
5.348757881573744,1.3924328017064553,2.1299429548787887,1.7202427337300896
5.362682209590808,1.4675841043422206,2.1471453822160895,1.7105989284399248
5.37735805063423,1.5418072437533628,2.1642513715004887,1.70085921105081
5.392776123071764,1.6150101372890933,2.181259963610997,1.6909331140366926
5.408926224444655,1.6870913852814995,2.198169294751364,1.6807164529856622
5.42579713829747,1.757939864858354,2.2149764592812202,1.6700904061076878
5.443376536946054,1.827434430509736,2.231677363342297,1.6589207742624017
5.461650881251151,1.8954437334772387,2.2482665710849212,1.6470574426968103
5.480605318585924,1.961826173592753,2.2647371455118894,1.6343340682092187
5.500223580321851,2.0264299987948884,2.2810804861939817,1.6205680178734005
5.5204878803098,2.0890935690790355,2.2972861663727158,1.6055605875594774
5.541378816000591,2.149645802969526,2.3133417722483105,1.5890975300555152
5.562875274030286,2.2079068256078433,2.3292327475488657,1.5709499233915496
5.584954342286364,2.2636888380856552,2.344942246782781,1.550875409743432
5.607591230667221,2.3167972275568385,2.3604510008802153,1.5286198337777046
5.630759202942789,2.3670319367626966,2.3757371992179923,1.5039193062049236
5.654429522310416,2.414189109705558,2.3907763922800416,1.4765027133412085
5.678571413407472,2.458063027098568,2.4055414194134537,1.446094686339693
5.7031520436784575,2.49844834068481,2.4200023662768504,1.4124190341648035
5.728136527085305,2.535142609339707,2.4341265566184984,1.375202632103994
5.753487953178702,2.567949131849992,2.447878582939538,1.3341797424807513
5.779167444497202,2.5966800612504204,2.4612203803643458,1.2890967262074529
5.805134245109706,2.6211597735288623,2.4741113476264203,1.2397170830315938
5.8313458428449945,2.6412284494420804,2.4865085184567364,1.185826735158285
5.857758127339415,2.6567458123581127,2.498366785808319,1.1272394440557945
5.884325585462996,2.667594947928299,2.509639180248877,1.0638022247149863
5.911001534942279,2.6736861137435084,2.520277202496027,0.9954005968906849
5.937738396079713,2.674960430005403,2.530231208464934,0.9219634907700083
5.964488000379768,2.671393327014927,2.539450843372634,0.8434676073240227
5.991201933649917,2.6629976135828852,2.5478855194458743,0.7599410237906431
6.017831909785746,2.64982602410348,2.5554849296837805,0.6714658348478131
6.044330170026781,2.631973102805441,2.5621995880322586,0.5781796323780354
6.070649901054835,2.6095762931916036,2.567981384356039,0.48027565303302805
6.09674566398675,2.5828161199974637,2.572784140886369,0.37800146385831745
6.122573825186725,2.5519153804875403,2.5765641555249523,0.2716561114972285
6.148092978991601,2.5171373009212945,2.5792807166399245,0.16158572785707592
6.173264352000814,2.4787826607844816,2.5808965739184955,0.04817766082816742
6.198052178608659,2.4371859389988866,2.5813783505267773,-0.06814672256275602
6.222424037998648,2.39271058895267,2.5806968833011497,-0.1869403376542122
6.246351143888175,2.3457435984161408,2.5788274799246076,-0.3077394998964974
6.269808579872336,2.2966895317371985,2.5757500849256427,-0.4300735213199316
6.292775475189708,2.2459642811768727,2.5714493497124433,-0.5534744205564255
6.3152351180014765,2.193988768952547,2.565914605506879,-0.6774863781176779
6.337175005691002,2.1411828401099817,2.5591397417257022,-0.8016745905515945
6.358586834092102,2.0879595690624972,2.551122995820186,-0.9256332219527095
6.379466429782727,2.034720171496376,2.541866663600659,-1.0489922146227353
6.399813631497691,1.9818496716877207,2.5313767414544315,-1.1714227962678592
6.419632128214568,1.9297134273216399,2.519662513491753,-1.29264160192152
6.438929262487784,1.8786545641510357,2.5067360974725377,-1.4124134078069026
6.4577158081292945,1.828992325497011,2.4926119633944688,-1.5305525455223241
6.476005731384265,1.7810213001453348,2.4773064379392453,-1.6469231236874111
6.493815944385719,1.7350114590590742,2.4608372067023714,-1.761438227812985
6.511166058976309,1.691208907781277,2.4432228244242413,-1.8740582967995767
6.528078148054123,1.6498372476327248,2.4244822414562455,-1.984788886908143
6.54457652053045,1.6110994341143041,2.404634352587164,-2.0936780332993687
6.560687514871593,1.575180023967607,2.3836975722541704,-2.2008134080940773
6.576439315111269,1.54224771144629,2.36168943817323,-2.3063194554733917
6.591861792225732,1.5124580677204127,2.338626243618496,-2.410354661655727
6.606986372902936,1.4859564132885061,2.314522697001939,-2.5131090933586777
6.621845937035821,1.4628807703442144,2.289391606068352,-2.614802314767795
6.636474744739263,1.4433648590591672,2.263243582920674,-2.715681771700751
6.650908393329854,1.4275411178149209,2.2360867652036664,-2.8160217136037002
6.665183804508003,1.4155437419059473,2.2079265480676296,-2.9161227097376914
6.679339241927063,1.4075117476735142,2.1787653209702524,-3.016311805411736
6.693414359403798,1.403592079006423,2.148602202916135,-3.1169433569481964
6.7074502801938625,1.4039427801629194,2.117432769346653,-3.2184005793095007
6.721489707995492,1.4087362621549082,2.085248763553558,-3.321097836488396
6.73557707061704,1.418162688170887,2.0520377851886744,-3.4254836995829177
6.749758697498749,1.4324334944357364,2.017782948192845,-3.5320447874256207
6.764083032443107,1.4517850427021768,1.982462500318589,-3.6413103842172725
6.778600882870129,1.476482362922667,1.9460493964764163,-3.7538577891016
6.793365706499356,1.506822879210232,1.9085108185854003,-3.870318280000657
6.808433935291458,1.5431399021239591,1.8698076357853937,-3.991383445671455
6.823865334312697,1.5858054883492547,1.8298938013286792,-4.117811419152005
6.839723389196189,1.6352319710309924,1.7887156871371592,-4.250432173083973
6.856075708906499,1.6918709798728908,1.7462113654063196,-4.390150416837197
6.872994418705228,1.7562079876200456,1.7023098612379477,-4.537943613204629
6.890556498581429,1.8287491635068494,1.6569304251059014,-4.694850966329066
6.908843990216497,1.9099953185112617,1.6099819154426107,-4.861946550907588
6.92794394340161,2.0003946085804496,1.5613624499335348,-5.040285514637009
6.9479478894874145,2.1002609259387444,1.5109595947871648,-5.230805781321372
6.968950498746802,2.209638075952663,1.458651536973951,-5.434158193475277
6.991046879506328,2.328080917538361,1.4043099550391982,-5.650425469458407
7.014327688681711,2.4543154673681573,1.3478057003446142,-5.878677058622635
7.038870843355393,2.585737310879918,1.2890189297583878,-6.116302056493804
7.064728216464192,2.717729280326839,1.2278559091934498,-6.358090006571555
7.091905509267461,2.8428616966430256,1.1642750091277343,-6.595139850560257
7.120334126233891,2.950234021426981,1.0983236106221317,-6.813943413301184
7.149836466448161,3.0255423762102946,1.0301841764891198,-6.996436322153233
7.180091890210264,3.052738194049182,0.9602198132675874,-7.1221969183457885
7.210619272150756,3.0178348752741013,0.8889978440841295,-7.173553010694643
7.240797620903496,2.913935595037542,0.8172623139771831,-7.142322004213801
7.269936976853872,2.7446000346635517,0.7458390939350451,-7.034242430187412
7.297382977200508,2.5227882200191223,0.675496669633171,-6.867365559826484
7.322610859400699,2.2658883867595567,0.6068230140349061,-6.66519219378643
7.345269743268295,1.990301987701287,0.5401710920970418,-6.44935439489907
7.365172763145308,1.7083938438615993,0.47567754814805113,-6.235628605204325
7.382256701583924,1.428027558706626,0.4133212620960079,-6.033482656756992
7.396536977170991,1.15347760734775,0.35298643552843795,-5.84744460152416
7.408071753244468,0.8866294884918153,0.29451198951319635,-5.678799699444638
7.416938048129387,0.6279651394753801,0.23772399251874998,-5.5269486781964465
7.42321769952414,0.37723249206724874,0.1824545057367855,-5.390310947484889
7.426990024444812,0.13385550196142254,0.12855139626193662,-5.266864622266075
7.428328579464426,-0.10283164329137165,0.07588275003927587,-5.154445843449761
7.427300263031513,-0.3334587443008148,0.024338291604778267,-5.050903267826807
7.423965675588505,-0.5585572378908553,-0.026170741073489802,-4.954170718632265
7.418380103209596,-0.7785337577625558,-0.07571244825981246,-4.862296045714126
7.410594765631971,-0.9936635934326699,-0.12433540871695373,-4.773448101155166
7.400658129697645,-1.2040950255296536,-0.1720698897285054,-4.685914027279
7.388617179442348,-1.4098595870909367,-0.2189290300012954,-4.598093431071332
7.374518583571438,-1.6108856030821048,-0.26490996431200875,-4.5084928252918095
7.358409727540617,-1.8070136264355137,-0.30999489256492685,-4.415721917306056
7.340339591276262,-1.99801305783633,-0.3541521117379874,-4.318492312379688
7.320359460697898,-2.183599564972791,-0.3973370348617843,-4.215618621204247
7.29852346504817,-2.36345305386306,-0.43949322107382677,-4.106021627910247
7.27488893450954,-2.5372359770257247,-0.4805534373529292,-3.988732978994695
7.249516574739283,-2.7046117423010045,-0.5204407671428761,-3.8629007393689885
7.222470457316272,-2.865262943628905,-0.559069774536566,-3.7277951006315493
7.193817827879983,-3.0189090909825236,-0.5963477255428815,-3.582813505114751
7.163628736970158,-3.1653234838045807,-0.6321758605940291,-3.4274844612843114
7.1319755021321125,-3.304348858939309,-0.6664507052068722,-3.261469369104295
7.098932013542719,-3.435911455087204,-0.6990653988979152,-3.0845617463915764
7.064572898991847,-3.5600331734829074,-0.729911016361831,-2.8966833468953137
7.028972567257018,-3.6768415787816524,-0.7588778498307841,-2.6978767845689724
6.992204151469202,-3.786577572960209,-0.7858566176764739,-2.4882944214025673
6.954338375739599,-3.889600684392611,-0.8107395618904996,-2.26818343175814
6.915442368895674,-3.9863920382939995,-0.833421396208081,-2.0378671164945596
6.875578448512734,-4.077555205759244,-0.8538000673730266,-1.797722696560563
6.834802896455141,-4.163815257132841,-0.8717772943386323,-1.548155959773399
6.793164743883812,-4.2460164599132515,-0.8872588539363663,-1.2895732599271268
6.75070457928468,-4.325119147821219,-0.9001545865356375,-1.0223514728684913
6.707453387806467,-4.402196328344096,-0.9103781012643224,-0.746806607481516
6.663431424523026,-4.478430566863169,-0.9178461673391376,-0.46316187359694544
6.618647118854394,-4.555111550269626,-0.922477786075107,-0.171516171403035
6.573096003351698,-4.633634433238057,-0.9241929477891373,0.12818572408598677
6.5267596590193175,-4.715498506123772,-0.9229110905482775,0.43617940030477126
6.47960467395808,-4.802304720155923,-0.9185492965452298,0.7529004072898593
6.431581626756521,-4.895748856981364,-0.9110202924723312,1.0789919670698667
6.382624138186707,-4.9976041040499775,-0.9002303728016325,1.4152915568023787
6.332648097146207,-5.1096815931355115,-0.8860774572336088,1.7627800811965981
6.281551281214853,-5.233748612756482,-0.8684496564216427,2.1224651801934558
6.229213795087288,-5.371369539497445,-0.8472250046197082,2.495149901276189
6.1755000996923135,-5.523611426265913,-0.8222735056069463,2.881005901433155
6.120263985429655,-5.690523481772146,-0.7934634465926148,3.2788250809625232
6.0633587506119335,-5.870264546477906,-0.7606751957829896,3.6847754934675296
6.004656105147155,-6.057749515151081,-0.7238274408483143,4.090485424419653
5.9440786099956435,-6.2428154309618265,-0.6829225866041178,4.480466363732182
5.881650455686025,-6.408379270162398,-0.6381179229667959,4.829554928425746
5.817566662984402,-6.530083471665638,-0.5898223736825384,5.1025006299645925
5.7522658282677455,-6.580079866748339,-0.5387973673828925,5.259447673438864
5.686465029600262,-6.536715140535721,-0.48620289064850386,5.269779385417901
5.621097878194905,-6.396329498220419,-0.43350509679432486,5.128916376727697
5.557134583212701,-6.177273545349382,-0.38221593302704787,4.864016005004615
5.495361847759207,-5.910962660476679,-0.3335757729770017,4.5212114129204615
5.43625222115444,-5.627908380030897,-0.2883636588477971,4.145639114963737
5.379973137354131,-5.349464720876718,-0.2469072676981597,3.7695241628227527
5.326478490145364,-5.0871438944825185,-0.20921202606993217,3.411033967261634
5.275607051200539,-4.845453790878699,-0.17510168639731583,3.078206786225233
5.227152513291752,-4.624907225764574,-0.1443196185350635,2.773194653472049
5.180903441034106,-4.424090994228838,-0.116587672000343,2.495212953700626
5.136662531091818,-4.240842758341775,-0.09163554246333674,2.2422395784297073
5.0942541035084,-4.072846925663534,-0.06921314667903967,2.0118912628069516
5.053525634251765,-3.9179060392165552,-0.04909423405097016,1.8018353769532836
5.0143465738596,-3.774045729779056,-0.03107588028143732,1.6099599873346095
4.976606116561809,-3.639539698687285,-0.014976280408091226,1.4344252219864877
4.940210719574937,-3.512899174198383,-0.0006320281882263475,1.2736599143320415
4.905081727832953,-3.3928487200049924,0.012104570955094068,1.126335543041561
4.8711532406329034,-3.27829869519262,0.023367926385509677,0.9913329360746115
4.838370253680977,-3.168318890738401,0.03328125574625579,0.867708854526145
4.806687064773593,-3.062115063652299,0.041958344291517236,0.7546654443346669
4.77606591413707,-2.9590087774990477,0.04950499873486391,0.6515235572774629
4.746475826362079,-2.858420383391491,0.056020234307638535,0.5577000273894213
4.717891622528165,-2.7598547586277813,0.061597234581532746,0.47268860182061734
4.690293074941887,-2.6628893709984878,0.06632412059973893,0.39604409216295816
4.663664181231902,-2.5671642613883985,0.07028456152136851,0.327369296240196
4.637992538618018,-2.47237358987005,0.07355825448377047,0.2663042735089828
4.613268802719317,-2.3782584494307,0.0762212972188603,0.21251760694268912
4.5894862182250105,-2.284600707200486,0.07834647328828719,0.16569933562673947
4.566640211153006,-2.1912176818413833,0.08000346664455459,0.12555528912228386
4.544728034334592,-2.0979575066906233,0.08125901953577742,0.09180259502750876
4.5237484592676855,-2.0046950616594077,0.08217704548605251,0.06416616508736245
4.503701508651091,-1.9113283835999078,0.08281870713692613,0.04237599345467019
4.484588224815092,-1.8177754858442974,0.08324246707147283,0.026165124285680675
4.466410469956649,-1.723971533842031,0.08350411831432963,0.015268165716132511
4.449170754618229,-1.6298663361419912,0.08365679997149096,0.009420244220417692
4.432872091256809,-1.5354221191427608,0.08375100241369514,0.008356308046431856
4.417517870065382,-1.4406115607166246,0.08383456549415946,0.011810701322385467
4.403111754458215,-1.3454160625488725,0.08395267250738332,0.019516941894795678
4.389657593832727,-1.249824244279837,0.08414784192633128,0.0312076462195258
4.3771593513899285,-1.1538306446677247,0.08445991838852654,0.04661455385332768
4.365621044943251,-1.0574346163090564,0.08492606392705981,0.0654686123919708
4.355046698780161,-0.9606394012014325,0.08558075005097952,0.08750009114893967
4.345440304768147,-0.8634513747976116,0.08645575096246892,0.11243869852275724
4.33680579102017,-0.7658794463220293,0.0875801379476965,0.14001368390905128
4.32914699655695,-0.6679346031039306,0.08898027478678701,0.16995391022090453
4.32246765052591,-0.5696295865967683,0.09067981388899606,0.2019878876345272
4.316771354659942,-0.470978687647544,0.09269969276534133,0.2358437631265769
4.312061567783467,-0.37199764847858635,0.0950581303966071,0.27124926376735214
4.3083415912986815,-0.27270365875911995,0.09777062303428062,0.30793159463571285
4.305614554711091,-0.1731154330752427,0.10084993898063775,0.3456172946829075
4.303883400380339,-0.07325335704764367,0.10430611192746683,0.38403205594866874
4.303150866809862,0.026860310714856186,0.10814643248695352,0.42290051327659345
4.30341946991701,0.1272011937145355,0.11237543761971945,0.4619460131353465
4.304691481854156,0.2277425227110997,0.11699489775107291,0.500890371370273
4.3069689070812665,0.32845484405642233,0.12200380146477564,0.5394536307220661
4.31025345552183,0.42930572455683536,0.1273983377719963,0.5773538297822929
4.314546512767398,0.5302594664565705,0.13317187606981923,0.6143067957272909
4.319849107431964,0.631276846448253,0.13931494402709213,0.6500259736889262
4.326161875896447,0.7323148929821633,0.14581520376398138,0.6842223059778375
4.333485024826269,0.8333267165547147,0.15265742682375977,0.7166041745540317
4.341818291991816,0.9342614080906064,0.15982346856930008,0.7468774201091136
4.351160906072722,1.0350640209670792,0.1672922427703912,0.7747454508372639
4.361511546282393,1.1356756526290424,0.17503969727876384,0.7999094533661867
4.372868302808683,1.236033642068522,0.18303879181242572,0.8220687173169072
4.385228639229369,1.336071899640495,0.19125947898559478,0.8409210834697016
4.398589358225774,1.4357213857017899,0.1996686898202918,0.8561635234262195
4.412946572082792,1.5349107543265919,0.208230325054554,0.8674928558578356
4.428295679626058,1.6335671778044571,0.21690525361313234,0.8746066007939219
4.4446313514041025,1.7316173666994052,0.22565131962107157,0.8772039688075819
4.461947525071096,1.8289887988840756,0.2344233593091474,0.8749869762855113
4.480237413059937,1.9256111691195517,0.2431732290720025,0.8676616711273343
4.4994935247511325,2.021418068414039,0.25184984578327585,0.8549394451440275
4.519707705435273,2.116348899585612,0.2603992402347161,0.8365384000961759
4.540871194431129,2.2103510322518582,0.2687646242356779,0.8121847237709228
4.562974704753648,2.3033821970160395,0.2768864714733871,0.7816140208519682
4.586008526723808,2.3954131151409306,0.28470261168190675,0.7445725307777099
4.609962657875218,2.486430356818027,0.29214833698968384,0.7008181515738544
4.634826961443398,2.576439418675521,0.2991565185054224,0.6501211751205108
4.660591355630153,2.6654680099552928,0.3056577302566275,0.5922646258445989
4.687246035729706,2.753569537463935,0.3115803765150735,0.5270440817936507
4.714781731104345,2.8408267826960367,0.31685081733300996,0.45426684476989354
4.743189998931306,2.9273557712446796,0.3213934857807089,0.3737503148802947
4.7724635566437525,3.013309845607261,0.32513098892951187,0.2853194144748416
4.802596655099825,3.0988839686326135,0.3279841830742603,0.1888028966899586
4.833585494786152,3.1843193069845537,0.3298722120411599,0.08402836400023117
4.865428687855998,3.2699081729007737,0.33071249568116223,-0.02918418879851635
4.898127769585005,3.355999438871234,0.3304206537931771,-0.15103050641569526
4.931687763973717,3.443004584114228,0.32891034872902014,-0.28173209710003755
4.966117809814859,3.531404584001622,0.32609302775801974,-0.42154839073305217
5.001431855654875,3.6217579133099496,0.32187754385068923,-0.5707913047698323
5.037649434787975,3.714709999443191,0.31616963080299093,-0.7298425306337364
5.074796534782407,3.811004527996531,0.3088712054966536,-0.8991738942989497
5.112906580062372,3.9114970602731,0.2998794665536641,-1.0793711755991988
5.152021550665103,4.017171450137968,0.2890857547976721,-1.2711617629152097
5.192193265166483,4.1291595047548215,0.27637413716852005,-1.4754464146898978
5.233484860214031,4.248764139024247,0.2616196730216211,-1.6933350801370355
5.275972501604274,4.377485767968765,0.24468632222025075,-1.9261859710831424
5.319747359283961,4.517050555982851,0.22542446250941933,-2.175645435160037
5.36491786484379,4.669436799426007,0.20366800815781896,-2.4436828107667514
5.41161223283805,4.836891011246824,0.17923118005015146,-2.7326077250564182
5.459981142950518,5.021916020315148,0.15190510279958727,-3.045044155008672
5.5102003031536695,5.2271955380480515,0.12145466124950055,-3.383810313516533
5.56247225853415,5.455386003396835,0.08761655811433522,-3.751605993072424
