th1 (rad),w1 (rad/s),th2 (rad),w2 (rad/s)
4.11295289181217,0.21224183134022379,1.2783752082300524,2.6735751113126764
4.115075310125572,0.25888550064875326,1.3051109593431791,2.62433408010965
4.11766416513206,0.30448782237031485,1.3313543001442756,2.573108448446244
4.120709043355763,0.3494119870351882,1.357085384628738,2.5203454182931244
4.124203163226115,0.3939887368625341,1.3822888388116694,2.4664557552120536
4.1281430505947405,0.4385160690095513,1.40695339636379,2.411813811040751
4.132528211284836,0.48326008207569504,1.4310715344741973,2.3567589753729457
4.137360812105593,0.528456633053595,1.4546391242279268,2.3015981121331524
4.142645378436129,0.5743135265240915,1.4776551053492584,2.2466086159958842
4.148388513701369,0.6210130137919345,1.5001211915092172,2.192041801013709
4.154598643839289,0.668714431670913,1.5220416095193543,2.1381264044100012
4.161285788155998,0.717556855968502,1.5434228735634543,2.0850720489786525
4.1684613567156825,0.7676616823168362,1.5642735940532408,2.033072556985056
4.176137973538851,0.8191350768843007,1.5846043196230915,1.9823090472974048
4.184329324307694,0.8720702623550087,1.6044274100960656,1.9329527768460313
4.193050026931244,0.9265496213605524,1.623756937864526,1.8851677088716823
4.20231552314485,0.9826466113519741,1.6426086149532428,1.8391128052805696
4.212141989258369,1.040427492724553,1.6609997430060486,1.7949440501586025
4.222546264185615,1.0999528767523488,1.6789491835076347,1.7528162173036776
4.233545792953138,1.1612791023093967,1.6964773456806714,1.71288439749536
4.245158583976232,1.2244594510616837,1.713606189655625,1.6753053019129314
4.2574031784868485,1.2895452102884735,1.7303592426747543,1.6402383572310533
4.270298630589733,1.3565865911000525,1.7467616262470649,1.607846605910061
4.283864496500733,1.4256335078361033,1.7628400923061656,1.5782974223758621
4.298120831579094,1.4967362220567157,1.778623066529924,1.5517630523792094
4.313088193799661,1.569945851924298,1.7941406970537161,1.5284209789936773
4.328787652318904,1.6453147450284868,1.809424906843653,1.5084541145669832
4.345240799769189,1.7228967099119206,1.824509447989323,1.4920508135642996
4.362469766868308,1.8027470987836274,1.8394299561249658,1.4794046967063414
4.380497237856145,1.8849227312272223,1.8542240030920292,1.4707142721838278
4.399346465168417,1.9694816461978286,1.8689311458138675,1.4661823351146062
4.4190412816303954,2.056482667343862,1.8835929691650135,1.4660151219206718
4.439606108303834,2.145984764798442,1.8982531203842203,1.4704211921009804
4.461065955951819,2.23804619519903,1.9129573323052302,1.4796100061758646
4.483446417903809,2.332723400984312,1.927753432366989,1.493790165655039
4.506773651913652,2.430069650190804,1.9426913340235392,1.5131672790771722
4.53107434841556,2.5301333992690855,1.957823006814311,1.5379414178997057
4.556375682408251,2.632956364131183,1.9732024209933081,1.5683041277659886
4.582705246049563,2.7385712890148577,1.988885462270968,1.6044349649816987
4.610090958939711,2.8469994090953716,2.004929811920785,1.646497535464602
4.638560953030665,2.9582476113502616,2.021394787275431,1.6946350245544954
4.668143429144168,3.072305309181296,2.038341137520976,1.7489652213836473
4.698866482235981,3.1891410597997694,2.0558307897348125,1.809575061373524
4.730757892833978,3.3086989692967275,2.073926540348548,1.8765147349707962
4.7638448825269455,3.430894948329365,2.092691687698256,1.949791439757012
4.7981538320102395,3.5556129008534474,2.112189602095826,2.0293628859071773
4.833709961018774,3.682700948384466,2.1324832309548976,2.1151307004322817
4.870536970502618,3.8119678115958453,2.1536345379592206,2.2069339119055438
4.908656648618576,3.9431794880556783,2.175703877078276,2.304542732002352
4.948088443499133,4.076056377712416,2.1987493043982997,2.407652880183455
4.988849007276257,4.210271014406215,2.2228258332001345,2.5158807198386173
5.0309517174203195,4.345446560344629,2.2479846403985206,2.628759484701513
5.074406183023766,4.481156209628937,2.274272235245536,2.7457368701531797
5.119217745120055,4.616923625671018,2.3017296039470674,2.866174242711882
5.165386981376765,4.752224505712278,2.3303913463741863,2.989347681358276
5.212909226433888,4.886489324740442,2.360284823187769,3.114451006816884
5.261774119681292,5.019107263142258,2.391429333255938,3.2406008818778105
5.311965192312715,5.149431270729382,2.423835342074716,3.366843981612065
5.363459505020009,5.27678416840479,2.4575037818908365,3.4921661429067203
5.416227346704057,5.400465642105843,2.492425443319904,3.6155033152376177
5.4702320031251155,5.519759945960494,2.52858047647228,3.7357540564359564
5.525429602584721,5.63394410623743,2.5659380170366397,3.851793255198878
5.581769043647095,5.742296406806667,2.6044559495886284,3.962486721520915
5.639192007715162,5.844104941029478,2.6440808168038377,4.066706270105253
5.697633057125457,5.9386760331966,2.68474787950489,4.163344930508616
5.757019817457423,6.025342362294127,2.726381328809976,4.251331948950464
5.817273241080365,6.1034706583761364,2.7688946482994807,4.3296472957135
5.878307947664126,6.172468882967606,2.8121911212566157,4.397335452541247
5.940032636493802,6.2317928454799825,2.856164475782028,4.45351831921503
6.0023505649486015,6.28095224379375,2.9006996589741783,4.497407140386291
6.0651600873865394,6.319516145902376,2.9456737303780414,4.528313406318275
6.128355248845563,6.347117948689118,2.990956864441224,4.545658719324648
6.191826428332454,6.363459858310691,3.0364134516344707,4.548983637891163
6.255461026915561,6.368316933896551,3.0819032880133825,4.537955511017765
6.319144196254526,6.361540722624824,3.12728284312356,4.512375296290788
6.382759603480774,6.343062490556396,3.172406596086468,4.472183318372388
6.446190228386338,6.312896021278128,3.2171284292701916,4.4174638734073355
6.509319188599119,6.271139915397012,3.261303068004265,4.348448524321021
6.57203058775309,6.217979280949511,3.3047875532474755,4.2655178686927
6.6342103805625845,6.153686661465036,3.3474427319344024,4.169201502855772
6.695747247177235,6.078622009397588,3.3891347469629602,4.060175862306938
6.756533467271211,5.993231483541044,3.4297365055860296,3.939259599248781
6.816465782106621,5.89804483615763,3.4691291015785173,3.8074061727351283
6.875446230468198,5.793671165163366,3.5072031633058685,3.6656933834553005
6.933382942119831,5.680792844116669,3.5438600971404215,3.515309688502657
6.990190870560998,5.560157510990219,3.579013194025448,3.3575372814180424
7.0457924456709,5.432568095298654,3.6125885668396283,3.193732112887142
7.100118126623887,5.298870987128017,3.6445258879685,3.0253012440925815
7.153106836495167,5.159942591134216,3.6747789004094256,2.8536781475906703
7.204706262406509,5.0166746495320105,3.703315681885332,2.680296774624652
7.2548730089018285,4.869958843698853,3.730118649631579,2.506565366435244
7.3035725973388175,4.720671277314377,3.7551843032959313,2.3338410765871487
7.350779310111961,4.569657490768272,3.7785227140618027,2.1634064749709685
7.396475885019644,4.417718648246725,3.8001567788115125,1.9964489160395666
7.440653071502111,4.265599474199869,3.820121267971908,1.8340435804966875
7.48330906624411,4.113978401428667,3.838461703776875,1.6771407593655598
7.524448850258397,3.9634602422406,3.8552331113705307,1.526557669264992
7.564083452680802,3.8145715248500354,3.8704986880631806,1.3829747991905619
7.602229167929303,3.667758468568611,3.8843284360550863,1.2469365225657034
7.6389067526149885,3.523387420638733,3.8967978012807434,1.118855488646308
7.674140626821376,3.3817474578312665,3.9079863561672066,0.9990201506966196
7.707958101399688,3.243054774561311,3.917976557674173,0.8876047010100948
7.740388649145301,3.1074584379122037,3.926852604684274,0.7846806619865435
7.771463233524424,2.9750470853210422,3.9346994113041394,0.6902294182091596
7.801213704377634,2.8458561660493267,3.941601705486231,0.6041550526522703
7.829672266038127,2.7198753744494217,3.947643256012754,0.5262969552110773
7.856871019782622,2.597055982699694,3.9529062255648646,0.45644178897584864
7.882841579609619,2.4773178452699574,3.957470643454623,0.3943345168182715
7.907614758062318,2.360555910627982,3.9614139886228057,0.339688298879279
7.931220317168599,2.2466461331864265,3.9648108716115984,0.29219316472871304
7.953686778500463,2.135450727578447,3.9677328032588854,0.2515234395446365
7.975041285776247,2.026822746911096,3.970248037654332,0.2173439612022805
7.995309513245358,1.9206099966953343,3.9724214772663546,0.18931516587024197
8.01451561321231,1.8166583174768323,3.974314628925057,0.16709714576677687
8.032682196387078,1.7148142830182413,3.975985600382725,0.1503527967618984
8.04983033921726,1.6149273686147876,3.977489128350344,0.13875017820787255
8.065979612903408,1.516851647157701,3.9788766301324228,0.13196420522926652
8.081148129374986,1.4204470701677947,3.9801962721847155,0.1296777868518772
8.095352600076664,1.32558038829387,3.9814930500532344,0.13158251355055353
8.108608403959602,1.2321257615914647,3.98280887518874,0.1373789864097443
8.120929661575516,1.1399651049504367,3.9841826650528374,0.1467768681232704
8.132329312625021,1.0489882088288236,3.98565043373407,0.15949472421660504
8.14281919471331,0.9590926703271003,3.987245380976236,0.1752597116198646
8.152410121416581,0.870183664830323,3.9889979780924345,0.19380716133197134
8.161111958064884,0.7821735840896871,3.990936049705754,0.2148800925400243
8.168933693905782,0.6949815627730904,3.9930848506311545,0.23822868724254276
8.175883509533513,0.6085329121995839,3.9954671375035797,0.2636097471588504
8.181968838655509,0.5227584771645678,3.998103234975168,0.29078614844001127
8.187196423427155,0.43759392941982084,4.001011096459568,0.3195263043604436
8.191572362721352,0.35297900944241956,4.004206359503173,0.34960364168751895
8.195102152815776,0.2688567265530538,4.007702395920048,0.38079609272411363
8.197790720081306,0.1851725261725681,4.011510356847289,0.4128856020275876
8.199642445343033,0.10187343198679956,4.015639212867565,0.44565764446887224
8.2006611796629,0.01890716998356104,4.020095789312253,0.4789007495594129
8.200850251362736,-0.06377871929764707,4.024884796807847,0.5124060258061894
8.20021246416976,-0.14623777441994457,4.030008857065909,0.5459666782337664
8.19875008642556,-0.22852550701851168,4.035468523848247,0.5793775121294259
8.196464831355375,-0.31070029061518034,4.041262298969541,0.6124344165307691
8.193357828449223,-0.3928242387222688,4.047386643134849,0.6449338220103809
8.189429586062,-0.47496406634120136,4.053835981354952,0.6766721289655411
8.184679945398587,-0.5571919283023565,4.060602702644608,0.7074451049631663
8.179108026115564,-0.6395862268229633,4.067677153694239,0.7370472528206844
8.172712163847335,-0.7222323790656664,4.075047626222446,0.7652711551559968
8.165489840056678,-0.8052235332214275,4.082700337774006,0.7919068062874492
8.157437604724464,-0.8886612185486974,4.090619405836881,0.8167409488265311
8.148550992538977,-0.9726559106795817,4.098786815325146,0.839556440350382
8.138824433432182,-1.0573274881284955,4.107182379728649,0.8601316854886507
8.128251158550897,-1.142805549061206,4.115783696583536,0.8782401809797729
8.116823103060286,-1.2292295487391152,4.124566098393334,0.893650236154448
8.104530807572894,-1.3167487073844573,4.133502600754879,0.9061249493145803
8.091363320499049,-1.4055216252876102,4.142563850248025,0.9154225419947482
8.077308104246173,-1.495715526646702,4.151718075667972,0.9212971784271823
8.062350948979706,-1.587505035888912,4.160931047452244,0.9235004267864786
8.046475898620816,-1.681070370318886,4.170166051720108,0.9217835517147358
8.029665194917627,-1.7765948115097288,4.179383887237256,0.9159008633883067
8.01189924680253,-1.874261296110899,4.188542895871139,0.9056143852695402
7.993156633841421,-1.9742479467216578,4.197599039723834,0.8907001377114477
7.973414154374204,-2.0767223482808133,4.2065060411009485,0.8709563630463508
7.952646930891396,-2.181834369538825,4.215215604731412,0.8462140327623786
7.930828587196007,-2.2897073387131,4.223677745059036,0.8163499692363944
7.907931513808876,-2.4004274152238168,4.2318412447514,0.7813028706558477
7.8839272396566376,-2.5140310648859545,4.239654273457958,0.7410924327720009
7.858786929007778,-2.630490654469677,4.247065197785679,0.6958415974947846
7.832482022463081,-2.749698343163632,4.254023613760626,0.6458017084563296
7.804985039031444,-2.871448670677433,4.26048163084519,0.5913800031820894
7.77627055232467,-2.995420526312462,4.266395430877011,0.5331684143766723
7.746316347061545,-3.121159522515405,4.271727115020777,0.4719720979254821
7.715104751836391,-3.248062168680279,4.276446836000032,0.4088354836373381
7.682624130149588,-3.375363607838408,4.280535190836405,0.34506301623601854
7.648870494071204,-3.5021309843188297,4.283985820998765,0.28223120991267214
7.613849184228016,-3.627264684289906,4.286808133097892,0.2221882991203064
7.577576537385117,-3.749509657728009,4.289030016089096,0.16703776600455542
7.540081440807837,-3.867478722452436,4.290700393749141,0.11910248940549029
7.501406653583313,-3.9796891253708595,4.291891418643196,0.08086728540022242
7.461609762329604,-4.084612688509074,4.292700091497198,0.054899224536366836
7.420763635444513,-4.180738639714054,4.293249083742562,0.04374725964651408
7.378956249047373,-4.266646807715695,4.2936865563390265,0.04982522832790071
7.3362897809702154,-4.341087374154909,4.294184808622306,0.07528496285438711
7.292878907228666,-4.403061976417031,4.294937658250849,0.1218887279130535
7.248848287464496,-4.451899825651297,4.29615654552998,0.1908921356124399
7.204329289207983,-4.4873218513601145,4.298065466886104,0.28294964656836274
7.159456070694382,-4.509485933632119,4.300894963351788,0.39805435391353045
7.114361211358061,-4.519007248519154,4.304875506890923,0.535521652862811
7.0691711388728695,-4.516949756852616,4.310230723419551,0.6940225281779993
7.024001641304343,-4.504787850950863,4.317170948701331,0.8716668124882242
6.978953762794834,-4.484340805236429,4.325887616826213,1.0661305973199373
6.93411035474247,-4.457686347784694,4.3365489227994125,1.2748161303782193
6.889533491264623,-4.427062615402751,4.349297084103195,1.4950282743036516
6.845262865110596,-4.394769281573699,4.364247366846231,1.7241499675287322
6.801315172294858,-4.36307838307051,4.381488866521519,1.9598005415063742
6.757684388464153,-4.334163420180479,4.401086871936583,2.199964844660993
6.714342754262348,-4.310052216587696,4.423086520383193,2.4430868634164273
6.671242232096471,-4.292605595628219,4.447517389017357,2.688127572122942
6.628316176140189,-4.2835209349591405,4.474398664738587,2.9345918858737883
6.585480966790598,-4.284357633912707,4.503744583597324,3.182533102075687
6.542637390451471,-4.296580664943905,4.5355699146180815,3.4325449395231433
6.499671583802032,-4.321618586412796,4.569895364013313,3.6857515237473373
6.456455397937904,-4.3609333938847525,4.606752879250786,3.943804975580367
6.412846063999057,-4.416101048232913,4.64619092900659,4.208899205201485
6.368685053516727,-4.488903118315338,4.688279921058604,4.483807506534025
6.323796022333574,-4.581431383079764,4.733117996123944,4.771950698420461
6.277981708502776,-4.696207970036898,4.780837503108149,5.077501493656663
6.231019628802407,-4.836322666187089,4.831612518044715,5.405528204287307
6.182656402140537,-5.005584077448166,4.885667800087589,5.762173544754087
6.132600561366055,-5.208666718990839,4.94328953553513,6.154844342471004
6.080513894176146,-5.451198553491609,5.0048379789598405,6.5923368589718825
6.026001908641231,-5.739641749769187,5.070761347549559,7.084696738830893
5.968605491143538,-6.080602979443542,5.1416083149378675,7.642313909179798
5.907799461349103,-6.478722913972679,5.218031454029665,8.273077142213944
5.843012232209376,-6.931312870259839,5.3007622254518045,8.97504284460376
5.773699103506778,-7.416478514374302,5.390512653897842,9.72006550006465
5.699534318363035,-7.871968787033732,5.487713308898488,10.424488601145464
5.620814630492698,-8.17483602047128,5.591958194909943,10.920859316913718
5.539066270287986,-8.170433743631193,5.701166788079081,10.998213703834082
5.457361932851674,-7.798972782230339,5.811148925117422,10.577755609901583
5.37937220502937,-7.185062520201091,5.9169264812164375,9.835700747583774
5.30752157982736,-6.514591084765914,6.015283488692275,9.030546867080975
5.242375668979701,-5.894331252936153,6.105588957363085,8.309286649354432
5.183432356450339,-5.352863800188892,6.188681823856629,7.710621147757836
5.129903718448451,-4.885041779064929,6.265788035334207,7.22725605060929
5.081053300657802,-4.4771708261575345,6.3380605958403,6.840691394114831
5.036281592396226,-4.115732163898047,6.406467509781448,6.533090144092766
4.995124270757246,-3.78948461665746,6.471798411222376,6.290033157203478
4.957229424590671,-3.4895221961718508,6.5346987427944105,6.100500699709821
4.922334202628952,-3.2088499361870584,6.595703749791509,5.956219402819825
4.890245703267081,-2.941938630054417,6.655265943819708,5.850992696205963
4.860826316966537,-2.6843684933504535,6.713775870781768,5.780154012638152
4.833982632033032,-2.432570393278596,6.771577410908149,5.740145781384204
4.809656928100246,-2.183649236231314,6.8289788687219914,5.728196054729281
4.787820435737933,-1.9352723315098064,6.886260829269284,5.742063356208319
4.768467712422835,-1.6856089661057407,6.943681462831368,5.779826160942915
4.751611622761778,-1.4333109447979224,7.001479724440797,5.8396999549447575
4.7372785133137985,-1.1775260711695879,7.059876723990245,5.919870787943862
4.725503252602103,-0.9179371314379554,7.119075431869684,6.018339817096326
4.716323881287723,-0.654817848054587,7.179258830040647,6.132779014212842
4.709775702807177,-0.3890946046862713,7.240586620182775,6.260404295078388
4.705884756760315,-0.12239889540782745,7.303190663133559,6.39787869915847
4.704660767806237,0.1429086939107368,7.367169450125143,6.541264066275218
4.706089854745344,0.40376501728921566,7.4325820907878954,6.686043197019938
4.710127504918236,0.6565027549445535,7.499442522758095,6.827233234667838
4.716692532467682,0.8970352944506956,7.567714855104773,6.95960235920055
4.725662885412189,1.1211285796022883,7.637310878696779,7.077984557427056
4.736874171208211,1.3247398432319004,7.70809072427105,7.177663111175078
4.75012156964053,1.504380962895317,7.779867355382801,7.254768748107102
4.765165379269484,1.6574482784563154,7.852415042863872,7.306622675161767
4.781739862054047,1.7824590861424257,7.9254812696154895,7.331956919520309
4.799564452915471,1.8791512614917907,7.998800838810692,7.330967531955517
4.8183559655303885,1.9484326020307365,8.072110514130248,7.305194056897752
4.8378402915506955,1.9922000270773679,8.145162454699225,7.257257847780817
4.857762291821469,2.0130738699178976,8.217735033177034,7.190518443894282
4.8778930305206485,2.0141018878069974,8.289640217615977,7.108713987631668
4.898034049398719,1.9984814158585196,8.360727357492294,7.015640315020728
4.918018863557304,1.9693321329059341,8.430883760642502,6.914901976685953
4.937712184886363,1.9295336525774702,8.500032780409361,6.80974619345136
4.957007521412138,1.8816271955251385,8.568130242343875,6.7029738381916815
4.97582379336739,1.8277713395033368,8.635159980725792,6.596912092905983
4.994101506762423,1.7697380465324872,8.701129101654852,6.493430537574392
5.011798887227748,1.7089352598337735,8.766063407030595,6.393983838476003
5.0288882398260855,1.6464445658854843,8.830003245415355,6.299667675396621
5.04535268548494,1.5830653388038975,8.892999922169322,6.211278466952018
5.061183338872979,1.5193595804065678,8.955112706838841,6.1293709265273355
5.076376934677045,1.4556939510468547,9.016406416104115,6.054310161891152
5.090933874187513,1.3922771603402437,9.076949517723026,5.986316900492559
5.104856645790916,1.329192013114378,9.136812686727952,5.925505612118275
5.118148565922059,1.2664221014809116,9.196067742849134,5.87191598499336
5.130812786936868,1.2038735204289843,9.254786902699069,5.825538551223547
5.142851522141158,1.1413921645343859,9.313042288211305,5.786335379670014
5.154265443786502,1.0787772149402588,9.370905642008005,5.75425675009983
5.165053215935905,1.0157914031165463,9.428448209509003,5.729254652744771
5.175211129967071,0.9521685769417889,9.485740756036451,5.711293860535559
