th1 (rad),w1 (rad/s),th2 (rad),w2 (rad/s)
5.11437350998596,1.2151917073332352,5.6655647537710205,0.2891761288812258
5.126525427059292,1.3243178483358828,5.668456515059833,0.24522946474352642
5.139768605542651,1.4341637225702832,5.670908809707268,0.1985971243847343
5.154110242768354,1.5447748185091945,5.672894780951116,0.14913046760920973
5.169557990953446,1.6561841308142446,5.674386085627208,0.09671244576848242
5.186119832261588,1.7684076704708875,5.675353210084893,0.04126600450930598
5.2038039089662975,1.881438606954815,5.675765870129986,-0.017235479039380608
5.222618295035845,1.995239741774804,5.675593515339592,-0.07875531783528804
5.242570692453594,2.109733998692745,5.67480596216124,-0.14317777940893167
5.263668032440521,2.2247926367685826,5.673374184367151,-0.21028912177497996
5.285915958808207,2.3402209753192422,5.671271293149401,-0.279755166758538
5.3093181685614,2.4557416036945523,5.668473741481815,-0.35109546360283383
5.333875584598346,2.5709753840707585,5.664962786845787,-0.42365460490002216
5.359585338439053,2.685421099977834,5.660726240796786,-0.49657207080033383
5.3864395494388315,2.7984354072579682,5.6557605200887835,-0.5687531666411658
5.414423903511411,2.9092158194447104,5.650072988422372,-0.6388451973057403
5.443516061705858,3.016790727246023,5.643684536449315,-0.7052248700056384
5.473683968978318,3.120021671707261,5.636632287749259,-0.7660046830292158
5.504884185695391,3.217623796607296,5.628972240918967,-0.819067062014691
5.5370604236614644,3.308209905280105,5.62078157029882,-0.8621342419174267
5.570142522714265,3.3903610756396994,5.612160227879645,-0.8928782527654447
5.604046133470662,3.462721891223527,5.603231445351991,-0.9090681903325883
5.638673352382898,3.5241114466456143,5.594140763448665,-0.9087418402178196
5.673914466849354,3.5736341266039835,5.585053345046487,-0.890378187450805
5.709650808115393,3.610769629143896,5.576149563171978,-0.853040563398025
5.745758504406832,3.635422683753548,5.567619157537998,-0.7964613469885021
5.782112731244368,3.6479204685270243,5.559654544068113,-0.7210498596649454
5.818591935929638,3.6489578749335885,5.552444045471464,-0.627822603017254
5.855081514678974,3.639503033116422,5.546165819441292,-0.5182728937483876
5.891476545010138,3.620683267590628,5.540983090503808,-0.3942085532360016
5.927683377686044,3.593672624833243,5.537041004971448,-0.25758821082945593
5.963620103934376,3.5595972488976217,5.534465122863153,-0.1103802000462806
5.999216076423353,3.519467219636528,5.53336132086269,0.04554276204485999
6.034410748619718,3.4741361739502987,5.533816748483139,0.2084703890553712
6.06915211035922,3.4242850112225036,5.535901452373693,0.3768877610711837
6.103394960471445,3.3704236438867636,5.539670329984405,0.5494825831084471
6.137099196910313,3.3129045132942347,5.545165155815489,0.7251355232746022
6.1702282420432555,3.2519425546408116,5.552416511048236,0.9029011685260988
6.202747667589664,3.1876376944689895,5.5614455227334965,1.081985229821626
6.234624044534354,3.11999731717368,5.572265375031713,1.261721733222978
6.265824017706091,3.048957221919172,5.584882592363943,1.441552379795733
6.2963135899252825,2.974400360222245,5.599298116161901,1.6210091292320663
6.326057593527505,2.896173136420414,5.615508207454221,1.799700316705033
6.3550193248917095,2.8140993372869447,5.633505210621271,1.9773001605356797
6.383160318264579,2.7279919012846086,5.653278212226628,2.1535412690473477
6.410440237277426,2.6376627975237876,5.6748136249171015,2.3282096340057854
6.436816865252664,2.542931299532505,5.698095721257159,2.5011415507175276
6.462246178247988,2.443630936786908,5.723107136764335,2.672221893787021
6.486682487615857,2.3396154055572564,5.749829355702205,2.8413831778803336
6.51007864167143,2.2307637318286537,5.778243187481008,3.0086048278461632
6.5323862789897165,2.1169850111235244,5.80832923575947,3.173912059868988
6.553556129100952,1.9982231095416199,5.84006835635816,3.3373737243896167
6.573538360196368,1.8744618032969222,5.873442093602057,3.499098371710108
6.5922829782293375,1.7457309665632832,5.908433077319158,3.6592276609928533
6.6097402878949705,1.612114595355657,5.945025353929086,3.8179260306765284
6.625861433848527,1.4737616822791624,5.983204614235851,3.9753652727106448
6.640599050671319,1.3309012308615051,6.0229582669629576,4.1317023012300265
6.653908062979934,1.183863001606471,6.064275289975257,4.287047993943847
6.665746692995999,1.033105866791247,6.107145769914696,4.441424567815609
6.676077751663911,0.8792558109344645,6.151560015592851,4.594708664295235
6.684870309773255,0.7231554408356469,6.197507102235804,4.746557436789954
6.692101864181612,0.5659259951266771,6.2449726766037035,4.896315949172938
6.697761124132878,0.4090406819892831,6.293935836095433,5.042906911282184
6.701851530952771,0.2544039163923816,6.344364905208255,5.184709321296979
6.704395570116695,0.10442382324966815,6.396211998421225,5.31944217492684
6.705439808349192,-0.03794508262996801,6.449406420170494,5.444083557792931
6.705060357522893,-0.16922432957366576,6.503847255748423,5.5548722646220074
6.703368114227156,-0.28554310880022277,6.559395978394643,5.64745172244169
6.700512683139154,-0.38291848648127685,6.61587049561906,5.717210859292839
6.696683498274341,-0.4576931015220283,6.673042604211988,5.759836688531912
6.6921065672591205,-0.5070779637899433,6.730640971097307,5.772011740528286
6.687035787621221,-0.5296734406061099,6.788361088502589,5.752089422474074
6.681739053215161,-0.5257986658037869,6.84588198272733,5.700522530828536
6.676481066557122,-0.49749566819488084,6.902887208035615,5.619868233360497
6.671506109875174,-0.4481912569839565,6.95908589036922,5.51434884778378
6.667024197305334,-0.3821334281163742,7.014229378847058,5.3891252442684765
6.66320286302417,-0.30378718814895017,7.068120631289743,5.249527811470637
6.660164991142681,-0.2173470287652603,7.120615909404449,5.100449712309411
6.657991520855028,-0.12643863482510703,7.171620406527544,4.945992597584035
6.656727134506777,-0.03400146643243597,7.2210803325033845,4.789347892858955
6.656387119842453,0.0576994202862592,7.268973811431974,4.632841592425181
6.656964114045316,0.14699049856166038,7.315302227356225,4.4780643924812775
6.658434019030932,0.23268080818291487,7.360082871281038,4.326028391160454
6.660760827112761,0.31395422410034923,7.403343155192642,4.177315857315974
6.663900369353764,0.3902760008416081,7.445116313765802,4.032204620220746
6.667803129362181,0.46131758702745396,7.485438359968009,3.8907663572778475
6.672416305232455,0.5268989721452852,7.5243460235407875,3.752939931883373
6.677685294953909,0.5869458791076235,7.561875422859622,3.618584141983278
6.683554753744985,0.641458682634747,7.598061264279455,3.487514519865258
6.6899693405713325,0.6904901960946819,7.632936409478107,3.3595282675468963
6.696874242532279,0.7341299741857882,7.666531692153576,3.234420607172201
6.704215542274137,0.7724933058802712,7.698875898225298,3.111995044474667
6.7119404753329395,0.8057135320327079,7.729995848670044,2.9920693869433954
6.719997610653267,0.8339366907298414,7.759916542539478,2.8744788459342305
6.7283369775605655,0.8573177750820906,7.78866133099882,2.7590771687564253
6.736910155311387,0.8760180970315611,7.816252102686384,2.6457364676804613
6.7456703362817025,0.8902034027299516,7.842709467363189,2.534346212963385
6.754572370309002,0.9000424941783457,7.868052929492823,2.424811715388696
6.763572795250785,0.905706189434896,7.892301046646709,2.317052324116081
6.772629857145134,0.9073665084400901,7.91547156988787,2.2109994956479726
6.7817035222295345,0.9051960098081294,7.93758156484435,2.1065948406148745
6.790755482327616,0.8993672304746143,7.958647513250498,2.0037882205750583
6.799749154632362,0.890052198260726,7.978685395456249,1.9025359426981356
6.808649676614969,0.8774219996446616,7.99771075488323,1.802799082975787
6.817423896611416,0.8616463930660914,8.015738745712989,1.7045419563415425
6.826040360542077,0.8428934631790971,8.032784165276404,1.607730743310555
6.834469295173868,0.8213293145106105,8.04886147270951,1.5123322764535572
6.842682588318974,0.7971178046192793,8.063984795474045,1.4183129854959082
6.850653766365166,0.7704203175469369,8.078167925329005,1.3256379965981715
6.858357969540636,0.741395578443421,8.091424305294987,1.234270379091605
6.86577192532507,0.7101995099622469,8.103767009085903,1.14417053137274
6.872873920424693,0.6769851305369822,8.11520871439963,1.055295696635803
6.879643771730063,0.6419024940724247,8.125761671365987,0.9675995985156088
6.886062796670787,0.6050986699996227,8.135437667351143,0.8810321864330696
6.8921137833707835,0.5667177621003768,8.144247989215474,0.7955394804079878
6.8977809609917875,0.5269009640357704,8.152203384019554,0.7110635052713571
6.9030499706321455,0.4857866491302131,8.159314019072267,0.6275423045243685
6.907907837123448,0.44351049167252443,8.165589442117511,0.5449100245139209
6.912342942040173,0.4002056167962931,8.17103854236265,0.46309706009084844
6.916344998208135,0.3560027758856548,8.175669512963559,0.38203025345848124
6.919905025966992,0.31103054440907946,8.179489815498144,0.30163313848090495
6.923015331411083,0.26541553910034144,8.182506146882952,0.22182622328149074
6.925669486802087,0.2192826514694702,8.184724409115766,0.14252730450535428
6.927862313316782,0.17275529472414705,8.18614968216082,0.06365180712984098
6.929589866264023,0.12595566130141977,8.186786200232119,-0.014886855826877002
6.930849422877038,0.07900498833952489,8.18663733167385,-0.09317690893677864
6.931639472760433,0.03202382855016826,8.185705562584483,-0.17130783021886276
6.931959711045935,-0.014867675925507737,8.183992484282294,-0.24936996182280527
6.93181103428668,-0.061549518985560374,8.181498784664067,-0.327454119924158
6.931195539096824,-0.10790155757972,8.178224243464825,-0.4056512080706892
6.9301165235210265,-0.15380324241868407,8.174167731384118,-0.48405183814556174
6.9285784910968395,-0.19913335449152125,8.169327213002664,-0.5627459631092838
6.926587157551924,-0.24376974948554178,8.16369975337157,-0.6418225257463159
6.924149460057069,-0.2875891122095714,8.157281528114108,-0.7213691277700985
6.921273568934973,-0.3304667231491053,8.150067836836408,-0.801471723826877
6.917968901703482,-0.3722762393266289,8.14205311959814,-0.8822143451772583
6.914246139310215,-0.4128894916979046,8.133230976146367,-0.9636788581163384
6.910117244393236,-0.4521763013801112,8.123594187565203,-1.0459447625077583
6.905595481379435,-0.49000431707513403,8.113134739940126,-1.1290890361408805
6.900695438208683,-0.5262388761162701,8.101843849578717,-1.21318603095701
6.8954330494475204,-0.5607428916256174,8.089711989269148,-1.2983074275099535
6.889825620531265,-0.5933767683212772,8.076728914994048,-1.3845222543031674
6.883891852848052,-0.6239983495607674,8.062883692451017,-1.471896978849193
6.877651869352444,-0.6524628982579076,8.048164722662525,-1.5604956773882122
6.871127240369866,-0.678623114381205,8.032559765888642,-1.6503802901325566
6.864341009226053,-0.702329191860221,8.016055962987316,-1.7416109686109142
6.857317717307451,-0.7234289179361822,7.998639853301207,-1.8342465210903325
6.850083428128089,-0.7417678183596332,7.980297388090304,-1.9283449610528454
6.8426657499444925,-0.757189352456212,7.961013938479776,-2.023964162161436
6.83509385641993,-0.76953516308677,7.940774296858161,-2.1211626208876924
6.827398504789063,-0.778645388109281,7.9195626706492845,-2.2200003247505253
6.81961205090797,-0.784359042369579,7.897362667401779,-2.320539719606637
6.811768460484274,-0.7865144828667362,7.874157270205713,-2.422846763196361
6.803903315655607,-0.7849499750504655,7.84992880257375,-2.5269920435769055
6.796053815905102,-0.7795043858848941,7.824658882137981,-2.6330519293359247
6.7882587720462535,-0.7700180402686538,7.798328362844622,-2.741109702425373
6.780558591643567,-0.7563337928711027,7.770917265820368,-2.8512566025117354
6.772995253714856,-0.7382983890931522,7.742404699795251,-2.9635926817406006
6.765612269823925,-0.7157642189170197,7.712768772977845,-3.0782273278096066
6.758454627634754,-0.6885916088281754,7.6819864996997484,-3.1952792572427366
6.751568711546472,-0.6566518536406604,7.650033707127321,-3.314875704437186
6.745002193010065,-0.6198312668797203,7.616884950082949,-3.437150428456619
6.738803880341268,-0.5780366314811761,7.582513445798383,-3.562240019873985
6.733023514026456,-0.5312025690566781,7.546891045599643,-3.6902778036659964
6.727711488335889,-0.47930152320134156,7.509988267562983,-3.8213843897152358
6.722918473103876,-0.42235727596442246,7.471774423665831,-3.9556536097495454
6.718694900344232,-0.36046318646178993,7.432217887568336,-4.0931321951439585
6.7150902684796145,-0.29380664224349584,7.3912865656168965,-4.233791108201964
6.7121522020571796,-0.22270150334641814,7.348948654534877,-4.377485992841978
6.709925187023716,-0.1476304956840239,7.305173794606457,-4.523903885735419
6.708448882066875,-0.06929937629779097,7.259934755749103,-4.672493384138223
6.707755888303898,0.011296105748606192,7.2132098219077205,-4.822376372083137
6.707868849361383,0.09279146147349825,7.164986058186889,-4.972241930429262
6.708796763976118,0.17336799905207337,7.115263638882596,-5.120228291101943
6.710530443966639,0.2506726836361559,7.064061355971577,-5.263807862940955
6.713037170803,0.3217656319866157,7.011423277342168,-5.399704086728636
6.716254827122866,0.3831298891988823,6.957426236474881,-5.523885602908991
6.720086126014855,0.43078780956492235,6.902187380445792,-5.631696682363111
6.724394004110504,0.4605657838956335,6.845870413622161,-5.7181801859929715
6.7289996619494605,0.46852168291311314,6.788688611762232,-5.778613506536245
6.7336848787785915,0.4514907181576294,6.730902476696869,-5.809200108562272
6.738199785960168,0.4076299146713359,6.6728104756112465,-5.807758868881471
6.742276085106881,0.3367916576600454,6.6147328869224316,-5.774187913731047
6.745644001683481,0.2405822938184201,6.556991007785121,-5.710515400949164
6.748049824621665,0.1220716224388211,6.49988585377563,-5.620497768744323
6.749270540846053,-0.014744164543763608,6.4436808760881865,-5.508907561958159
6.749123099200616,-0.16554447041883197,6.388591800468605,-5.380754351050117
6.747467654496427,-0.3261868521247639,6.334784256958104,-5.240653785500905
6.744205785975179,-0.49302686906864424,6.282377719103095,-5.092448063978317
6.739275517284493,-0.6630555753477223,6.2314532384633115,-4.939069408664992
6.732644961531015,-0.8339029516896045,6.182062544376661,-4.7825766663404154
6.724305932014119,-1.0037655244737458,6.134236777713257,-4.624285053912841
6.714268276769382,-1.1713045959259654,6.087993927174129,-4.46492726070399
6.702555230810122,-1.3355439229126973,6.043344654567089,-4.304808831815415
6.689199791580996,-1.4957809514135882,6.0002965662489345,-4.1439407180923205
6.67424198206686,-1.6515161758804036,5.958857159068011,-3.9821443842672393
6.657726820308056,-1.8024001078954535,5.919035715225339,-3.819131237256526
6.639702819229102,-1.9481951798567756,5.880844402852773,-3.654560601023375
6.620220867430534,-2.0887493669951898,5.84429879684254,-3.4880808529783627
6.599333373760582,-2.223978524509276,5.809417988312756,-3.3193578167917432
6.577093588515489,-2.353854923889644,5.776224410144838,-3.1480937118926557
6.553555039276593,-2.4783999974741366,5.7447434730259115,-2.974039187794902
6.528771039301851,-2.597679764959804,5.715003081147962,-2.7970003340791134
6.5027942416522535,-2.711801791007755,5.687033077807171,-2.6168420773446717
6.475676223742176,-2.820912810332583,5.660864657033724,-2.4334890405276957
6.44746709563885,-2.9251963672116883,5.636529766628447,-2.2469247222057387
6.4182151319667335,-3.024869962857429,5.61406051940639,-2.057189728677959
6.3879664323381595,-3.1201812968979166,5.593488622119611,-1.8643797391087833
6.35676461936918,-3.211403235377294,5.5748448247285225,-1.6686438887943058
6.324650587015407,-3.298827141335084,5.55815838584058,-1.4701843075986645
6.291662315602056,-3.382754167311615,5.543456542764593,-1.269257643386468
6.25783477392894,-3.4634840338110986,5.530763966330729,-1.0661795288564204
6.22319993359083,-3.541300707668478,5.520102171042164,-0.8613331075005743
6.1877869265141445,-3.6164542593595086,5.511488839967158,-0.6551829055589216
6.151622383920549,-3.689138041304159,5.5049370109115685,-0.4482954894898135
6.114731003507508,-3.759460236395014,5.500454056016671,-0.24136841763737482
6.077136401143558,-3.827408863313562,5.498040371840297,-0.03526885987951653
6.038862312510422,-3.892809640353408,5.497687683241502,0.1689172867824365
5.999934216106888,-3.955276935727394,5.499376856109326,0.36982624150099636
5.960381446749613,-4.014159700365887,5.503075118524336,0.5657500761876904
5.920239849745954,-4.0684871823408075,5.508732619286213,0.7545704979448511
5.879554977922546,-4.116923669081303,5.516278324265661,0.9337061966820865
5.8383857412317335,-4.157747365202207,5.525615386232482,1.100095567622852
5.796808267579712,-4.188874598613687,5.536616341908711,1.250245087064451
5.754919521593575,-4.207953847127797,5.549118792779355,1.3803779425615335
5.712839983122297,-4.212549520331427,5.56292257220497,1.4867104725107099
5.670714487918983,-4.20041743486871,5.577789676930077,1.5658576828850705
5.628710313570296,-4.169840933089768,5.593448253758928,1.6153215497408842
5.587011904239398,-4.1199573700489,5.6096014692563365,1.6339597100709435
5.54581233053891,-4.050980279761024,5.625941066357046,1.6222977065878579
5.5053025277413,-3.9642361913211723,5.642164043422925,1.582568406859172
5.465660165828088,-3.8619918679725593,5.6579897274915165,1.5184446262591356
5.427040247148362,-3.7471222297919113,5.6731741737541075,1.4345386813028873
5.389569024850443,-3.6227198827370457,5.687519560567137,1.3358159308667386
5.3533418260230725,-3.491748738214937,5.7008777198758045,1.2270719095445612
5.318424338640924,-3.356805297303184,5.71314843897125,1.1125666355964816
5.284856285667892,-3.2200013311293407,5.724274105327215,0.9958374720526147
5.252656272356598,-3.0829459819494374,5.734232480047741,0.8796597412454573
5.2218268125371035,-2.9467914968585465,5.7430290774601955,0.7661035999138512
5.192358897568518,-2.8123093333327605,5.750690113459334,0.6566387253967635
5.16423580423519,-2.679973052162881,5.757256500713302,0.5522520001967067
5.137436073713562,-2.5500345461912914,5.762779020715269,0.45355793015900564
5.111935728251649,-2.4225877750086595,5.767314600016859,0.36089261700918696
5.087709850501563,-2.297618848614867,5.770923526186951,0.27438900600670346
5.064733662015414,-2.1750436740673633,5.773667416247018,0.19403471574586684
5.042983225274741,-2.0547352873639775,5.7756077634044765,0.11971520918923347
5.0224358724011005,-1.9365431071085832,5.776804915496369,0.05124533821530547
5.003070441330014,-1.82030609959059,5.7773173688785215,-0.011607985713053881
4.984867380334109,-1.7058614797567666,5.777201289021391,-0.06910971797856108
4.967808765536541,-1.5930502085560658,5.776510191841605,-0.12154542043621497
4.95187826345098,-1.4817202330204688,5.7752947376372425,-0.16921346406234195
4.937061061120775,-1.3717281637460124,5.773602602996619,-0.2124196964229803
4.923343779483315,-1.2629398914005487,5.771478406032389,-0.25147384819682284
4.91071438056931,-1.155230499890665,5.768963667550421,-0.28668715762394037
4.899162075570403,-1.0484837283535309,5.766096795974181,-0.31837084238571844
4.888677238286868,-0.9425911578335097,5.762913087550324,-0.34683515773288226
4.879251326708533,-0.837451243755588,5.759444735972995,-0.37238885815773676
4.870876814270977,-0.7329682762581082,5.755720847391418,-0.39533893575854384
4.863547131508396,-0.6290513227207136,5.751767458033832,-0.4159905478714149
4.8572566182811885,-0.5256131872207412,5.7476075525551185,-0.43464707413624754
4.852000486408981,-0.42256940786765923,5.743261081813756,-0.45161026226007633
4.847774792330305,-0.3198373033590208,5.738744979191155,-0.46718043474889226
4.844576419296715,-0.21733507351677367,5.734073174843666,-0.4816567375080074
4.842403068561547,-0.11498095419729829,5.729256607468586,-0.4953374166591205
4.841253259019574,-0.012692424278897857,5.7243032333019945,-0.5085201130066125
4.841126334776785,0.0896145389336098,5.719218032171929,-0.5215021648362809
