th1 (rad),w1 (rad/s),th2 (rad),w2 (rad/s)
2.858508291817731,1.9883709542411863,5.364155822505954,-2.550735380783313
2.878392001360143,2.0088369125348926,5.338648468698121,-2.479841047422478
2.898480370485492,2.0300806359203327,5.313850058223896,-2.4093546470712477
2.918781176844695,2.051815195218279,5.2897565117531835,-2.3396690497545776
2.939299328796878,2.0738290512089548,5.266359821255638,-2.271085661932684
2.9600376193089675,2.0959740282007715,5.243648964636312,-2.2038302174625524
2.980997359590975,2.1181542153887474,5.2216106624616865,-2.138067433639006
3.0021789017448626,2.140316159006521,5.2002299881252965,-2.0739140485344083
3.0235820633349277,2.1624404705986042,5.179490847639952,-2.0114500707346616
3.045206468040914,2.1845348274734144,5.159376346932606,-1.9507282700700612
3.067051816315648,2.2066282569760984,5.139869064231905,-1.8917820497440105
3.0891180988854092,2.228766556188595,5.120951243734465,-1.8346318936271697
3.111405764447295,2.2510086870687225,5.102604924798194,-1.7792905985454697
3.1339158513179823,2.2734239923275097,5.084812018812739,-1.7257674953879485
3.1566500912412576,2.296090091635985,5.06755434385886,-1.674071845154254
3.1796109921576177,2.3190913359681273,5.050813625407318,-1.6242155733170804
3.202801905517299,2.3425177169414177,5.034571469674147,-1.5762154821310936
3.226227082686713,2.3664641461795726,5.018809314852836,-1.5300950580423784
3.249891724148509,2.3910300361375794,5.003508364272412,-1.4858859712617412
3.2738020245098847,2.4163191281789334,4.9886495045597945,-1.4436293472774426
3.297965215791674,2.442439525971278,4.97421321108702,-1.4033768756038978
3.3223896110513866,2.469503902624413,4.960179442330981,-1.3651918091760922
3.3470846500776306,2.4976298586582883,4.94652752423922,-1.3291498981804168
3.3720609486642132,2.5269404150948875,4.933236025257416,-1.2953402943927126
3.397330352815162,2.5575646319310343,4.920282622313488,-1.2638664558911865
3.4229059991344726,2.5896383471381355,4.907643957754576,-1.234847076936474
3.448802382605854,2.6233050352563363,4.895295486985211,-1.2084170634577487
3.475035432958417,2.658716787630953,4.883211316350634,-1.1847285705052453
3.5016226008347267,2.6960354183014177,4.871364030645581,-1.1639521136970796
3.528582955017741,2.7354337002829325,4.85972450950861,-1.146277761431902
3.5559372920205705,2.777096736075131,4.848261731894292,-1.1319164075621049
3.583708259381322,2.8212234630197988,4.836942567818671,-1.1211011140778973
3.6119204940115197,2.8680282875564265,4.8257315566778916,-1.1140884983645558
3.640600776887084,2.9177428308771054,4.814590671694246,-1.111160117199996
3.669778205195855,2.970617749533322,4.803479070522246,-1.1126237661328109
3.699484382691188,3.0269245645804252,4.792352832860918,-1.1188145627994535
3.7297536283369923,3.086957386520088,4.781164687232923,-1.130095608220542
3.760623202202193,3.151034352797426,4.769863731150718,-1.1468579097567864
3.7921335457301675,3.219498488604662,4.75839515205315,-1.1695190868539382
3.824328530616214,3.292717544093669,4.746699961184611,-1.198520142856521
3.857255706057151,3.371082129319029,4.734714759756045,-1.2343192411165136
3.8909665273503413,3.455001132134962,4.72237156734488,-1.2773809289502183
3.925516538671691,3.544892925794561,4.709597758055378,-1.3281585559078888
3.960965467929636,3.6411702096269316,4.696316172496299,-1.3870666756083918
3.9973771700259055,3.7442154430368584,4.6824455057402155,-1.454438958658183
4.034819324456274,3.854342733923472,4.667901116153634,-1.5304655923116963
4.073362751795509,3.971740837654648,4.652596460230517,-1.6151024722848346
4.113080160172055,4.096390961492321,4.636445435507668,-1.7079432240463044
4.154044069786979,4.227953170368195,4.6193660032672055,-1.8080454231633496
4.19632360149066,4.36561796866914,4.601285549035572,-1.9137066590729623
4.239979781177352,4.5079277964399544,4.582148482444842,-2.0221982028527155
4.2850590591417514,4.652590301795161,4.561926500416315,-2.129489113558165
4.331584962159703,4.79633390492364,4.540631609280734,-2.2300352790629994
4.379548301208939,4.934892777268521,4.518331256490104,-2.31676089554122
4.428897228981625,5.063234687677809,4.495163647534691,-2.3813979417009854
4.479529575858403,5.176123246600283,4.471349668117681,-2.4153176662672955
4.531290808324406,5.268994747372138,4.447196491455008,-2.4108276434574294
4.583980755798128,5.338937600310613,4.423088215020434,-2.36263019277035
4.637370131801234,5.3854009235421065,4.399461913092731,-2.2689023443255003
4.691224141036654,5.410295267148024,4.376772889649476,-2.131504332510081
4.745327093708134,5.417426511447941,4.355457846324375,-1.9552190056455776
4.799501358822614,5.411535099945486,4.3359056562679195,-1.746402148524968
4.853616709822068,5.397344465247066,4.31844163478267,-1.511621308408424
4.907590154474539,5.378901577909912,4.3033254216985855,-1.2566964727567016
4.961379170253638,5.359275696305716,4.290758456971019,-0.9862490205085752
5.014971927216695,5.340531220638626,4.280895966765933,-0.7036481994073658
5.068377239423081,5.323849475156414,4.27385948477186,-0.4111808777712502
5.121615734174646,5.3097001446491,4.2697476759941475,-0.11030321404233251
5.174712735621137,5.298005649671741,4.268644643853724,0.19810869768104244
5.227692792117854,5.2882752278292875,4.270625730830535,0.5135452707542678
5.2805755443961475,5.279704814795961,4.275761183538077,0.8356955950655895
5.333372592544107,5.271247475965491,4.284118139488733,1.1643215127027056
5.386085067303762,5.261661747159873,4.29576135461576,1.499165951767248
5.438701684775361,5.2495450719586705,4.310753014133432,1.8398880719099393
5.491197135494947,5.233358370675047,4.329151894852532,2.1860194210710455
5.543530719201698,5.211446458060077,4.351012089063243,2.536937163844541
5.595645183782299,5.182057834049203,4.376381460701689,2.891852026869701
5.647465762122791,5.143366354399302,4.405299980970385,3.2498097704438695
5.698899425666784,5.09349640600468,4.437798078674824,3.6097057335109213
5.749834389726831,5.030552406101999,4.473895136009933,3.9703123545404235
5.800139913787851,4.952652668144303,4.513598259555337,4.330319599791697
5.849666440469294,4.857966906063491,4.5569014555532545,4.688387993785773
5.898246109529929,4.744755886491016,4.6037853354911125,5.043213511289241
5.9456936683948385,4.611411016069938,4.654217470604005,5.393603032056524
5.991807778555538,4.4564910239193525,4.70815350092457,5.738558465850577
6.0363726887947315,4.278752443820899,4.765539085583075,6.077367119268062
6.0791602132329405,4.077170408153083,4.8263127567757556,6.409695486037542
6.119931917314472,3.850946438234896,4.890409711636131,6.735683460071821
6.158441381696821,3.599500568878178,4.95776654623685,7.056035992491176
6.194436387385602,3.322446426567212,5.0283269061617615,7.372109310745446
6.227660851651274,3.0195500283579157,5.102047999269216,7.685988629740413
6.257856351934853,2.6906765396355268,5.17890788556662,8.000553033833183
6.284763117331209,2.335734967591102,5.258913415904952,8.319519348562965
6.30812046700712,1.954640722033905,5.342108609390582,8.647447362275166
6.327666874227459,1.5473340509112816,5.428583083013334,8.989667985328918
6.343140214736572,1.1139260369831674,5.5184797628666225,9.352053133633913
6.354279475106403,0.6551064252910108,5.612000294202962,9.740462240323804
6.360830539359314,0.17305909066891867,5.7094049166062,10.159545924643687
6.362561130266003,-0.326691965976384,5.811000375852637,10.610335128902939
6.359294210606239,-0.8318848302128685,5.917103727141666,11.085744706721876
6.35097536230411,-1.3180355544291507,6.027961174208885,11.563177112614449
6.337795006759819,-1.741733047599103,6.14359294533503,11.99521790923577
6.320377676283829,-2.0381891390222275,6.263545124427387,12.30559129474284
6.299995784893606,-2.1354545478962783,6.386601037374816,12.406983955025977
6.278641239414643,-1.9926615013369833,6.510670876925076,12.250664986695748
6.258714624401273,-1.6351679623674265,6.633177526792033,11.871519119840324
6.242362944777599,-1.1406608756223249,6.751892717990437,11.367896086170488
6.230956336021376,-0.5893134159419013,6.865571678852142,10.835967858294588
6.225063201861957,-0.03331160536507638,6.973931357435087,10.33225892369945
6.224730085808306,0.5023393254800045,7.077253946672082,9.877471522357354
6.229753479063106,1.0086197419947704,7.176028661895655,9.472501315697317
6.2398396764830535,1.483760032956545,7.270753675052628,9.11010157546408
6.254677276812619,1.9286032311309382,7.361854690807268,8.780752859970415
6.273963309123928,2.3445511160487906,7.449662219406973,8.475106869798154
6.297408820284416,2.732784609288553,7.534413288104954,8.184843919707669
6.3247366663773015,3.094050406742258,7.616261727302031,7.902885549325865
6.355677170444724,3.428682981966069,7.695290582795289,7.623375830625634
6.389964000264385,3.7367156248108464,7.7715243411015456,7.341596808812854
6.427331156512493,4.018016737513448,7.844940309189674,7.053876842236713
6.467511323887628,4.272423199046207,7.915479077612042,6.757507250805718
6.51023555587809,4.499857800453384,7.983054150120099,6.450666446990255
6.555234133882624,4.700424445192954,8.047560814590001,6.132345922900127
6.602238378334553,4.874478136746039,8.108884273819003,5.802272417238595
6.6509831597020135,5.02266886723874,8.166906997991388,5.460822395018379
6.7012098483744005,5.145960170169927,8.221515221941573,5.108927327741575
6.7526694500761,5.245624524426781,8.272604495218989,4.747970521220132
6.805125695320368,5.323218982951169,8.32008420043119,4.379678072258674
6.858357885149879,5.38054527068253,8.363880981153777,4.006007783759422
6.912163337856705,5.419599087833684,8.403941058991371,3.6290404817685333
6.966359328735042,5.4425134433564395,8.440231463809058,3.2508781905190087
7.020784463168606,5.451500553901899,8.472740245714247,2.873553125618941
7.075299468707625,5.448796239171263,8.501475776970436,2.498950594869697
7.129787431099338,5.436609914517951,8.526465282919133,2.1287478066113277
7.184153530244517,5.417082325841189,8.547752760985247,1.7643694371040632
7.238324353502929,5.392252186002815,8.565396455356288,1.4069597493194463
7.292246875362957,5.364031935108064,8.579466052849481,1.057370208505683
7.345887194714037,5.334192011025505,8.590039754934539,0.7161609950492567
7.399229114824292,5.304352300161129,8.59720136488503,0.38361462928027823
7.452272637825904,5.275978824374972,8.601037511177834,0.0597601268089612
7.505032426069653,5.250383155065751,8.601635112445924,-0.25559328478034
7.557536257620311,5.228721444217626,8.599079179598121,-0.562812813817541
7.609823472062487,5.211989212174273,8.593451051459946,-0.8623875280146989
7.66194336418423,5.201007006744484,8.584827176179799,-1.1548589182795992
7.713953434251675,5.196390639937359,8.573278586997002,-1.4407303438847758
7.765917340651049,5.198497907577435,8.558871283558155,-1.7203459720278442
7.817902319726823,5.207341777190925,8.541667823837876,-1.9937266451415052
7.8699757374987325,5.222458935997213,8.521730557386462,-2.260348257537789
7.922200326858705,5.242724651159348,8.499127074811085,-2.5188510080243445
7.974627573370298,5.266114858806806,8.473938564730842,-2.766682011766451
8.027288721958366,5.2894422117500355,8.446271744613178,-2.9997103416115944
8.080183144075866,5.308143794652485,8.416274641197061,-3.21192557379051
8.13326458202239,5.316275239132276,8.384155385459156,-3.395439166834826
8.186427334413713,5.306937644150944,8.350200993790807,-3.541107554115881
8.239496710855223,5.273338146355925,8.314789918249648,-3.6400563772851626
8.292230092318782,5.210434282932405,8.278389354476797,-3.686026512494752
8.344334435148106,5.1166345872570105,8.24152908935185,-3.677784063655536
8.395500781020676,4.994661418516556,8.204751248715295,-3.62032008089781
8.445447395205841,4.850943922116406,8.168548047906317,-3.5239443522417284
8.493956834427005,4.693797776825869,8.133308604383899,-3.4016459339629264
8.540894812195264,4.531374536555941,8.09929214504427,-3.2661275208928533
8.586208557560823,4.370269179094822,8.066630869835341,-3.1277861293121725
8.629911249351771,4.2150363672556965,8.03535300854222,-2.9940017403083177
8.672061613024328,4.068358492478157,8.005412991139137,-2.869368944393962
8.71274519794911,3.9314920638049697,7.976719301695197,-2.756336955555894
8.75206011858716,3.804735079893977,7.949155932139638,-2.6558869917268755
8.790107469386099,3.687803332674109,7.922597062222369,-2.568083299136138
8.826985502712839,3.580094939148286,7.8969162292310076,-2.492465450704713
8.862786452104322,3.4808608184195773,7.87199157472396,-2.4283055449978317
8.897595060288518,3.389307418604069,7.847708519273982,-2.374767088629706
8.93148813447456,3.304654655970898,7.823960848387685,-2.3309981342523236
8.964534681034268,3.2261658523191428,7.800650867045162,-2.2961827239573234
8.99679633955746,3.1531609023255838,7.777689039805589,-2.269566884444333
9.028327948580715,3.085019804902711,7.754993370961145,-2.2504696024571316
9.059178146629742,3.0211809346979006,7.732488674936574,-2.2382852579382195
9.08938995597672,2.961136665869511,7.710105822357192,-2.232481441220211
9.119001322635416,2.904427867244236,7.68778100794499,-2.232594481899
9.148045601307858,2.8506381258440525,7.665455063126,-2.2382240341167456
9.176551982566298,2.7993881625791834,7.643072822784832,-2.2490274665121266
9.20454586419209,2.75033067569136,7.620582548119711,-2.2647144465881794
9.232049170949004,2.703145719530056,7.597935403653829,-2.2850418951549267
9.259080628144305,2.6575366588624716,7.57508498470228,-2.309809358732522
9.285655994732931,2.6132267083292193,7.551986891114955,-2.3388547704888736
9.311788261816224,2.569956058772172,7.528598343410066,-2.372050521263868
9.337487822403945,2.5274795988689247,7.5048778381974275,-2.4092997276607195
9.362762618392635,2.4855652573676092,7.48078484092082,-2.450532555244754
9.38761827096631,2.4439930160272505,7.456279515368372,-2.4957024257748914
9.412058201126584,2.402554675273872,7.431322491110623,-2.5447819041338953
9.436083747879323,2.3610544934398274,7.4058746720692845,-2.5977580204706694
9.45969429281372,2.319310866322601,7.379897091864578,-2.6546267342987817
9.482887401476948,2.277159266387481,7.35335082452159,-2.715386189407453
9.505658994140822,2.2344567188801987,7.326196962627516,-2.7800283427776074
9.528003561329623,2.1910881519307983,7.2983966791997394,-2.848528481613719
9.54991444284893,2.146975012306701,7.269911394383603,-2.9208320793497062
9.571384192971998,2.102086574919368,7.2407030735901055,-2.9968384009574556
9.59240505872119,2.0564543709833543,7.210734689580531,-3.0763802783400105
9.612969602431024,2.010190083323989,7.179970886797131,-3.1591995821294434
9.633071503264263,1.9635070589162642,7.148378890975836,-3.244918181101941
9.652706573853425,1.9167452028284409,7.115929709164817,-3.3330046910598177
9.67187402588171,1.8703983659982983,7.082599662254219,-3.4227381750626407
9.690578009541692,1.8251423451626865,7.048372280503592,-3.513171268091485
9.70882943299332,1.781860235424764,7.0132405678226775,-3.6030970177156525
9.726648035347568,1.7416601678461205,6.977209597645521,-3.691025989863591
9.744064637026028,1.7058786612049224,6.940299337746885,-3.775182577930215
9.761123423638077,1.6760614302605492,6.902547511967583,-3.853531301482487
9.777884037940682,1.6539133574532043,6.864012198952758,-3.923844086476094
9.794423171515215,1.6412115074064522,6.824773758087997,-3.9838166850100385
9.81083528658928,1.639680455937402,6.784935591237897,-4.031235308047481
9.827232091148653,1.6508379244519615,6.744623238157422,-4.064183056316292
9.843740470393174,1.6758293121668777,6.7039814075942585,-4.081261734875534
9.860498763514842,1.7152789078014183,6.6631687902455035,-4.081792459907449
9.877651552592857,1.7691889876588955,6.622350865646429,-4.065953845295008
9.895343442469446,1.8369123065304669,6.581691327193479,-4.034823930017158
9.913712565534752,1.9172086787328158,6.541343087893307,-3.9903113783756354
9.93288465232208,2.0083768061525653,6.501439974109551,-3.934987134946308
9.952968420383606,2.108435316597591,6.462090102760087,-3.8718503825165724
9.974052773549582,2.2153183056004284,6.423371598934922,-3.804074241986601
9.996205956605586,2.327052661366071,6.385330856515056,-3.7347743462989715
10.019476483219247,2.4418946162835877,6.3479831130520665,-3.6668304038418325
10.043895429382083,2.5584162567692585,6.311314809013648,-3.602773686119832
10.069479591949776,2.675544374795164,6.27528707215245,-3.544738217544049
10.096235035697728,2.792561424557844,6.23983968997701,-3.494463762277026
10.124160649943306,2.9090811522793856,6.20489505235424,-3.453334936467958
10.1532514614661,3.025010862450207,6.17036170298956,-3.422441460554116
10.183501570090602,3.140509861269058,6.136137288384019,-3.4026476798149488
10.214906668703293,3.2559507023733474,6.102110811585869,-3.394663325704489
10.247466175727027,3.371887263350404,6.068164178328824,-3.399111020656099
10.28118504836053,3.489031751845458,6.034173068122263,-3.4165887957401844
10.316075365878985,3.608241520805253,6.000007180164862,-3.4477278395197413
10.352157781087039,3.7305159575563818,5.965529901769664,-3.4932469713145666
10.389462940662602,3.8570035508864557,5.930597432056519,-3.5540061370283045
10.428032976171467,3.9890193932781366,5.895057370686236,-3.6310617485731074
10.467923170104248,4.128073724901285,5.858746753200505,-3.7257270621047494
10.50920390735326,4.275912564689239,5.821489482579457,-3.8396410683301587
10.551963033000153,4.434571862315581,5.783093071896156,-3.9748494779574144
10.596308751623308,4.606446683121062,5.743344577116582,-4.133901026595508
10.64237321845452,4.794376140304401,5.702005566850627,-4.319960725308405
10.690316979857563,5.001741843289361,5.658805959597543,-4.536937054877932
10.740334398290457,5.232569682003916,5.613436589048764,-4.78960840675131
10.792660095110497,5.491605450098246,5.565540504981251,-5.083706330504182
10.847576149611479,5.784290147168343,5.514703441676209,-5.42584966197074
10.905419051083163,6.116461027966311,5.460444945056502,-5.823082494473849
10.966583661362826,6.493390822173212,5.402214120111764,-6.281467588826352
11.031517569584558,6.917355925151227,5.3393994442235,-6.802592987472713
11.10069112883607,7.382246728759709,5.271373514348773,-7.3758963506461654
11.174513596123667,7.863299693091205,5.197614550842311,-7.964104575155455
11.253146593054579,8.302582150714294,5.117973505090757,-8.482689125469014
11.336172414561721,8.603174860000333,5.033146613836067,-8.791602701164846
11.422204163161725,8.664892794525855,4.945230586824418,-8.74562289826836
11.508853091106984,8.467883860900555,4.857774357841734,-8.312358204109685
11.593531929715988,8.10584517962824,4.774650775800637,-7.619690807444345
11.674590381512271,7.703737127193985,4.698453867726194,-6.840719597461029
11.751627752784211,7.339070551562964,4.630046671751583,-6.083049249196332
11.82501845829984,7.039210385968523,4.56921617925962,-5.384375727551468
11.895410562159526,6.806021134895706,4.515372421984106,-4.746594009863071
11.963470773508483,6.632678153135432,4.467906481885475,-4.15921523908898
12.029797555039837,6.510815208412895,4.426314329494585,-3.609412463303533
12.094905707123965,6.432857313799642,4.390220204861549,-3.0853939716883496
12.159234280261963,6.392505937614303,4.359366265144666,-2.577220783297221
12.223159339638105,6.38461705583748,4.333594057311694,-2.076794406753284
12.28700551019648,6.404922513012332,4.312826113244161,-1.5776438391255376
12.351054735326603,6.449743087207204,4.2970496748529055,-1.0747183298539311
12.415552166198674,6.515735440017374,4.286302491554366,-0.5642403893550011
12.480709520598849,6.599681247545972,4.2806600876608165,-0.04362080968900672
12.546706333074308,6.698318494050816,4.280223879563926,0.4885803052537878
12.613689518014816,6.80821491479623,4.285109682616464,1.0326683112475155
12.681771667162778,6.925685381694771,4.295436365728939,1.5878277966313163
12.751028520979725,7.04675597745158,4.311314643695252,2.152157357957887
12.82149608075424,7.167176459187143,4.332836217274831,2.722743491528228
12.893167845346111,7.282479493697905,4.360063652190114,3.2957847900783004
12.96599264028309,7.38807996169188,4.393021500090897,3.866768000656704
