th1 (rad),w1 (rad/s),th2 (rad),w2 (rad/s),a1 (rad/s^2),a2 (rad/s^2)
0.3700015120634377,-2.9702376246253652,1.7869130526244656,1.1980092122848272,-1.4500099684461936,-18.067832003656076
0.340299135817184,-2.984737724309827,1.798893144747314,1.0173308922482664,-1.7375716517087654,-18.20425561301183
0.31045175857408575,-3.002113440826915,1.8090664536697967,0.8352883361181481,-1.9834581877790112,-18.369299078103026
0.2804306241658166,-3.0219480227047053,1.8174193370309781,0.6515953453371178,-2.1865578716794793,-18.556518581743614
0.25021114393876953,-3.0438136014215003,1.8239352904843493,0.4660301595196817,-2.345433945292273,-18.759312892731298
0.21977300792455454,-3.067267940874423,1.8285955920795463,0.2784370305923687,-2.4583536696706147,-18.970934195105933
0.1891003285158103,-3.091851477571129,1.8313799623854699,0.08872768864130934,-2.5233341581390185,-19.18450443373343
0.15818181374009901,-3.1170848191525193,1.8322672392718828,-0.10311735569602495,-2.538202011537193,-19.39304285149128
0.12701096554857383,-3.1424668392678914,1.8312360657149227,-0.2970477842109378,-2.500664686843612,-19.589508276663278
0.09558629715589492,-3.1674734861363274,1.8282655878728133,-0.4929428669775706,-2.408391885313682,-19.76685807153416
0.06391156229453165,-3.191557404989464,1.8233361592030377,-0.6906114476929122,-2.2591052488323182,-19.91812427586765
0.031995988244637015,-3.2141484574777874,1.8164300447261086,-0.8897926904515887,-2.050674438483506,-20.036506268112607
-0.000145496330140861,-3.2346552018626227,1.8075321178215926,-1.090157753132715,-1.781217343138282,-20.115478184847085
-0.03249204834876709,-3.2524673752940054,1.7966305402902654,-1.2913125349811858,-1.4492018139324292,-20.14890839092875
-0.06501672210170714,-3.26695939343333,1.7837174149404535,-1.4928016188904734,-1.053546011725335,-20.13118750993695
-0.09768631603604044,-3.277494853550583,1.7687893987515488,-1.6941134939898428,-0.5937142401552268,-20.05736094584049
-0.13046126457154628,-3.283431995952135,1.7518482638116504,-1.8946871034482478,-0.06980504761336351,-19.923261484553876
-0.16329558453106763,-3.284130046428269,1.732901392777168,-2.0939197182937868,0.5173715741852503,-19.725637471052394
-0.1961368849953503,-3.2789563306864165,1.7119621955942301,-2.2911760930043106,1.1662309031650355,-19.46227219983633
-0.22892644830221448,-3.267294021654766,1.689050434664187,-2.4857988150026737,1.874366867800617,-19.13209049093361
-0.26159938851876213,-3.24855035297676,1.6641924465141602,-2.67711971991201,2.638524556101851,-18.73524888438211
-0.2940848920485297,-3.2221651074157416,1.6374212493150402,-2.864472208755831,3.4545940142658593,-18.27320639666149
-0.32630654312268714,-3.187619167273083,1.6087765272274819,-3.0472042727224458,4.31762722469494,-17.748773272961564
-0.35818273479541796,-3.144442895026134,1.5783044845002574,-3.2246920054520616,5.22187991175972,-17.166135595029075
-0.3896271637456793,-3.0922240959085365,1.5460575644457368,-3.3963533614023524,6.16087958494481,-16.530853962248848
-0.42054940470476465,-3.0306153000590883,1.5120940308317132,-3.561661901024841,7.127520933368181,-15.84983479922311
-0.4508555577053555,-2.9593400907254064,1.4764774118214647,-3.720160249017072,8.114189251714505,-15.131273247756981
-0.48044895861260956,-2.878198198208261,1.439275809331294,-3.871472981494642,9.112911920491799,-14.384567195965952
-0.5092309405946922,-2.787069079003343,1.4005610795163477,-4.015318653454301,10.115537019619198,-13.620202906074528
-0.5371016313847257,-2.6859137088071514,1.3604078929818046,-4.151520682515046,11.113936907656848,-12.849614018516615
-0.5639607684727972,-2.574774339730583,1.3188926861566541,-4.280016822700212,12.10023310252857,-12.08501746275152
-0.589708511870103,-2.453772008705297,1.276092517929652,-4.400866997327727,13.067037185623922,-11.339231936948355
-0.614246231957156,-2.323101636849058,1.2320838479563747,-4.514259316697211,14.007700924937444,-10.625486976819845
-0.6374772483256466,-2.1830246275996834,1.1869412547894027,-4.620514186465409,14.916567627982488,-9.95723298488076
-0.6593074946016434,-2.0338589513198584,1.1407361129247486,-4.7200865163142165,15.789216152727468,-9.347964655294538
-0.679646084114842,-1.8759667897925838,1.0935352477616065,-4.813566162867162,16.62268924307327,-8.811071729172587
-0.6984057520127678,-1.7097398973618512,1.0453995861329348,-4.901676880158888,17.41569903964143,-8.359731729450354
-0.7155031509863863,-1.5355829069654368,0.9963828173313459,-4.985274197453392,18.16880473858281,-8.006859129824816
-0.7308589800560407,-1.3538948595796088,0.946530075356812,-5.06534278875164,18.884560265091352,-7.765124298633206
-0.7443979286518367,-1.1650492569286952,0.8958766474692956,-5.142994031737972,19.567633163588223,-7.647053604378531
-0.7560484212211237,-0.9693729252928129,0.8444467071519159,-5.219464567781757,20.224899184965167,-7.665219363146515
-0.7657421504740518,-0.7671239334431612,0.7922520614740983,-5.296116761413222,20.86551958589789,-7.832524798941783
-0.7734133898084834,-0.5584687375841824,0.739290893859966,-5.37444200940264,21.501008987663948,-8.162584437429105
-0.7789980771843252,-0.34345864770754286,0.6855464737659397,-5.456067853776931,22.145299328537128,-8.670193119133538
-0.7824326636614006,-0.1220056544221716,0.6309857952281703,-5.542769784968266,22.81479759308285,-9.371864332008478
-0.7836527202056224,0.1061423215086569,0.5755580973784876,-5.636488428288351,23.528417352317664,-10.286395226321742
-0.7825912969905358,0.34142649503183353,0.5191932130956041,-5.739352380551569,24.307528804437784,-11.435370624504156
-0.7791770320402174,0.5845017830762114,0.46179968929008836,-5.853706086796611,25.17570411758894,-12.843430875985842
-0.7733320142094553,0.8362588242521007,0.40326262842212224,-5.982140395556469,26.158006510273655,-14.537959463251072
-0.7649694259669343,1.0978388893548372,0.34344122446655756,-6.127519990188979,27.279330642641984,-16.547522917085143
-0.7539910370733859,1.370632195781257,0.2821660245646678,-6.29299521935983,28.560853949613318,-18.897784723313656
-0.7402847151155734,1.6562407352773902,0.21923607237106946,-6.481973066592967,30.012840046567852,-21.602484865212887
-0.7237223077627994,1.9563691357430688,0.1544163417051398,-6.697997915245096,31.62059444921399,-24.645066316349826
-0.7041586164053688,2.2725750802352085,0.08743636255268883,-6.944448578408594,33.318033522703296,-27.94322961142997
-0.6814328656030167,2.6057554154622413,0.01799187676860288,-7.223880874522894,34.94022215183695,-31.284235904855294
-0.6553753114483943,2.9551576369806107,-0.05424693197662607,-7.536723233571447,36.144563943402524,-34.21611690202686
-0.6258237350785882,3.316603276414636,-0.12961416431234055,-7.878884402591716,36.299151362989164,-35.89155651108111
-0.5926577023144419,3.6795947900445274,-0.2084030083382577,-8.237799967702527,34.38117421110336,-34.92193363068366
-0.5558617544139967,4.023406532155561,-0.29078100801528295,-8.587019304009363,29.048116386314316,-29.46483599674838
-0.515627689092441,4.313887696018704,-0.3766512010553766,-8.881667663976847,19.206923843046866,-17.9951964763355
-0.472488812132254,4.505956934449173,-0.4654678776951451,-9.061619628740202,5.240294576926157,-0.9840735058258785
-0.4274292427877623,4.558359880218434,-0.5560840739825471,-9.07146036379846,-10.0420492024957,17.798030470992725
-0.38184564398557796,4.457939388193477,-0.6467986776205317,-8.893480059088533,-22.581953674620483,32.903853473696536
-0.3372662501036432,4.232119851447272,-0.735733478211417,-8.564441524351569,-29.934576738019956,41.116005676109374
-0.2949450515891705,3.932774084067072,-0.8213778934549327,-8.153281467590475,-32.43676270242344,42.990704377142684
-0.2556173107484998,3.608406457042838,-0.9029107081308375,-7.723374423819048,-31.838739707399032,40.94447064253607
-0.21953324617807143,3.2900190599688477,-0.980144452369028,-7.3139297173936875,-29.765083648716953,37.16376488942823
-0.18663305557838294,2.992368223481678,-1.053283749542965,-6.942292068499405,-27.217343259671438,32.9613852408684
-0.15670937334356616,2.7201947908849635,-1.1227066702279591,-6.612678216090721,-24.68850401647973,28.957228988414027
-0.12950742543471652,2.473309750720166,-1.1888334523888664,-6.323105926206581,-22.378523486358773,25.381560522557518
-0.10477432792751486,2.2495245158565784,-1.2520645116509321,-6.069290320981006,-20.344215730979982,22.280351241695065
-0.08227908276894907,2.0460823585467787,-1.3127574148607422,-5.846486808564055,-18.580171419158432,19.62371546217184
-0.061818259183481286,1.8602806443551942,-1.3712222829463827,-5.650249653942337,-17.05770601864377,17.356722234388734
-0.04321545273992934,1.6897035841687567,-1.4277247794858061,-5.47668243159845,-15.742270571469454,15.421220151700268
-0.026318416898241773,1.532280878454062,-1.4824916038017906,-5.322470230081447,-14.600628676358374,13.764201364871207
-0.010995608113701153,1.3862745916904782,-1.5357163061026051,-5.184828216432735,-13.603393784784956,12.340251506475479
0.002867137803203629,1.2502406538426287,-1.5875645882669325,-5.06142570136798,-12.725560785783337,11.111567241845496
0.015369544341629916,1.1229850459847954,-1.6381788452806123,-4.950310028949525,-11.94623676183604,10.047092542210322
0.02659939480147787,1.003522678366435,-1.6876819455701075,-4.849839103527422,-11.248106915464964,9.121437544468808
0.03663462158514222,0.8910416092117854,-1.7361803366053818,-4.758624728082735,-10.616863754388266,8.313844716422201
0.04554503767726007,0.7848729716679028,-1.7837665838862091,-4.675486280918513,-10.040688051775291,7.607291792197519
0.0533937673939391,0.6844660911501499,-1.8305214466953943,-4.599413362996538,-9.509808390218367,6.987747186833177
0.0602384283054406,0.5893680072479662,-1.8765155803253597,-4.529535891128206,-9.016140136647717,6.4435652232593235
0.06613210837792026,0.4992066058814891,-1.9218109392366418,-4.465100238895613,-8.552994920533306,5.964999911115658
0.07112417443673515,0.413676656676156,-1.966461941625598,-4.405450239784456,-8.114849033363441,5.543815607734763
0.0752609410034967,0.3325281663425216,-2.0105164440234424,-4.350012083707108,-7.6971594592716,5.172975489170662
0.07858622266692192,0.25555657174980556,-2.0540165648605133,-4.298282328815402,-7.29621759544745,4.846392122457884
0.08114178838441997,0.18259439579533104,-2.0969993881486673,-4.249818407590823,-6.909032303265592,4.558727651599577
0.08296773234237328,0.11350407276267512,-2.1394975722245757,-4.204231131074827,-6.533235416767602,4.305233874707956
0.08410277307000004,0.048171718594999094,-2.181539883535324,-4.161178792327747,-6.167004117515574,4.081624737088958
0.08458449025595002,-0.013498322580156645,-2.2231516714586013,-4.1203625449568575,-5.808995653735072,3.883975532478573
0.08444950703014846,-0.07158827911750737,-2.2643552969081697,-4.081522789632071,-5.45829076440007,3.7086444603211794
0.08373362423897339,-0.12617118676150807,-2.3051705248044905,-4.04443634502886,-5.114342903327891,3.5522132015152033
0.08247191237135831,-0.17731461579478697,-2.345614888254779,-4.008914213013708,-4.776930981013444,3.411443911294292
0.08069876621341045,-0.2250839256049214,-2.385704030384916,-3.9747997739007648,-4.446113883372808,3.283250538847743
0.07844792695736123,-0.2695450644386495,-2.4254520281239236,-3.9419672685122875,-4.122185509758072,3.164682713094366
0.07575247631297474,-0.31076691953623026,-2.4648717008090464,-3.910320441381344,-3.8056295128812865,3.0529206201562507
0.07264480711761244,-0.3488232146650431,-2.5039749052228597,-3.8797912351797814,-3.497073328925202,2.9452793733271627
0.069156574970962,-0.38379394795429517,-2.5427728175746576,-3.85033844144651,-3.1972414592757223,2.839221370493995
0.06531863549141906,-0.4157663625470524,-2.5812762019891227,-3.8219462277415697,-2.906908303168365,2.73237507492305
0.06116097186594854,-0.44483544557873606,-2.6194956642665383,-3.7946224769923393,-2.626851136643043,2.6225585694664004
0.056712617410161176,-0.4711039569451665,-2.6574418890364617,-3.7683968912976753,-2.3578040789365478,2.5078061463788655
0.05200157784070951,-0.494681997734532,-2.6951258579494386,-3.743318829833887,-2.100414073600219,2.386396127679579
0.04705475786336419,-0.5156861384705341,-2.7325590462477773,-3.719454868557091,-1.8552000299535278,2.2568780838658213
0.041897896478658846,-0.5342381387700694,-2.769753594933348,-3.6968860877184326,-1.622516315071437,2.11809764718754
0.036555515090958154,-0.5504633019207837,-2.8067224558105326,-3.675705111246557,-1.4025217549444975,1.9692172099234875
0.031050882071750316,-0.5644885194702287,-2.843479506922998,-3.656012939147322,-1.1951551975554064,1.8097309626827625
0.025405996877048028,-0.5764400714457828,-2.8800396363144714,-3.6379156295204944,-1.000118516654751,1.6394729611440768
0.0196415961625902,-0.5864412566123303,-2.9164187926096763,-3.621520899909054,-0.8168677034398245,1.4586172044755616
0.013777183596466895,-0.5946099336467285,-2.9526340016087667,-3.606934727864298,-0.6446124180065521,1.267669052533643
0.00783108425999961,-0.601056057826794,-2.9887033488874097,-3.5942580373389617,-0.4823240694991446,1.0674476855731676
0.0018205236817316704,-0.6058792985217855,-3.0246459292607994,-3.58358356048323,-0.3287521804103615,0.8590597010519457
-0.004238269303486184,-0.6091668203258891,-3.060481764865632,-3.5749929634727104,-0.18244848317024195,0.6438643279231809
-0.010329937506745076,-0.6109913051575915,-3.096231694500359,-3.5685543201934786,-0.04179791111160737,0.42343110113173704
-0.016439850558320993,-0.6114092842687076,-3.131917237702294,-3.564320009182161,0.09494460618968212,0.1994911614418441
-0.022553943401008067,-0.6104598382068107,-3.1675604377941156,-3.5623250975677427,0.2296128415025317,-0.026116385352370694
-0.028658541783076176,-0.6081637097917854,-3.203183688769793,-3.5625862614212664,0.36408491835589996,-0.25150141068270426
-0.03474017888099403,-0.6045228606082264,-3.2388095513840054,-3.5651012755280935,0.5002374678161662,-0.4747812335632568
-0.04078540748707629,-0.5995204859300647,-3.2744605641392863,-3.569849087863726,0.6398998978039115,-0.6941387863381728
-0.04678061234637694,-0.5931214869520256,-3.3101590550179236,-3.576790475727108,0.7848103675191261,-0.9078786598440395
-0.0527118272158972,-0.5852733832768343,-3.345926959775195,-3.585869262325548,0.9365749918626922,-1.114479303484003
-0.058564561048665545,-0.5759076333582074,-3.38178565239845,-3.597014055360388,1.096631679466064,-1.3126398181670946
-0.06432363738224761,-0.5649413165635467,-3.417755792952054,-3.610140453542059,1.266219836932501,-1.5013200072941886
-0.06997305054788308,-0.5522791181942217,-3.4538571974874746,-3.625153653615001,1.446356956638077,-1.6797726342057886
-0.07549584172982529,-0.537815548627841,-3.4901087340236248,-3.641951379957059,1.637822853342127,-1.8475671623609224
-0.08087399721610371,-0.5214373200944197,-3.526528247823195,-3.660427051580668,1.8411520354365076,-2.0046046130968866
-0.08608837041704791,-0.5030257997400546,-3.563132518339002,-3.680473097711637,2.0566344015417215,-2.1511235491288745
-0.09111862841444845,-0.48245945572463733,-3.599937249316118,-3.7019843332029256,2.2843241557339007,-2.2876975626356986
-0.09594322297169483,-0.4596162141672983,-3.6369570926481476,-3.724861308829283,2.5240565494798886,-2.415224997222837
-0.10053938511336781,-0.43437564867249945,-3.6742057057364406,-3.749013558801511,2.775471800081237,-2.5349119466772208
-0.10488314160009281,-0.4066209306716871,-3.7116958413244556,-3.7743626782682833,3.0380453178917426,-2.6482498360714852
-0.10894935090680968,-0.3762404774927697,-3.7494394681071386,-3.8008451766289983,3.3111232095792724,-2.7569890919612785
-0.11271175568173739,-0.343129245396977,-3.7874479198734288,-3.8284150675486113,3.5939619210905502,-2.8631105423145273
-0.11614304813570715,-0.3071896261860715,-3.825732070548915,-3.8570461729717564,3.8857708469643053,-2.9687962527631515
-0.11921494439756787,-0.26833191771642845,-3.8643025322786326,-3.886734135499388,4.185756763540938,-3.0764015083572303
-0.12189826357473216,-0.22647435008101907,-3.9031698736336264,-3.91749815058296,4.493169039994053,-3.1884295986362434
-0.12416300707554234,-0.18154265968107852,-3.942344855139456,-3.9493824465693224,4.807344737297174,-3.3075109719638105
-0.12597843367235312,-0.13346921230810677,-3.9818386796051493,-3.9824575562889604,5.127752913196386,-3.4363882091877107
-0.1273131257954342,-0.0821916831761429,-4.021663255168039,-4.016821438380838,5.454037701627692,-3.577908145218788
-0.1281350426271956,-0.027651306159865968,-4.061831469551847,-4.0526005198330255,5.786060018261331,-3.7350223594481267
-0.12841155568879425,0.030209294022747343,-4.102357474750177,-4.089950743427507,6.123938051380521,-3.9107971815577445
-0.12810946274856677,0.09144867453655256,-4.143256982184453,-4.129058715243085,6.468087022446328,-4.108434337362446
-0.12719497600320123,0.15612954476101584,-4.184547569336884,-4.170143058616709,6.819259039513365,-4.331303408384125
-0.12563368055559107,0.2243221351561495,-4.226248999923051,-4.21345609270055,7.178584218403192,-4.582987416880287
-0.12339045920402958,0.2961079773401814,-4.268383560850056,-4.259285966869353,7.547614613809156,-4.8673430926119154
-0.12042937943062776,0.37158412347827297,-4.31097642051875,-4.3079593977954715,7.928372890828005,-5.188577745992815
-0.11671353819584503,0.450867852386553,-4.354056014496704,-4.3598451752553995,8.323408084035313,-5.551345180801035
-0.11220485967197949,0.5341019332269061,-4.397654466249258,-4.4153586270634095,8.735861242494519,-5.960863741939951
-0.10686384033971043,0.6214605456518514,-4.441808052519892,-4.474967264482809,9.169544245346499,-6.42306041569541
-0.10064923488319191,0.7131559881053163,-4.486557725164721,-4.539197868639763,9.629035578421512,-6.944745868986511
-0.09351767500213876,0.8094463438895314,-4.531949703851118,-4.608645327329628,10.11979733794637,-7.533826377211764
-0.08542321156324344,0.9106443172689951,-4.578036157124414,-4.683983591101746,10.648318054062425,-8.199559610281336
-0.07631676839055349,1.0171274978096194,-4.624875993035431,-4.765979187204559,11.222285850676107,-8.952861916963895
-0.06614549341245729,1.1293503563163805,-4.672535784907477,-4.855507806374198,11.8507954653934,-9.8066744288699
-0.05485198984929349,1.2478583109703145,-4.721090862971218,-4.953574550662897,12.544589732785198,-10.776392706552897
-0.04237340673959034,1.3733042082981666,-4.770626608477847,-5.061338477728426,13.316329323496337,-11.880357216898334
-0.02864036465660868,1.50646750153313,-4.821239993255131,-5.180142049897409,14.18087004536348,-13.140384657456
-0.013575689641277379,1.6482762019867647,-4.873041413754105,-5.311545896471969,15.155497562856963,-14.58228326630045
0.0029070723785902686,1.7998311776153344,-4.926156872718825,-5.4573687291349735,16.260010947489732,-16.23621977440978
0.020905384154743613,1.9624312870902316,-4.980730560010175,-5.619730926879071,17.51643204137872,-18.13665467477244
0.04052969702564593,2.137595607504019,-5.036927869278966,-5.801097473626795,18.947895488865996,-20.321264733451176
0.06190565310068612,2.3270745623926787,-5.094938844015234,-6.004310120961307,20.575846661619885,-22.82769132395287
0.08517639872461291,2.5328330290088776,-5.154981945224847,-6.232587034200836,22.413862131247473,-25.685839068186684
0.11050472901470168,2.7569716503213524,-5.217307815566856,-6.489445424882702,24.454902778813665,-28.901367532111145
0.1380744455179152,3.001520678109489,-5.2822022698156825,-6.778459100203814,26.646172762488764,-32.42233680865503
0.1680896522990101,3.2679824057343767,-5.349986860817721,-7.102682468290364,28.8416880010984,-36.07521763258217
0.20076947635635387,3.5563992857453606,-5.421013685500625,-7.463434644616186,30.718398693158743,-39.45027870966485
0.23633346921380746,3.863583272676948,-5.495648031946787,-7.857937431712834,31.644961261584875,-41.72023855119478
0.27496930194057695,4.180032885292797,-5.5742274062639146,-8.275139817224781,30.529477716746,-41.42662645737245
0.3167696307935049,4.485327662460257,-5.656978804436163,-8.689406081798506,25.80136792344222,-36.445904666843845
0.3616229074181075,4.74334134169468,-5.743872865254148,-9.053865128466944,15.925023306005702,-24.683914495815742
