th1 (rad),w1 (rad/s),th2 (rad),w2 (rad/s)
3.1549084062695365,-2.8610577248275697,1.2789277236125371,-0.9834738575957653
3.1262978290212606,-2.86700480997666,1.2690929850365795,-1.0010420912990237
3.097627780921494,-2.8757384145348936,1.2590825641235892,-1.018234083339947
3.068870396776145,-2.8872363908333134,1.2489002232901898,-1.0348012526759778
3.039998032867812,-2.901480488328733,1.23855221076343,-1.0504934986782717
3.0109832279845246,-2.918456051998958,1.2280472757766472,-1.0650584421317506
2.981798667464535,-2.9381517928871577,1.2173966913553296,-1.0782406999154244
2.9524171495356635,-2.9605596413186124,1.2066142843561753,-1.0897811910082442
2.9228115531224774,-2.985674694385765,1.195716472446093,-1.0994164703116127
2.89295480617862,-3.013495270588038,1.1847223077429767,-1.1068780854422433
2.8628198534727396,-3.0440230860229356,1.1736535268885542,-1.1118919500371582
2.8323796226125104,-3.0772635682636507,1.1625346073881826,-1.1141777251311533
2.801606986929874,-3.1132263260434136,1.151392830136871,-1.1134481977160153
2.7704747236694396,-3.1519257951257305,1.1402583481597108,-1.1094086425647496
2.7389554657181825,-3.1933820833116995,1.1291642617340634,-1.1017561496924884
2.7070216448850655,-3.23762204047371,1.1181467002371386,-1.0901788953141889
2.674645424480328,-3.2846805828774803,1.1072449112839966,-1.0743553287322851
2.641798618651553,-3.334602304946952,1.0965013579966738,-1.0539532411342925
2.608452595602084,-3.3874434161409073,1.085961825585331,-1.028628674704256
2.574578161440675,-3.4432740458609272,1.0756755388382884,-0.9980246216869368
2.5401454209820655,-3.5021809654145586,1.065695292621419,-0.9617694530825041
2.50512361132792,-3.564270783112822,1.0560775980905939,-0.9194750055909643
2.469480903496792,-3.6296736766227884,1.0468828480346841,-0.8707342435537632
2.4331841667305643,-3.698547735618564,1.0381755055991464,-0.8151184005582167
2.3961986893743785,-3.7710839971922474,1.0300243215935643,-0.7521734942263785
2.358487849402456,-3.8475122654903533,1.0225025866513004,-0.6814160995755683
2.3200127267475525,-3.928107813773713,1.0156884256555447,-0.6023282648508569
2.2807316486098155,-4.013199068027245,1.0096651430070362,-0.5143514651795813
2.240599657929543,-4.103176359911087,1.0045216283552405,-0.4168795245660241
2.199567894330432,-4.198501801714278,1.0003528331095803,-0.3092505140318368
2.157582876313289,-4.2997202567586905,0.997260327969262,-0.19073778445485168
2.1145856737457023,-4.407471220049636,0.9953529501247135,-0.06054057019396905
2.0705109615452058,-4.5225011246761,0.9947475444227738,0.08222490541838162
2.0252859502984446,-4.645675044180384,0.9955697934769576,0.23853202529548503
1.9788291998566407,-4.777985789767626,0.9979551137299125,0.4094447793569526
1.9310493419589645,-4.920556699269151,1.0020495615234821,0.5961073109439665
1.8818437749662729,-5.0746314766065606,1.0080106346329218,0.7997118006185638
1.8310974602002072,-5.241539454363711,1.0160077526391076,1.0214272067735823
1.77868206565657,-5.422616395613906,1.0262220247068434,1.2622594883033356
1.724455901700431,-5.619047821593767,1.0388446195898768,1.5227952334576953
1.6682654234844934,-5.831582464809129,1.0540725719244537,1.8027533402263458
1.609949598836402,-6.0600389827432295,1.0721001053267172,2.1002355975028353
1.5493492090089698,-6.302510032840634,1.0931024613017455,2.410542315165892
1.4863241086805634,-6.554189556882514,1.1172078844534044,2.7244548337624512
1.4207822131117382,-6.805896753737646,1.1444524327910288,3.0261049764091146
1.3527232455743619,-7.042783765603366,1.17471348255512,3.2911517216848756
1.2822954079183282,-7.2444550352017885,1.2076249997719688,3.4870521247600594
1.2098508575663103,-7.388315588767797,1.2424955210195694,3.578056073566742
1.1359677016786323,-7.4569106398905,1.2782760817552368,3.5360319569320264
1.0613985952797274,-7.446197587166431,1.313636401324557,3.352725734349933
0.9869366194080631,-7.368332602953412,1.3471636586680562,3.0441701908530754
0.913253293378529,-7.24589458100813,1.377605360576587,2.6426577703297043
0.8407943475684477,-7.102321159081561,1.404031938279884,2.1829789377015962
0.7697711359776321,-6.955382375339991,1.4258617276569,1.6927688575136874
0.7002173122242322,-6.815634658064295,1.4427894162320367,1.1899493228965423
0.6320609656435893,-6.687790876209783,1.454688909461002,0.6844571297169373
0.5651830568814914,-6.5727316580176085,1.4615334807581715,0.18102543506093105
0.49945574030131534,-6.469116875592667,1.4633437351087808,-0.3185151261729048
0.43476457154538867,-6.374423422949999,1.4601585838470517,-0.8137144308261521
0.3710203373158887,-6.285542775039055,1.45202143953879,-1.3046045964010171
0.30816490956549814,-6.199104455125827,1.4389753935747798,-1.7912091917402306
0.24617386501423988,-6.111647468653937,1.4210633016573775,-2.273297618048674
0.18505739032770052,-6.019715256534474,1.3983303254768908,-2.7502836466209146
0.12486023776235577,-5.919917092216798,1.3708274890106817,-3.2212104463816584
0.0656610668401878,-5.808978697726257,1.3386153845468651,-3.6847904957442625
0.0075712798629252245,-5.683792883227204,1.3017674795894225,-4.139483039194998
-0.049266648969346814,-5.541473837386837,1.2603726491974725,-4.583598869773992
-0.1046813873432152,-5.379414238759267,1.2145366604997325,-5.01542527459778
-0.15847552973080786,-5.195341507453291,1.1643824077537548,-5.433364878131898
-0.21042894480534077,-4.987367744287147,1.1100487589724357,-5.836082039890921
-0.26030262224821227,-4.754027009199331,1.0516879385735265,-6.222650167649032
-0.30784289234020557,-4.494293526965202,0.9894614368970361,-6.592693287120472
-0.3527858276098576,-4.207575184210954,0.9235345040258314,-6.946515757736599
-0.39486157945196715,-3.8936782989356704,0.8540693464484654,-7.285215239687785
-0.43379836244132386,-3.552742083522884,0.7812171940515876,-7.61077576372216
-0.4693257832765527,-3.185144494131624,0.7051094364143661,-7.926139578769862
-0.5011772282178689,-2.7913854500680184,0.6258480406266674,-8.235257424713136
-0.5290910827185491,-2.371959396590703,0.543495466379536,-8.5431152766338
-0.5528106766844562,-1.9272386574186597,0.45806431361319805,-8.855728244237536
-0.5720830632586428,-1.4574060044312505,0.3695070311708227,-9.180073120060145
-0.5866571233029553,-0.9625076900732329,0.2777062999702212,-9.523888313842626
-0.5962822002036876,-0.44276285640200097,0.18246741683179496,-9.895181282624591
-0.6007098287677076,0.1006107572212176,0.08351560400554904,-10.30111016690766
-0.5997037211954954,0.6635766966211697,-0.019495497663527567,-10.745596462576101
-0.5930679542292837,1.2356824110971174,-0.12695146228928858,-11.224579695369009
-0.5807111301183125,1.7937805440920742,-0.2391972592429787,-11.717594512832473
-0.5627733246773918,2.2933899802459115,-0.35637320437130343,-12.175908786093432
-0.5398394248749327,2.663336796794466,-0.47813229223223774,-12.514592460993867
-0.5132060569069881,2.819428071770494,-0.6032782168421764,-12.629669055012323
-0.48501177618928315,2.710565203477007,-0.7295749073922997,-12.458497358166216
-0.4579061241545131,2.3657001018043675,-0.8541598809739619,-12.04078229444896
-0.4342491231364694,1.8774162669718157,-0.9745677039184515,-11.494839346422722
-0.41547496046675125,1.3378691227033785,-1.0895160973826787,-10.932931131570452
-0.4020962692397175,0.802789169142463,-1.1988454086983833,-10.416830980037208
-0.3940683775482928,0.2957707591902997,-1.3030137184987554,-9.966500045457382
-0.3911106699563898,-0.17691298874137928,-1.4026787189533292,-9.580801610727255
-0.3928797998438036,-0.616105574448326,-1.4984867350606017,-9.25091215484204
-0.3990408555882869,-1.0248218185129752,-1.590995856609022,-8.966428880314874
-0.40928907377341667,-1.4062353645851737,-1.6806601454121708,-8.717627386322095
-0.4233514274192684,-1.7629870150988776,-1.7678364192753917,-8.49609168912717
-0.44098129757025717,-2.097031073685122,-1.8527973361666634,-8.2947449817034
-0.4619516083071084,-2.4096834958889963,-1.9357447859836974,-8.107698646568737
-0.4860484432659984,-2.701735591996762,-2.0168217724493847,-7.9300743786066645
-0.513065799185966,-2.9735804579694696,-2.096122516235451,-7.757849398494429
-0.5428016037656607,-3.2253328101251277,-2.1737010102203955,-7.587735021716983
-0.5750549318669119,-3.4569358067699167,-2.249578360437565,-7.417084997022454
-0.609624289934611,-3.6682530836297915,-2.3237492104077897,-7.243826180353619
-0.646306820770909,-3.859145713770689,-2.396187472211326,-7.066404004310632
-0.6848982779086158,-4.029534217478052,-2.4668515122544323,-6.883736402394103
-0.7251936200833963,-4.17944591938619,-2.5356888762783734,-6.695171411261276
-0.7669880792772582,-4.309048165471425,-2.602640590390986,-6.500445234261006
-0.8100785609319725,-4.418668225670428,-2.667645042733596,-6.299638949397538
-0.8542652431886768,-4.508801078292033,-2.7306414322275714,-6.093133209131785
-0.8993532539715972,-4.580106630756707,-2.7915727643188895,-5.881561170827568
-0.9451543202791642,-4.633398213292705,-2.850388376027165,-5.665760505592583
-0.9914883024120913,-4.669624345238844,-2.907045981083091,-5.446725675098554
-1.0381845458644798,-4.689845801298242,-2.9615132378340765,-5.225561777194406
-1.0850830038774624,-4.695209905298827,-3.0137688556060205,-5.003441192578608
-1.1320351029304507,-4.686923776794732,-3.0638032675318065,-4.781564073013502
-1.1789043406983981,-4.666227985004903,-3.1116189082619417,-4.561123450569775
-1.2255666205484472,-4.634371760026284,-3.1572301427676392,-4.3432754626166
-1.27191033814871,-4.592590603402011,-3.2006628973938054,-4.129114912448759
-1.31783624418273,-4.542086851952329,-3.241954046518293,-3.9196561422578546
-1.3632571127022532,-4.484013495133544,-3.2811506079408717,-3.715818994920929
-1.4080972476535887,-4.419461334660881,-3.318308797890081,-3.518419487346982
-1.4522918610001976,-4.349449407692014,-3.353492992763551,-3.328164709396527
-1.4957863550771178,-4.274918469697867,-3.3867746398575163,-3.1456513943847977
-1.5385355397740965,-4.19672724618803,-3.418231153801364,-2.971367574383801
-1.5805028122359768,-4.115651108567756,-3.447944829545202,-2.805696730133412
-1.6216593233216543,-4.032382803104828,-3.476001796846536,-2.6489238656726615
-1.6619831513527026,-3.94753485789792,-3.5024910355032626,-2.501242976423236
-1.7014584999316817,-3.861643305810266,-3.527503465267495,-2.3627654313630875
-1.7400749329897844,-3.775172386954789,-3.5511311195811257,-2.233528850474594
-1.7778266568593324,-3.6885199283917416,-3.5734664080858716,-2.1135061236505504
-1.8147118561432498,-3.6020231376851357,-3.594601469322377,-2.0026142830461553
-1.8507320875201012,-3.515964587901878,-3.6146276121528382,-1.9007230044562007
-1.88589173339912,-3.430578212164398,-3.6336348421974,-1.8076625723367263
-1.920197515520764,-3.346055164202758,-3.651711467920767,-1.7232311959379651
-1.9536580671627917,-3.262549436259484,-3.6689437798801467,-1.64720160968949
-1.9862835615253864,-3.1801831564285385,-3.6854157959770415,-1.5793269290825052
-2.0180853930896716,-3.0990515137171726,-3.7012090652678666,-1.5193457639115404
-2.0490759082268433,-3.0192272807897202,-3.716402522906982,-1.4669866143141839
-2.0792681810347404,-2.940764921710796,-3.731072389050124,-1.421971592274484
-2.1086758302518485,-2.8637042854401233,-3.7452921049728687,-1.3840195229652292
-2.1373128731062496,-2.78807389582593,-3.7591323002025208,-1.3528484873814468
-2.1651936120645088,-2.713893855922366,-3.772660785076335,-1.3281778710333045
-2.1923325506237323,-2.6411783891410385,-3.7859425637866684,-1.3097299838320502
-2.2187443345151427,-2.569938042528814,-3.799039863624989,-1.2972313144400478
-2.244443714940431,-2.500181578785123,-3.8120121767693895,-1.2904134788857204
-2.269445530728282,-2.431917583874036,-3.8249163115582467,-1.2890139186823009
-2.293764706567022,-2.36515581656829,-3.8378064507450698,-1.292776398452691
-2.3174162647327052,-2.2999083252416557,-3.850734214729597,-1.3014513474793645
-2.3404153479851217,-2.236190355902992,-3.8637487282043903,-1.3147960839191917
-2.3627772515441516,-2.1740210739901027,-3.876896689043582,-1.3325749548353012
-2.3845174622840526,-2.113424120921088,-3.8902224385919353,-1.3545594198365363
-2.4056517034932634,-2.054428024906844,-3.9037680327903006,-1.3805281010732935
-2.426195983742332,-1.997066484104112,-3.9175733138010336,-1.410266817677799
-2.446166648583373,-1.9413785388559983,-3.9316759819778118,-1.4435686184934553
-2.465580433971933,-1.8874086485324968,-3.946111668162746,-1.4802338231288128
-2.484454520457258,-1.8352066873430286,-3.9609140063940345,-1.5200700779993006
-2.5028065873306886,-1.784827872435403,-3.9761147071740273,-1.5628924310750443
-2.5206548660550427,-1.7363326366064253,-3.991743631484778,-1.6085234265182795
-2.538018192421107,-1.6897864570127965,-4.007828865749961,-1.6567932182448997
-2.5549160569912353,-1.64525965037115,-4.024396797932409,-1.7075396996528094
-2.5713686534949467,-1.6028271442581843,-4.041472194928938,-1.7606086452931344
-2.5873969249375284,-1.5625682332521786,-4.059078281381869,-1.8158538590854345
-2.60302260727005,-1.52456632778324,-4.077236819972724,-1.8731373227608106
-2.6182682705478824,-1.4889087026699386,-4.095968193200331,-1.9323293375235473
-2.6331573575745817,-1.4556862514038413,-4.1152914865755665,-1.9933086514201885
-2.64771422008862,-1.424993251290678,-4.1352245730897685,-2.05596256456373
-2.6619641526015267,-1.396927143557768,-4.155784198735406,-2.120187004150644
-2.675933424037104,-1.3715883314827269,-4.1769860687769125,-2.185886561102015
-2.6896493073519316,-1.3490799984798434,-4.198844934387933,-2.2529744801307587
-2.70314010733673,-1.3295079468903788,-4.22137467918924,-2.3213725950592474
-2.716435186805634,-1.312980456955223,-4.244588405139832,-2.39101120126094
-2.729564991375186,-1.2996081640984005,-4.268498517152442,-2.4618288571514397
-2.74256107301617,-1.2895039512154787,-4.293116805723956,-2.533772106685199
-2.7554561125283246,-1.2827828511420278,-4.318454526790808,-2.606795114801263
-2.7682839410397446,-1.2795619528766022,-4.3445224779388205,-2.6808592076844184
-2.781079560568511,-1.2799603034559979,-4.371331070015665,-2.7559323095495736
-2.7938791636030706,-1.284098795636889,-4.39889039311116,-2.831988267404869
-2.8067201515594395,-1.2921000297404845,-4.4272102757852085,-2.9090060548975742
-2.8196411518568443,-1.3040881361835326,-4.456300336334184,-2.986968845900593
-2.8326820332186795,-1.3201885433739067,-4.48617002479319,-3.0658629479726214
-2.8458839186524187,-1.3405276738240783,-4.516828654272916,-3.145676585253018
-2.8592891953906596,-1.365232549573013,-4.548285420125446,-3.226398519782253
-2.8729415208863895,-1.3944302863613958,-4.580549405323269,-3.308016499740097
-2.8868858237500037,-1.4282474545477186,-4.613629570320669,-3.3905155227594577
-2.901168298295481,-1.4668092835746216,-4.6475347255482635,-3.473875902422383
-2.915836391131227,-1.510238686010384,-4.682273484572487,-3.5580711264218223
-2.9309387779913307,-1.5586550769408734,-4.717854195836706,-3.6430654958512845
-2.9465253287607394,-1.6121729649429508,-4.7542848507952185,-3.7288115368639887
-2.9626470584101687,-1.6709002922315437,-4.791572966163859,-3.8152471787454685
-2.979356061332484,-1.7349365040672884,-4.829725437951313,-3.902292696506571
-2.996705426373157,-1.8043703313895252,-4.868748364916379,-3.989847421669225
-3.0147491296870523,-1.8792772761606336,-4.9086468391330715,-4.077786232214094
-3.0335419024486585,-1.9597167963247504,-4.949424701455213,-4.165955841879313
-3.053139070411906,-2.0457291968156137,-4.991084259874006,-4.254170920266642
-3.073596362380062,-2.1373322448446923,-5.033625969076672,-4.342210088541852
-3.0949696848285093,-2.234517541799287,-5.077048069962091,-4.429811850773085
-3.1173148602465024,-2.3372467003540724,-5.121346188469822,-4.516670537794337
-3.1406873272500433,-2.445447393502004,-5.166512893847766,-4.602432358319727
-3.1651418011850634,-2.559009361521683,-5.212537217430963,-4.686691669985214
-3.19073189480028,-2.67778048248291,-5.259404134130816,-4.768987599864952
-3.217509699625109,-2.8015630304818013,-5.3070940101294655,-4.8488011583108435
-3.245525329929927,-2.9301102618115245,-5.355582021712574,-4.925552999975568
-3.2748264325480423,-3.0631234809005283,-5.40483755171233,-4.998601989777934
-3.3054576673570475,-3.2002497431871864,-5.454823571610109,-5.067244727630457
-3.3374601647889195,-3.341080349387917,-5.505496018886413,-5.130716172624918
-3.370870968282799,-3.4851502735351434,-5.556803180612662,-5.188191484428099
-3.40572247101815,-3.631938645184439,-5.608685095456943,-5.238789167316389
-3.4420418574699947,-3.7808703749438237,-5.661072987130107,-5.281575562412388
-3.479850561219433,-3.9313189740478993,-5.713888742754231,-5.315570689720597
-3.519163750959912,-4.082610576791855,-5.767044449651437,-5.339755398529609
-3.5599898567278303,-4.234029134510988,-5.8204420036367335,-5.353079748966818
-3.6023301480729404,-4.38482271785838,-5.873972801126402,-5.354472525843353
-3.646178375251524,-4.53421084722748,-5.927517526384835,-5.342851784760024
-3.691520483723799,-4.681392775425882,-5.980946044232436,-5.317136354105943
-3.738334411478058,-4.825556676198408,-6.034117407773495,-5.276258265729753
-3.786589978240042,-4.965889747422999,-6.086879990430793,-5.219176156999519
-3.836248875714272,-5.101589314321824,-6.139071752000788,-5.144889766286154
-3.88726476885749,-5.231875105490205,-6.19052064966365,-5.052455713847108
-3.939583519912392,-5.356002956435312,-6.241045206802121,-4.941004794995627
-3.9931435494767453,-5.47328024976012,-6.290455254752077,-4.809760981725272
-4.047876351974346,-5.583083403022507,-6.33855286456933,-4.658062200906199
-4.103707186004571,-5.684877639998681,-6.3851334865783915,-4.485382704790897
-4.160555962404557,-5.778239109669611,-6.429987313626301,-4.291356458350487
-4.218338353501253,-5.8628791431172,-6.472900878209805,-4.075800444815502
-4.276967144932425,-5.938670074388245,-6.5136588826579604,-3.838736172604547
-4.3363538456763076,-6.005671635252167,-6.552046244384006,-3.5804070259962253
-4.396410562028829,-6.06415653142039,-6.587850314643968,-3.3012885453254204
-4.457052127343033,-6.114633509178805,-6.620863200097222,-3.00208838025864
-4.518198462434821,-6.157866128805979,-6.6508840838998085,-2.683732661359401
-4.579777123722881,-6.194885668877056,-6.677721410513403,-2.347335974735126
-4.6417259804116515,-6.226997154085875,-6.701194770260754,-1.9941530211085603
-4.7039959519525105,-6.2557784311217395,-6.72113630047184,-1.6255113060844297
-4.766553736263728,-6.283073443973975,-6.737391413532684,-1.242725636992669
-4.829384470703468,-6.310982248995666,-6.749818669902611,-0.8469964923692607
-4.892494293193425,-6.341851693375053,-6.758288634826304,-0.43929514218572163
-4.955912810127176,-6.378271901782505,-6.762681586248161,-0.020238427336743914
-5.019695529145,-6.423084676900301,-6.7628839705215285,0.4100448328484265
-5.083926375914003,-6.479410607640074,-6.758783522193045,0.8520557633847261
-5.148720481990404,-6.550702148099731,-6.750262964559197,1.3070783683218077
-5.214227503471402,-6.640830205411731,-6.737192180875979,1.7773492191246143
-5.280635805525519,-6.754211614704326,-6.719418688684733,2.266252104863776
-5.348177921672563,-6.895983238772508,-6.696756167636096,2.778545699049176
-5.417137754060288,-7.072222185332491,-6.668970710645604,3.3206247094324537
-5.487859975913613,-7.29019246588684,-6.63576446355128,3.9007879993173398
-5.560761900572482,-7.5585450618108885,-6.596756583558107,4.529410807897655
-5.636347351190591,-7.887257635735651,-6.551462475479131,5.218717760630481
-5.715219927547947,-8.286743482264216,-6.499275297872826,5.981348538870168
-5.798087362370589,-8.76470305968747,-6.439461812484124,6.825701508091658
-5.885734392967464,-9.317472617878224,-6.371204797403207,7.743486437925996
-5.9789091191462465,-9.910025630286585,-6.293769933023947,8.68128942014186
-6.0780093754491125,-10.441355037225,-6.206957038822528,9.491672151212036
-6.1824229258213625,-10.72408928685534,-6.112040317310408,9.904787860889847
-6.289663818689916,-10.578208666565939,-6.0129924387015095,9.661700491663975
-6.395445905355575,-10.042712650149568,-5.91637543378487,8.814754999487741
