th1 (rad),w1 (rad/s),th2 (rad),w2 (rad/s),a1 (rad/s^2),a2 (rad/s^2)
1.8822595773611235,-2.4404789184271647,3.053365082738124,-1.5755193810505486,-7.518956315972011,-3.4241291369513815
1.857854788176852,-2.515668481586885,3.0376098889276184,-1.6097606724200624,-7.432104257852853,-4.03529977944222
1.832698103360983,-2.5899895241654134,3.021512282203418,-1.6501136702144845,-7.333018605627691,-4.665082721979999
1.806798208119329,-2.6633197102216903,3.005011145501273,-1.6967644974342846,-7.220682491029616,-5.312450980629935
1.780165011017112,-2.7355265351319864,2.98804350052693,-1.749889007240584,-7.0938708979309775,-5.9762194405499605
1.7528097456657923,-2.8064652441112963,2.970544610454524,-1.8096512016460835,-6.951134122508103,-6.655029751227056
1.7247450932246793,-2.8759765853363772,2.9524480984380634,-1.876201499158354,-6.790783205915143,-7.34733432511341
1.6959853273713155,-2.9438844173955285,2.9336860834464797,-1.949674842409488,-6.61087803215479,-8.051380045253126
1.6665464831973602,-3.0099931977170766,2.914189335022385,-2.0301886428620195,-6.409218867784184,-8.765192517014453
1.6364465512201893,-3.0740853863949185,2.8938874485937647,-2.117840568032164,-6.183342204201335,-9.486561952388623
1.6057056973562402,-3.135918808436932,2.872709042913443,-2.2127061875560505,-5.930521842231923,-10.213032046370131
1.574346509271871,-3.195224026859251,2.8505819810378825,-2.3148365080197517,-5.64777622465418,-10.941893485212518
1.5423942690032784,-3.251701789105793,2.827433615957685,-2.424255442871877,-5.331883064261105,-11.670184004577042
1.5098772511122205,-3.305020619748404,2.8031910615289664,-2.540957282917647,-4.979402319018662,-12.394697177270706
1.4768270449147365,-3.3548146429385906,2.77778148869979,-2.664904254690354,-4.586708514722095,-13.11200233742939
1.4432788984853506,-3.4006817280858117,2.7511324461528863,-2.796024278064648,-4.150033289523061,-13.81847821914057
1.4092720812044925,-3.4421820609810423,2.72317220337224,-2.9342090602560535,-3.665518812268847,-14.510362977948287
1.3748502605946822,-3.478837249103731,2.6938301127696795,-3.0793126900355365,-3.129282385906424,-15.183823246493976
1.3400618881036448,-3.510130072962795,2.6630369858693244,-3.2311509225004764,-2.5374920682050734,-15.83504472307457
1.3049605873740169,-3.535504993644846,2.6307254766443195,-3.389501369731222,-1.886452509408751,-16.460346478158197
1.2696055374375683,-3.5543695187389335,2.596830462947007,-3.5541048345128043,-1.172699413301698,-17.056320667718566
1.234061842250179,-3.5660965128719506,2.561289414601879,-3.72466804118999,-0.3931000808402591,-17.619998651118866
1.1984008771214596,-3.5700275136803534,2.524042734189979,-3.9008680277011787,0.455043581199514,-18.149043625489718
1.162700601984656,-3.5654770778683584,2.485034053912967,-4.0823584639560755,1.3738943607324463,-18.64196882498835
1.1270458312059723,-3.551738134261034,2.4442104692734063,-4.268778152205959,2.3649872801195393,-19.098379127652976
1.091528449863362,-3.5280882614598386,2.401522687751347,-4.459761943482489,3.429152341664941,-19.519232617830703
1.0562475672487635,-3.4937967380431894,2.356925068316522,-4.654954269660796,4.566460197544372,-19.907117330831195
1.0213095998683315,-3.4481321360677457,2.3103755256199143,-4.854025442969108,5.776198710292448,-20.26653711115976
0.986828278507654,-3.3903701489648213,2.261835271190223,-5.056690814080706,7.0568878208968755,-20.604199251396214
0.9529245770180058,-3.3198012707558524,2.2112683630494163,-5.262732806594668,8.406338404911198,-20.929295235155234
0.9197265643104473,-3.2357378867067403,2.1586410349834697,-5.472025758946221,9.821757327962807,-21.25376414265663
0.88736918544338,-3.137520313427112,2.1039207773940074,-5.684563400372787,11.299894905667733,-21.59252532136854
0.8559939823091088,-3.0245213643704347,2.0470751433902796,-5.900488653586472,12.837221161574837,-21.963661247587172
0.8257487686654045,-2.8961491527546865,1.9880702568544149,-6.1201252660623435,14.430101553934847,-22.38852025460821
0.7967872771378576,-2.751848137215338,1.9268690041937915,-6.344010468608426,16.07491758362254,-22.891686833655392
0.7692687957657042,-2.591098961379113,1.8634288995077073,-6.572927336944979,17.768036564061916,-23.500725416322002
0.743357806151913,-2.4134185957384937,1.7976996261382574,-6.807934591108199,19.505466735930735,-24.24552599312907
0.7192236201945281,-2.2183639283791865,1.7296202802271754,-7.05038985103949,21.28191965272841,-25.156939112188258
0.6970399809107363,-2.005544731851902,1.6591163817167804,-7.301959242161372,23.08880902250005,-26.264137281528637
0.6769845335922172,-1.7746566416269016,1.5860967892951667,-7.5646006149766585,24.9103922925342,-27.5897044430073
0.6592379671759482,-1.5255527187015596,1.5104507831454002,-7.840497659406731,26.716734217319235,-29.140724440573386
0.6439824399889326,-1.2583853765283672,1.4320458065513328,-8.131904903812465,28.451362040033956,-30.892986340378762
0.6313985862236489,-0.9738717561280277,1.3507267575132083,-8.440834767216254,30.010402016268216,-32.76382620792143
0.6216598686623686,-0.6737677359653456,1.2663184098410456,-8.768473029295468,31.209067263823034,-34.56759688623604
0.6149221913027151,-0.3616770633271152,1.178633679548091,-9.114148998157829,31.73236703403059,-35.948590429455884
0.6113054206694439,-0.04435339298680929,1.0874921895665126,-9.473634902452387,31.07490786647105,-36.296255793061455
0.6108618867395759,0.26639568567790123,0.9927558405419887,-9.836597460383002,28.500515257530832,-34.681641184332406
0.6135258435963549,0.5514008382532096,0.8943898659381587,-10.183413872226327,23.1083056580926,-29.929420596953452
0.619039851978887,0.7824838948341356,0.7925557272158954,-10.482708078195861,14.155136856150765,-21.02735732073706
0.6268646909272284,0.9240352633956432,0.6877286464339368,-10.692981651403231,1.712221550865425,-7.9818681463609265
0.6361050435611848,0.9411574789042975,0.5807988299199045,-10.77280033286684,-12.700024831438077,7.352389389886005
0.6455166183502278,0.8141572305899167,0.4730708265912361,-10.69927643896798,-26.371244008187478,21.628751406942705
0.653658190656127,0.550444790508042,0.3660780622015563,-10.482988924898553,-36.842517273642756,31.907474576322
0.6591626385612074,0.1820196177716144,0.26124817295257075,-10.163914179135332,-43.222836907703176,37.32751553589889
0.6609828347389235,-0.25020875130541737,0.1596090311612174,-9.790639023776343,-46.11227494555185,38.909472831852774
0.6584807472258694,-0.711331500760936,0.06170264092345398,-9.401544295457816,-46.664227565276654,38.27839692430472
0.65136743221826,-1.1779737764137026,-0.032312802031124174,-9.01876032621477,-45.87988224982947,36.76163502890053
0.639587694454123,-1.6367725989119974,-0.12250040529327187,-8.651143975925764,-44.40750961010994,35.171402062968035
0.623219968465003,-2.0808476950130967,-0.2090118450525295,-8.299429955296084,-42.60295130361991,33.91660139439178
0.602411491514872,-2.506877208049296,-0.29200614460549035,-7.960263941352166,-40.63982419764854,33.161483030152915
0.5773427194343791,-2.913275450025781,-0.371608784019012,-7.628649111050637,-38.59414411239587,32.939408699419275
0.5482099649341213,-3.2992168911497397,-0.4478952751295184,-7.299255024056444,-36.49599921637662,33.218707421155926
0.515217796022624,-3.6641768833135058,-0.5208878253700828,-6.9670679498448855,-34.35803800017319,33.93721778603703
0.4785760271894889,-4.007757263315238,-0.5905585048685317,-6.6276957719845155,-32.19020608377769,35.01963438994462
0.4384984545563365,-4.329659324153015,-0.6568354625883768,-6.277499428085069,-30.00680337962852,36.38628885601265
0.3952018613148064,-4.6297273579493,-0.7196104568692274,-5.913636539524942,-27.829291078358736,37.958002004607245
0.3489045877353134,-4.908020268732888,-0.7787468222644769,-5.53405651947887,-25.686706296095693,39.65930025470311
0.29982438504798453,-5.164887331693845,-0.8340873874592656,-5.137463516931839,-23.61470682563994,41.421016454049635
0.24817551173104607,-5.401034399950245,-0.885462022628584,-4.7232533523913425,-21.653849361966802,43.182625023055664
0.19416516773154363,-5.617572893569912,-0.9326945561524974,-4.291427102160786,-19.847495979132436,44.89431648443685
0.13798943879584452,-5.816047853361237,-0.9756088271741052,-3.8424839373164175,-18.23962690384036,46.518647060717996
0.07982896026223216,-5.998444122399641,-1.0140336665472693,-3.3772974667092375,-16.872746210222985,48.03152130976149
0.019844519038235746,-6.167171584501871,-1.0478066412143616,-2.8969822536116228,-15.78596204710559,49.42222370008082
-0.041827196806782964,-6.325031204972927,-1.0767764637504778,-2.4027600166108147,-15.013176955250497,50.69215732716288
-0.10507750885651224,-6.475162974525432,-1.100804063916586,-1.895838443339186,-14.581107986114976,51.85181303009482
-0.16982913860176657,-6.620974054386582,-1.1197624483499777,-1.3773203130382377,-14.50652812706269,52.915195601591535
-0.23603887914563237,-6.766039335657209,-1.13353565148036,-0.8481683570223223,-14.79161149514678,53.89035804696234
-0.30369927250220446,-6.913955450608676,-1.1420173350505833,-0.3092647765526989,-15.415477973401439,54.763692897744995
-0.37283882700829124,-7.068110230342691,-1.1451099828161104,0.23837215242475107,-16.31888654028194,55.474093544276805
-0.44351992931171813,-7.23129909574551,-1.142726261291863,0.7931130878675191,-17.37765690714881,55.8712543606059
-0.5158329202691733,-7.405075664816998,-1.1347951304131878,1.3518256314735781,-18.359824264049738,55.651730226638904
-0.5898836769173432,-7.588673907457495,-1.121276874098452,1.9083429337399673,-18.865374198685572,54.272140098135175
-0.6657704159919182,-7.77732764944435,-1.1021934447610524,2.4510643347213192,-18.265053104867516,50.86443094585578
-0.7435436924863618,-7.959978180493025,-1.0776828014138393,2.959708644179877,-15.702213777293306,44.24593531694736
-0.823143474291292,-8.117000318265958,-1.0480857149720406,3.4021679973493506,-10.299941833509978,33.2276608532452
-0.9043134774739515,-8.219999736601059,-1.014064034998547,3.7344446058818024,-1.7274486111841303,17.437912396360623
-0.9865134748399621,-8.2372742227129,-0.976719588939729,3.9088237298454085,9.04124983928258,-1.5844237757822242
-1.0688862170670912,-8.146861724320074,-0.9376313516412749,3.892979492087586,19.609691860153543,-20.22723268275022
-1.1503548343102918,-7.9507648057185385,-0.898701556720399,3.690707165260084,27.40353124373822,-34.61248769525213
-1.2298624823674773,-7.676729493281156,-0.8617944850677981,3.3445822883075627,31.290106029380887,-42.96070109528306
-1.3066297773002888,-7.363828432987347,-0.8283486621847225,2.914975277354732,31.83399759823004,-45.998735802695165
-1.3802680616301624,-7.045488457005047,-0.7991989094111751,2.4549879193277806,30.321437669640364,-45.568038205060226
-1.450722946200213,-6.742274080308643,-0.7746490302178973,1.9993075372771782,27.883482297413344,-43.34018478570532
-1.5181456870032994,-6.46343925733451,-0.7546559548451256,1.565905689420125,25.225894753091723,-40.39641680857721
-1.5827800795766445,-6.211180309803593,-0.7389968979509244,1.1619415213343531,22.70378685759227,-37.31372690672808
-1.6448918826746803,-5.984142441227671,-0.7273774827375808,0.7888042522670724,20.461000229018786,-34.35641338367404
-1.704733307086957,-5.7795324389374825,-0.7194894402149101,0.445240118430332,18.533102679927282,-31.62258158325892
-1.7625286314763318,-5.59420141213821,-0.7150370390306068,0.12901430259774282,16.90656930307432,-29.13059663117868
-1.8184706455977138,-5.425135719107467,-0.7137468960046294,-0.16229166371404397,15.548918778343412,-26.86449205950625
-1.8727220027887885,-5.269646531324033,-0.7153698126417698,-0.4309365843091065,14.422871904551553,-24.79624156067507
-1.9254184681020288,-5.125417812278517,-0.7196791784848608,-0.6788989999158572,13.492462042377968,-22.89604809134538
-1.9766726462248139,-4.990493191854737,-0.7264681684840194,-0.907859480829311,12.725310478153238,-21.13670419929059
-2.0265775781433613,-4.863240087073205,-0.7355467632923125,-1.119226522822217,12.093169048443771,-19.495116411846954
-2.0752099790140934,-4.742308396588768,-0.7467390285205346,-1.3141776869406865,11.571740225538667,-17.952526126934096
-2.1226330629799812,-4.626590994333381,-0.7598808053899415,-1.4937029482100275,11.140243752666795,-16.494171404379546
-2.1688989729233152,-4.515188556806713,-0.7748178348720418,-1.658644662253823,10.780937307909952,-15.108744150215005
-2.2140508584913823,-4.407379183727613,-0.7914042814945801,-1.809732103755973,10.478674761867925,-13.787806609668147
-2.2581246503286585,-4.302592436108934,-0.8095016025321398,-1.9476101698526544,10.220528525570836,-12.52523899400046
-2.301150574689748,-4.200387150853225,-0.8289777042306663,-2.072862559792659,9.995477528182061,-11.316746278544041
-2.3431544461982803,-4.100432375571405,-0.8497063298285928,-2.1860300225780995,9.794152624388142,-10.159431933114591
-2.384158769953994,-4.002490849327524,-0.8715666300543738,-2.2876243419092455,9.608628522758499,-9.05143737601263
-2.4241836784472692,-3.9064045640999385,-0.8944428734734663,-2.3781387156693716,9.43225169856679,-7.991642297077145
-2.4632477240882684,-3.8120820471142705,-0.91822426063016,-2.4580551386401432,9.259495318219836,-6.9794197708240135
-2.501368544559411,-3.719487093932072,-0.9428048120165615,-2.5278493363483836,9.085834071748481,-6.0144398968704245
-2.5385634154987318,-3.628628753214587,-0.9680833053800454,-2.5879937353170877,8.907633587802817,-5.096515928705918
-2.5748497030308775,-3.539552417336559,-0.9939632427332162,-2.638958894604147,8.722050632778702,-4.22548721170898
-2.610245227204243,-3.452331911008772,-1.0203528316792576,-2.681213766721237,8.526941526960973,-3.401133643766282
-2.6447685463143307,-3.3670624957391624,-1.04716496934647,-2.7152251031588994,8.320777154524139,-2.623116766702296
-2.678439171271722,-3.283854724193921,-1.0743172203780589,-2.7414562708259225,8.102563633192869,-1.890942991140626
-2.7112777185136614,-3.2028290878619923,-1.101731783086318,-2.760365700737329,7.871768184283379,-1.2039448552705636
-2.743306009392281,-3.1241114060191584,-1.1293354400936912,-2.7724051492900346,7.6282500467290815,-0.5612766216595725
-2.774547123452473,-3.0478289055518677,-1.1570594915865915,-2.7780179155066302,7.372196448800518,0.03807907562115865
-2.8050254125079914,-2.9741069410638623,-1.1848396707416577,-2.777637124750419,7.1040637232730415,0.5952964134113942
-2.83476648191863,-2.9030663038311317,-1.2126160419891618,-2.7716841606163047,6.824523655228708,1.1116858704168684
-2.8637971449569415,-2.8348210672788445,-1.240332883595325,-2.760567301912136,6.534415110618062,1.588670119362441
-2.89214535562973,-2.769476916172664,-1.2679385566144463,-2.7446806007185116,6.234700927219329,2.0277580482551727
-2.9198401247914565,-2.707129906900471,-1.2953853626216314,-2.7244030202359597,5.926429972227406,2.4305183014601064
-2.946911423860461,-2.647865607178197,-1.322629392823991,-2.7000978372213584,5.610704192935422,2.7985534260099296
-2.973390079932243,-2.591758565248843,-1.3496303711962045,-2.672112302961259,5.288650416060246,3.1334754379268155
-2.9993076655847313,-2.5388720610882403,-1.376351494225817,-2.640777548581991,4.961396591723582,3.4368833884276486
-3.0246963861956138,-2.4892580951710044,-1.402759269711637,-2.6064087146977144,4.6300521323086254,3.7103433103890877
-3.049588967147324,-2.4429575738479183,-1.428823356858614,-2.5693052815938233,4.295691965125804,3.9553707598792833
-3.074018542885803,-2.4000006541966603,-1.4545164096745522,-2.5297515739950307,3.9593439006238853,4.173416033551395
-3.0980185494277697,-2.3604072151904214,-1.4798139254145024,-2.4880174136595166,3.62197891356154,4.365852037269545
-3.121622621579674,-2.324187426054806,-1.5046940995510976,-2.444358893286821,3.284503941407582,4.533964701176627
-3.144864495840222,-2.29134238664073,-1.5291376884839658,-2.399019246275055,2.9477568203158726,4.678945778053547
-3.167777919706629,-2.261864818437571,-1.5531278809467164,-2.3522297884945194,2.6125030023123976,4.801887821835758
-3.1903965678910047,-2.235739788414447,-1.5766501788316616,-2.304210910276162,2.279433725896395,4.903781118288804
-3.212753965775149,-2.212945451155483,-1.5996922879344233,-2.2551730990932737,1.9491653443159629,4.9855123271071795
-3.2348834202867036,-2.1934537977123236,-1.622244018925356,-2.2053179758222017,1.6222395497684083,5.047864591421387
-3.256817958263827,-2.1772314022146397,-1.644297198683578,-2.154839329907988,1.2991242663772862,5.091518874562778
-3.278590272285973,-2.1642401595508667,-1.6658455919826578,-2.10392414116236,0.9802150189409748,5.11705629299436
-3.300232673881482,-2.154438009361457,-1.6868848333942814,-2.0527535782324167,0.6658366173006455,5.124961226972166
-3.3217770539750964,-2.1477796431884504,-1.7074123691766057,-2.001503965962695,0.35624502712734535,5.115625005491148
-3.343254850406981,-2.1442171929171767,-1.7274274088362327,-1.9503477159077838,0.05162932656200612,5.089349978428403
-3.3646970223361525,-2.1437008996515567,-1.7469308859953105,-1.8994542161234997,-0.2478863257910994,5.046353805827711
-3.386134031332668,-2.1461797629094677,-1.7659254281565455,-1.8489906780652225,-0.5422407626284749,4.986773811504026
-3.407595828961763,-2.151602170535752,-1.7844153349371978,-1.7991229399501822,-0.8314339498670029,4.910671265309246
-3.4291118506671205,-2.159916510034422,-1.8024065643366998,-1.7500162272970898,-1.1155252109863938,4.818035475373283
-3.4507110157674648,-2.1710717621442863,-1.8199067266096707,-1.701835872543357,-1.3946315303494523,4.708787588425852
-3.4724217333889076,-2.185018077447781,-1.8369250853351042,-1.6547479966590986,-1.6689259185409853,4.582784013021574
-3.4942719141633853,-2.201707336633191,-1.8534725653016952,-1.6089201565288829,-1.9386358111856195,4.439819397315065
-3.5162889875297174,-2.221093694745047,-1.8695617668669842,-1.5645219625557323,-2.204041462757586,4.279629110198947
-3.538499924477168,-2.243134109372623,-1.8852069864925416,-1.5217256714537428,-2.4654742882502187,4.101891192398792
-3.5609312655708942,-2.267788852255125,-1.900424243207079,-1.480706759529755,-2.7233150978713865,3.906227762811974
-3.5836091540934456,-2.295022003233839,-1.9152313108023766,-1.4416444819016352,-2.977992162790067,3.6922058852949147
-3.606559374125784,-2.3248019248617395,-1.929647755621393,-1.404722423048686,-3.229979042973286,3.459337922566043
-3.6298073933744015,-2.3571017152914724,-1.9436949798518797,-1.3701290438230256,-3.479792100896892,3.207081427225424
-3.653378410527316,-2.3918996363004412,-1.95739627029011,-1.3380582295507712,-3.7279876169494632,2.9348386454233037
-3.6772974068903204,-2.429179512469936,-1.9707768525856177,-1.3087098430965383,-3.9751584132319184,2.641955736764564
-3.7015892020150196,-2.468931096602255,-1.9838639510165832,-1.2822902857288927,-4.221929881749431,2.327721844935112
-3.7262785129810423,-2.511150395419749,-1.996686853873872,-1.2590130672795417,-4.46895530028599,1.9913681875867675
-3.7513900169352397,-2.555839948422609,-2.0092769845466676,-1.239099385403674,-4.716910304185023,1.6320673714993832
-3.7769484164194655,-2.6030090514644595,-2.0216679784007043,-1.2227787116886801,-4.966486364555934,1.2489331801793464
-3.80297850693411,-2.652673915110019,-2.0338957655175913,-1.2102893798868866,-5.218383102936674,0.8410211259873775
-3.8295052460852106,-2.7048577461393855,-2.04599865931646,-1.2018791686270127,-5.4732992491991475,0.4073301075990042
-3.8565538235466046,-2.7595907386313767,-2.0580174510027303,-1.1978058675510226,-5.731922023767559,-0.05319443416227391
-3.8841497309329185,-2.8169099588690525,-2.0699955096782405,-1.1983378118926453,-5.99491469763998,-0.5416554139145551
-3.9123188305216092,-2.8768591058454525,-2.0819788877971668,-1.2037543660317909,-6.2629020552969585,-1.0591965475244451
-3.9410874215800638,-2.939488126398422,-2.0940164314574847,-1.2143463315070353,-6.536453457920669,-1.6069917838576764
-3.970482302844048,-3.0048526609776287,-2.106159894772555,-1.2304162493456121,-6.816063179666742,-2.186231105727895
-4.000530829453824,-3.073013292774296,-2.1184640572660114,-1.252278560402891,-7.102127671048222,-2.7981020352294363
