th1 (rad),w1 (rad/s),th2 (rad),w2 (rad/s)
6.2562712082828345,2.9952464131890744,1.7092511381518538,1.9150811335734155
6.286223672414725,3.0007735361160406,1.728401949487588,1.730437713965446
6.316231407775886,3.0009727383315017,1.7457063266272423,1.5447100945686771
6.346241135159201,2.9963746592167086,1.761153427572929,1.3584015791154793
6.376204881751368,2.987517782255359,1.774737443364084,1.17199122886269
6.406080059573922,2.974942444462724,1.7864573556527108,0.9859260406715037
6.435829484018549,2.9591853867863698,1.796316616059426,0.8006142784782017
6.465421337886412,2.9407749488611206,1.804322758844208,0.6164199995273245
6.494829087375024,2.9202269801766865,1.8104869588394812,0.433658777085827
6.52403135717679,2.8980415086693814,1.8148235466103395,0.25259458465795526
6.553011772263484,2.874700178047542,1.8173494924569191,0.07343777480111849
6.581758774043959,2.8506644376650665,1.8180838702049302,-0.10365593992917987
6.61026541842061,2.826374444027553,1.8170473108056384,-0.2785856143546535
6.638529162860886,2.8022486112235234,1.8142614546620919,-0.45130442627799605
6.666551648973121,2.7786837284387835,1.809748410399312,-0.6218183804978432
6.694338486257508,2.756055545446413,1.8035302265943336,-0.79018447196045
6.721899041711972,2.734719710217,1.7956283818747292,-0.9565083989451248
6.749246238814142,2.715012924579009,1.786063297885278,-1.1209418859690965
6.776396368059932,2.6972541614520367,1.774853879025587,-1.2836796317687544
6.803368909674452,2.681745756941952,1.7620170827078994,-1.4449558373833051
6.830186367243871,2.6687741477363303,1.7475675243340663,-1.605040188485106
6.856874108721234,2.6586099624882222,1.7315171224492152,-1.7642330578516052
6.883460208346117,2.651507087040924,1.7138747918706991,-1.9228595485018767
6.909975279216526,2.647700196933434,1.6946461963856803,-2.0812618021948994
6.93645228118586,2.64740007364357,1.6738335783637313,-2.239788734467576
6.962926281922297,2.6507857784766737,1.6514356910190555,-2.3987820056408915
6.989434139707063,2.6579924350697484,1.6274478709626465,-2.5585565763145297
7.01601406405776,2.669092959326226,1.6018623051995013,-2.719373612376573
7.042704993651022,2.684071584489194,1.5746685690757356,-2.881402810439859
7.069545709495914,2.702786514969396,1.5458545409713371,-3.0446704837818506
7.096573574645608,2.7249186568396477,1.5154078361335186,-3.208989185681532
7.123822761214004,2.749903446796047,1.4833179442767033,-3.37386470321504
7.151321795681965,2.7768439708386774,1.449579297244553,-3.5383778026767736
7.179090235390352,2.804406909670882,1.414195519217785,-3.70104263687547
7.207134304487061,2.8307099340760025,1.3771850928490303,-3.8596533968708937
7.235441403827822,2.8532216747868113,1.3385885588803215,-4.011147928437431
7.2639736205756895,2.8687137173590567,1.298477079595947,-4.15154221493086
7.29266075774928,2.8733243432726234,1.2569616574466385,-4.276017490415144
7.321394001182006,2.8628035690894347,1.214201482542487,-4.3792551363625245
7.3500220368729,2.8329862117316855,1.1704089311788617,-4.456082673500961
7.378351898990217,2.7804628586994076,1.125848104443852,-4.502387624788224
7.4061565275772105,2.703296100830264,1.0808242281959697,-4.516086821605459
7.433189488585513,2.601527531066658,1.035663359979915,-4.497799424450821
7.45920476389618,2.477240267297038,0.9906853657354068,-4.450901738619775
7.48397716656915,2.33411917665659,0.946176348349209,-4.380890579361151
7.5073183583357155,2.1766842847605656,0.9023674425555975,-4.294305183415224
7.529085201183321,2.0094945797122707,0.8594243907214453,-4.197622535531538
7.549180146980444,1.836561897450157,0.8174481653661299,-4.096456015945127
7.567545765954945,1.6610594231024742,0.7764836052066786,-3.9951689372969814
7.584156360185969,1.4852782849148984,0.7365319158337088,-3.8968328075570997
7.5990091430351185,1.3107332326121064,0.6975635877581378,-3.8033893906139102
7.61211647536124,1.1383275706412996,0.6595296938519987,-3.7158906292563225
7.623499751067652,0.9685200905380391,0.6223707875594354,-3.634737200174787
7.633184951973033,0.8014670482753562,0.5860234155576876,-3.5598791816036517
7.641199622455787,0.6371317562500639,0.550424623741651,-3.49096951665279
7.647570940018287,0.4753640788773005,0.5155149285751232,-3.4274743001795933
7.65232458080706,0.31595561371245967,0.4812401855733272,-3.368748557767492
7.655484136944185,0.1586766793487288,0.4475526999956523,-3.3140864715295213
7.657070903737672,0.003300314031967122,0.4144118352803571,-3.262753596365982
7.657103906877992,-0.15038272426621496,0.3817842993166973,-3.2140068330352967
7.655600079635329,-0.30255507243380886,0.3496442309863443,-3.1671063284812835
7.652574528910991,-0.45336798642225246,0.31797316770153145,-3.121322217049029
7.648040849046769,-0.6029393196963143,0.28675994553104117,-3.075938191194429
7.642011455849806,-0.7513533608888845,0.2560005636190969,-3.030253235291143
7.634497922240917,-0.8986619528171975,0.22569803126618546,-2.983582402596556
7.625511302712745,-1.044886529032179,0.1958622072402199,-2.935257204942112
7.615062437422424,-1.1900208456689882,0.16650963519079878,-2.8846259726407983
7.603162228965734,-1.3340342778714147,0.1376633754643908,-2.8310543962851
7.5898218861870195,-1.4768756071579248,0.10935283150153981,-2.773926360156703
7.57505313011544,-1.618477259614554,0.08161356789997277,-2.712645103695718
7.5588683575192945,-1.7587599721878393,0.05448711686301559,-2.6466346928070865
7.541280757797416,-1.897637870771763,0.028020769934944727,-2.5753417402108814
7.522304379089698,-2.0350239428917924,0.002267352532835911,-2.4982372795445538
7.50195413966078,-2.170835882269197,-0.022715020262609627,-2.4148186691925075
7.480245780838088,-2.3050022744605676,-0.046863206954534706,-2.324611377747324
7.457195758093483,-2.4374690837651216,-0.07010932073200794,-2.227170483342581
7.432821067255832,-2.5682063930363705,-0.09238102556543376,-2.122081704197179
7.407139003325468,-2.6972153410198594,-0.11360184260740555,-2.0089617683973033
7.380166849915269,-2.8245351971454276,-0.13369146029137857,-1.8874579284312365
7.351921497943815,-2.950250511666679,-0.15256603957569093,-1.7572464319167902
7.322418992827148,-3.074498279323443,-0.17013850389485882,-1.6180297765166207
7.291674010033914,-3.197475055923818,-0.18631880166002504,-1.4695326073221804
7.259699259474676,-3.3194439664021584,-0.20101412773324684,-1.3114961636557982
7.226504819810654,-3.440741534489914,-0.21412908936980482,-1.1436712566507778
7.1920974044657555,-3.561784238667667,-0.2255658019363126,-0.9658098711445933
7.156479562079078,-3.6830746408256947,-0.23522390064775853,-0.7776556553116662
7.119648815670821,-3.8052068173388522,-0.24300045720087518,-0.5789338223090857
7.081596747497433,-3.9288706053086075,-0.24878979542396604,-0.36934139524014625
7.042308041444347,-4.054853791970439,-0.2524832093763675,-0.14853937112371185
7.001759503524642,-4.184040713810428,-0.2539686030876046,0.08385058968951756
6.959919096386538,-4.3174046197872045,-0.25313009719070945,0.32824068499442094
6.916745050188666,-4.455989317077201,-0.24984769034076523,0.5850557775798546
6.872185157017895,-4.600872643624101,-0.2439971325649667,0.8546853222341886
6.826176430581653,-4.753099611870818,-0.2354502793426248,1.1373906215893186
6.778645434462945,-4.91356592336471,-0.22407637312673162,1.4331396311309121
6.729509775229298,-5.0828224131039335,-0.2097449768154225,1.7413274777963355
6.678681551098259,-5.260758475182159,-0.19233170203745914,2.0603237531898877
6.626073966346437,-5.446112164997723,-0.17172846450556026,2.3867740899078815
6.57161284469646,-5.635760874372777,-0.14786072360648145,2.7145941983362842
6.515255235952733,-5.823803678941035,-0.1207147816231186,3.0336784545846225
6.457017199163323,-6.000616580532486,-0.09037799707727238,3.328589882562541
6.397011033357998,-6.152405613213929,-0.057092098251646975,3.577988815221172
6.335486977225859,-6.262218845254873,-0.021312210099435257,3.75617539707226
6.27286478877331,-6.313411654518805,0.01624954387128734,3.8381599013194068
6.209730672228122,-6.2953104991803785,0.054631142884481405,3.807883390446055
6.146777567236318,-6.208308661601987,0.09270997678894195,3.6656201576325427
6.084694480620298,-6.064471419253006,0.12936617836526737,3.428930765080672
6.024049766427768,-5.882716877959963,0.1636554860160741,3.1257848526277785
5.965222597648168,-5.682123524245038,0.19491333454235188,2.7848951226313488
5.9084013624057174,-5.477483128806787,0.22276228576866536,2.42917837287698
5.85362653111765,-5.278173052221585,0.24705406949743516,2.073953867213439
5.800844800595434,-5.089060217087222,0.26779360816956954,1.7280957972021973
5.749954198424562,-4.911955966368137,0.2850745661415915,1.3960356973343953
5.70083463876088,-4.746862491251491,0.29903492311493546,1.0795139392570472
5.653366013848365,-4.592827175243627,0.30983006250750594,0.7787970755905118
5.607437742095929,-4.448463167025595,0.31761803326341104,0.4934289848860125
5.562953110425672,-4.312243378671614,0.32255232311227117,0.2226602124777779
5.519830676638956,-4.1826564232970105,0.32477892523704893,-0.034322121859177046
5.478004112405986,-4.058283557052513,0.32443570401845717,-0.2782808773142635
5.437421276835461,-3.937832401448814,0.32165289524531454,-0.5098808549932614
5.398042952820973,-3.820147983477251,0.31655408669538193,-0.7296762767661001
5.3598414729862,-3.7042124634154554,0.30925732392772093,-0.9381167466972407
5.322799348352046,-3.5891396422907,0.2998761564607485,-1.135562146138638
5.286907951929138,-3.474167382757434,0.28852053499936214,-1.3223011692180024
5.252166278101564,-3.358649454190089,0.2752975233071821,-1.4985705947109904
5.218579783559663,-3.2420474444896143,0.2603118173600722,-1.6645737232638498
5.186159309114767,-3.1239229349232467,0.24366608012743368,-1.8204971520697504
5.154920079765534,-3.0039299223002702,0.22546110860673618,-1.9665254762735034
5.124880780542532,-2.8818073890845737,0.20579585384400115,-2.102853745133816
5.096062706651686,-2.7573719069142544,0.18476731639266297,-2.2296976428790445
5.068488987582544,-2.6305101785078295,0.16247033996387253,-2.3473014536459575
5.042183885797466,-2.5011714576636925,0.13899732542741294,-2.455943930466577
5.017172171220829,-2.3693598258302493,0.11443788612274718,-2.5559422320026957
4.993478572962527,-2.235126340147291,0.08887846380272021,-2.647654123395829
4.971127309561054,-2.0985610984002885,0.062401922568761925,-2.7314786617141773
4.950141698577052,-1.959785289229447,0.03508713595162015,-2.8078556029830097
4.930543845684757,-1.8189433105892898,0.007008579921790051,-2.8772637769997838
4.912354412578864,-1.6761950460394714,-0.021764057848207785,-2.9402186782509188
4.895592462118469,-1.531708387688183,-0.05116624463071698,-2.9972695165613152
4.8802753782415875,-1.3856520876191214,-0.08113893979633013,-3.048995960103863
4.866418857365396,-1.238189007799293,-0.11162889939736877,-3.0960047867244795
4.854036967287403,-1.0894698233681885,-0.14258894726461357,-3.13892663793411
4.843142269053721,-0.9396272175692572,-0.17397821364395466,-3.1784130440766423
4.8337459968780285,-0.7887705902439991,-0.20576234408472108,-3.2151338595867576
4.825858290975589,-0.63698128775871,-0.23791368268058866,-3.2497752139720957
4.819488478098002,-0.484308352705693,-0.2704114348203096,-3.2830380465698816
4.814645394570945,-0.3307647893665856,-0.3032418152860084,-3.315637249575957
4.811337746677279,-0.17632434912117528,-0.336398187781768,-3.348301391127174
4.8095745031860675,-0.02091886330800352,-0.36988120169303973,-3.38177292291226
4.809365314552988,0.1355638040078942,-0.40369893092216236,-3.416808686239595
4.8107209525930665,0.2932810348542898,-0.43786701778455833,-3.454180403376956
4.81365376294161,0.45243569814779017,-0.4724088218183279,-3.4946746572361524
4.818178119923088,0.6132748962133,-0.5073555683906894,-3.539091592458921
4.824310868885221,0.7760864789415383,-0.5427464843152786,-3.5882411717482183
4.832071733674637,0.9411921687042367,-0.5786288960327608,-3.642935232479422
4.841483655361679,1.1089355272275216,-0.6150582483575551,-3.7039727290073023
4.852573010633954,1.2796621212765726,-0.6520979756476281,-3.772114315089587
4.865369631846719,1.4536880362908868,-0.689819118798524,-3.848040714228449
4.879906512209628,1.6312513099599342,-0.7282995259408085,-3.932287086118919
4.896219025309227,1.8124390007834257,-0.7676223968019977,-4.025142941049761
4.914343415317061,1.9970808824248862,-0.8078738262124954,-4.12650464728937
4.9343142241413105,2.184600276610718,-0.8491388726853891,-4.235666767485392
4.956160226907418,2.3738157345421516,-0.891495540360243,-4.351042747815152
4.97989838425284,2.5626986112493966,-0.9350059678383945,-4.469821139962781
5.0055253703653335,2.748117587529352,-0.9797041792380223,-4.587599799414665
5.033006546240627,2.925647667624184,-1.0255801772321689,-4.698105661202613
5.062263022916869,3.089583609352727,-1.072561233844195,-4.793195732490595
5.093158859010396,3.2333433644346075,-1.120493191169101,-4.863400308842611
5.125492292654742,3.3504020421331915,-1.169127194257527,-4.899208732744608
5.158996313076074,3.435681202061002,-1.218119281584973,-4.8929986845396245
5.193353125096683,3.4869655373638877,-1.2670492684303694,-4.841017565676061
5.228222780470322,3.5056843001959055,-1.31545944408713,-4.744494268169675
5.263279623472281,3.4965970641909396,-1.3629043867688266,-4.609237189412861
5.29824559411419,3.4665246520740003,-1.4089967586629553,-4.443908376361958
5.332910840634931,3.4227717952173626,-1.4534358424265748,-4.257866334497793
5.367138558587104,3.3718902045790315,-1.4960145057715526,-4.059473799214853
5.400857460632895,3.319054695504222,-1.5366092437637011,-3.855246529975285
5.434048007587937,3.267964675760212,-1.575161709063454,-3.649721663985874
5.466727654345539,3.2210430366247267,-1.6116589257033127,-3.4457316534649913
5.498938084711787,3.179735390835317,-1.6461162422379627,-3.244813465420042
5.53073543862014,3.144796771334725,-1.6785643768921632,-3.047599102538242
5.562183406333488,3.116521663582675,-1.7090403679175457,-2.8541280178652415
5.593348622969315,3.0949114857131463,-1.737581648096198,-2.664074221039607
5.6242977378264465,3.0797891939107505,-1.7642223903065941,-2.4769018889093064
5.655095629765554,3.0708742075609963,-1.788991409195687,-2.2919678444104137
5.685804371841163,3.067829436619945,-1.8119110876397913,-2.10858715272851
5.716482666207363,3.070289451359767,-1.8329969591670763,-1.9260742223571028
5.747185560720961,3.077876225012634,-1.8522577013906474,-1.743768168442955
5.777964322971088,3.0902068334777653,-1.8696953830750769,-1.5610483634574774
5.808866391305866,3.106896028817637,-1.8853058667096516,-1.3773440711641673
5.839935351594042,3.127555602118582,-1.8990793074212933,-1.1921406700933532
5.871210907615228,3.1517917894877114,-1.9110007141222267,-1.0049840431828756
5.902728825510105,3.1792015475397872,-1.9210505545540555,-0.8154840948219293
5.9345208409855035,3.20936825441435,-1.9292053955022748,-0.6233179490254894
5.966614523529647,3.2418572253066085,-1.9354385749925296,-0.42823311013900955
5.999033095782713,3.2762113311365857,-1.9397209060939198,-0.2300506824077739
6.031795209094079,3.311946950694029,-1.9420214129179976,-0.028668616355028792
6.064914678601019,3.348550453702164,-1.9423080990815478,0.17593514064343121
6.0984001831380406,3.385475393273171,-1.9405487476751135,0.3836997759548878
6.132254937070773,3.4221405731562125,-1.9367117499155646,0.5944792547266108
6.166476342802334,3.457929142343804,-1.9307669573682984,0.8080407284829196
6.2010556342257726,3.492188853101877,-1.9226865500834691,1.0240639712271462
6.235977522756792,3.52423359587243,-1.9124459103711977,1.2421420961343443
6.271219858715516,3.5533462946239016,-1.9000244894098544,1.461783780829629
6.306753321661755,3.578783209173659,-1.885406651601558,1.6824171890833275
6.3425411537534915,3.599779647960754,-1.8685824797107247,1.9033957237359909
6.378538950233099,3.61555704777457,-1.8495485224733648,2.1240056831541834
6.414694520710845,3.625331328667571,-1.828308465641823,2.343475825809908
6.450947833997521,3.6283223854288704,-1.8048737073837238,2.5609887794352395
6.48723105785181,3.6237645339146654,-1.7792638195893713,2.7756941671872264
6.523468703190956,3.6109176927269577,-1.751506877917499,2.986723266982393
6.559577880118226,3.589079048567783,-1.721639645247675,3.19320497366209
6.595468670603904,3.557594926251215,-1.689707595511054,3.394282797028345
6.631044619866416,3.5158725600988374,-1.6557647675407707,3.589132600266423
6.666203345467404,3.463391440228583,-1.6198734415381064,3.7769807597356335
6.70083725986969,3.399713883530534,-1.5821036339407502,3.957122405107595
6.7348343987049955,3.3244944547560973,-1.5425324098896742,4.1289393758129656
6.768079343252556,3.2374878400903437,-1.5012430161315446,4.291917505340905
6.800454221653459,3.1385547582228672,-1.4583238410781356,4.445662821840363
6.831839769235688,3.0276654888264014,-1.413867212859732,4.589916237833525
6.862116424123952,2.9049006132385964,-1.3679680504813967,4.72456630269956
6.891165430256338,2.7704486043954484,-1.3207223874544012,4.849659619459782
6.9188699163002925,2.624599977756334,-1.2722257912598034,4.965408592265178
6.945115916077856,2.4677378229545424,-1.2225717053371516,5.072196279885678
6.969793294307401,2.3003246724607713,-1.1718497425382948,5.170578285382361
6.992796541032009,2.1228858178555967,-1.1201439596844711,5.26128180855056
7.014025399210564,1.9359893402719845,-1.0675311415989654,5.345202214677672
7.033385292613284,1.7402232598040497,-1.0140791194521888,5.423397714459232
7.050787525211324,1.5361703094713852,-0.9598451423075964,5.497082986596038
7.066149228306037,1.324380886052518,-0.9048743124416361,5.567622787998953
7.079393037166563,1.1053447125034204,-0.8491980845616466,5.636526771100583
7.090446484291597,0.8794616636556498,-0.7928328168506408,5.7054468525125115
7.099241100928154,0.6470120688250944,-0.7357783483255157,5.776178544678616
7.105711221616405,0.408126636434221,-0.6780165628787296,5.850667663310125
7.109792487980747,0.1627559905939904,-0.6195098862456283,5.9310237368171475
7.111420047886687,-0.08936025791582317,-0.5601996488774569,6.019541214646888
7.110526445307529,-0.3487248347466356,-0.500004236730988,6.1187290714160625
7.107039196960063,-0.6161138482950343,-0.4388169460168274,6.231348357880154
7.100878058477113,-0.8926054002940615,-0.3765034624380259,6.360455093942755
7.091952004474172,-1.1796003862200215,-0.3128989114985984,6.509441506284235
7.080156000611972,-1.4788235555925249,-0.24780449643575603,6.682059771482218
7.065367765056047,-1.7922799330843062,-0.18098389872093384,6.882394867968879
7.047444965725204,-2.1221166157345475,-0.11215995004124506,7.1147188820652705
7.026223799567859,-2.4702928244802917,-0.041012761220592345,7.383094117112503
7.001520871323056,-2.837877062703563,0.03281817995053268,7.690475351697153
6.97314210069602,-3.2236565761968863,0.10972293346750422,8.036873306377206
6.940905534934051,-3.6215888785515804,0.1900916665312763,8.415917285803342
6.904689646148535,-4.0166491121939405,0.2742508393893097,8.809169432713665
6.864523155026595,-4.379508675540448,0.36234253371644637,9.178734181247307
6.82072806827119,-4.663531444643128,0.4541298755289194,9.462904353172059
6.7740927538247595,-4.8126760101634405,0.54875891906064,9.586659716727045
6.7259659937231255,-4.787617463798753,0.6446255162279104,9.497131473103423
6.678089819085138,-4.595771958662676,0.7395968309589447,9.204340715092702
6.632132099498511,-4.290429323027846,0.8316402381098718,8.779537698171518
6.589227806268233,-3.936158633119943,0.919435615091587,8.307874730582004
6.549866219937034,-3.5794440055184555,1.002514362397407,7.849067206436561
6.514071779881849,-3.2438135682711233,1.0810050344617728,7.431679241233452
6.481633644199138,-2.9374234578368297,1.1553218268741072,7.063955570753794
6.45225940962077,-2.660756738242839,1.225961382581645,6.744382686660342
6.4256518422383415,-2.411216841309559,1.2934052094482484,6.4678302480826035
6.401539673825246,-2.185336421381282,1.3580835119290744,6.228410676710304
6.379686309611433,-1.9797033399907296,1.4203676186961773,6.0206143257805715
6.3598892762115256,-1.7912895631349797,1.4805737619539832,5.83966400066844
