th1 (rad),w1 (rad/s),th2 (rad),w2 (rad/s)
1.293734662474309,2.2906776611443354,2.843402063729317,-2.836201803106215
1.3166414390857522,2.2374727262314353,2.815040045698255,-2.9163295835369913
1.3390161663480664,2.1878473939135143,2.785876749862885,-2.9941080727694134
1.3608946402872015,2.1416400111100646,2.755935669135191,-3.07002522083918
1.382311040398302,2.0987049738803463,2.725235416926799,-3.14454204804762
1.4032980901371055,2.0589111292331586,2.6937899964463226,-3.218093732336939
1.423887201429437,2.022139523834333,2.661609059122953,-3.2910902289643915
1.4441085966677805,1.9882803991542695,2.628698156833309,-3.363916126509729
1.463991400659323,1.9572292665467221,2.5950589955682117,-3.4369294013140728
1.4835636933247902,1.9288818208512926,2.560689701555071,-3.510458667329937
1.5028525115333031,1.9031273662509418,2.5255851148817716,-3.5847984299562317
1.5218837851958125,1.8798403345740067,2.4897371305822094,-3.6602017434905787
1.5406821885415525,1.8588693801319542,2.4531351131473036,-3.7368695512075503
1.559270882342872,1.840023451577265,2.4157664176352283,-3.8149358752425364
1.5776711168586446,1.8230542005418817,2.377617058882803,-3.894447961302561
1.5959016588640633,1.807634144005493,2.3386725792697773,-3.975340544813411
1.6139780003041182,1.7933302438668626,2.298919173821643,-4.057403714057716
1.6319113027427867,1.7795731419455254,2.258345136681066,-4.140244590988801
1.649707034162242,1.7656233792422222,2.216942690771178,-4.223244488351445
1.6673632679546642,1.7505377424621111,2.1747102458876637,-4.305515619001756
1.6848686453792854,1.7331415531242678,2.131655089697646,-4.385865019890368
1.7022000609105281,1.7120161048491476,2.0877964394987423,-4.462777927295275
1.7193202219590196,1.685513820161253,2.0431686602257897,-4.534437399015888
1.736175360160632,1.6518153376446383,1.9978242862356308,-4.598799209270503
1.7526935135370785,1.609039945334829,1.9518362941429257,-4.653737251803783
1.7687839129904268,1.555410705651884,1.905298921624888,-4.697261009479696
1.7843380200469456,1.489457576772321,1.858326311530091,-4.727782176565453
1.7992325958146689,1.410220279919907,1.8110484897644366,-4.744378416281111
1.813334798613868,1.3173981413049234,1.7636047056016255,-4.746982981421685
1.826508780026917,1.2113987068449714,1.7161348757874086,-4.73643592136
1.8386227670953668,1.0932645855073473,1.6687705165738087,-4.714370991742012
1.8495554129504401,0.9644979441556651,1.6216268066563886,-4.682966988786286
1.8592003923919969,0.8268338229456788,1.5747971367685256,-4.644634753724921
1.8674687306214537,0.6820214084687781,1.5283507892312764,-4.601720547451642
1.8742889447061415,0.5316567732657477,1.48233358375676,-4.5562837871624895
1.879605512438799,0.37708434236803284,1.436770745885135,-4.509970575076209
1.8833763558624792,0.219361703622128,1.391671040134373,-4.463973606836936
1.8855699728987005,0.0592703526345304,1.3470313040660036,-4.419053241606742
1.8861626764250459,-0.10264709214355061,1.3028407716499362,-4.375592473879583
1.8851362055036103,-0.2660389652634487,1.2590848469111404,-4.333664237405375
1.8824758158509758,-0.4306962543172492,1.2157482045370867,-4.2930972821227416
1.8781688533078034,-0.5965094605741903,1.1728172317158592,-4.253533601084016
1.8722037587020615,-0.7634328051818073,1.130281895705019,-4.214475004220101
1.8645694306502434,-0.9314560000251212,1.088137145662818,-4.17531908963574
1.8552548706499923,-1.1005828478493722,1.0463839547664606,-4.135386109186982
1.8442490421714985,-1.2708156066794059,1.0050300936745908,-4.093938616596222
1.8315408861047044,-1.4421440582593803,0.9640907075086286,-4.0501957300689195
1.8171194455221107,-1.614538373999035,0.9235887502079394,-4.003343590931765
1.8009740617821204,-1.7879450702875552,0.8835553142986218,-3.9525432942067242
1.783094611079245,-1.9622855357417952,0.8440298813565545,-3.8969372724278126
1.763471755721827,-2.137456773819918,0.8050605086322764,-3.835654855377167
1.7420971879836278,-2.3133341288301197,0.7667039600785047,-3.7678175099495577
1.7189638466953265,-2.48977585264768,0.7290257849790092,-3.6925440812973642
1.6940660881688498,-2.6666294272915447,0.6921003441660355,-3.6089562014444843
1.6673997938959344,-2.84373958953901,0.6560107821515907,-3.5161838979999778
1.6389623980005443,-3.020958012450446,0.6208489431715909,-3.413371318894487
1.60875281787604,-3.1981545889937237,0.586715229982646,-3.299682387478034
1.5767712719861027,-3.3752302381360795,0.5537184061078657,-3.174306117368686
1.5430189696047418,-3.552131115998291,0.5219753449341789,-3.0364612533231323
1.507497658444759,-3.72886406440389,0.49161073240094755,-2.885399872744716
1.47020901780072,-3.9055130638362163,0.4627567336735004,-2.7204095977173424
1.431153887162358,-4.082256369532363,0.43555263769632696,-2.54081415351026
1.3903313234670343,-4.259383881038102,0.41014449616122434,-2.3459722031602714
1.3477374846566532,-4.437314094111726,0.3866847741296216,-2.1352747468151247
1.303364343715536,-4.616609650040851,0.36533202666147035,-1.9081419916110969
1.2571982472151275,-4.797989927975957,0.3462506067453594,-1.6640216235625944
1.209218347935368,-4.98233814559851,0.32961039050973345,-1.402392093884164
1.1593949664793828,-5.170698751463442,0.3155864695708918,-1.122777270605153
1.1076879789647482,-5.364258038234408,0.3043586968648403,-0.8247832467558845
1.054045398582404,-5.564296149416755,0.29611086439728146,-0.5081752315737555
0.9984024370882365,-5.77209094258942,0.2910291120815439,-0.17302369191214467
0.9406815276623423,-5.98874223618013,0.2892988751624225,0.18003408239587715
0.8807941053005409,-6.21486797204328,0.2910992159863812,0.5493471306064867
0.8186454255801081,-6.450103655004265,0.2965926872924461,0.9315216207980597
0.7541443890300654,-6.6923237915805,0.3059079035004267,1.3202974927782278
0.6872211511142604,-6.936531718207308,0.31911087842820895,1.7049645799017392
0.6178558339321873,-7.1735067804432076,0.33616052422722636,2.0684645968569244
0.5461207661277553,-7.388671907163861,0.3568451701957956,2.3858709599246737
0.47223404705611666,-7.562291651276804,0.38070387979504233,2.6248710030185354
0.3966111305433486,-7.672614248393127,0.4069525898252277,2.7505889851375063
0.31988498805941734,-7.702667367859667,0.4344584796766028,2.735763052932371
0.24285831438082067,-7.648093895937398,0.4618161102059265,2.572468230069817
0.1663773754214467,-7.5202405905064476,0.4875407925066247,2.2769463831701557
0.09117496951638222,-7.34121633106819,0.5103102563383263,1.8826428262167227
0.017762806205700324,-7.134761440238633,0.5291366846004935,1.4268599182648476
-0.05358480819668601,-6.919454875626759,0.5434052837831419,0.9405117382029231
-0.1227793569529536,-6.706710594043304,0.5528104011651711,0.44474053725185425
-0.18984646289338664,-6.501908976847843,0.5572578065376896,-0.04781760980307698
-0.25486555266186506,-6.306401913387475,0.5567796304396588,-0.5303462630711229
-0.31792957179573983,-6.119221713285216,0.5514761678089476,-0.999476955033191
-0.379121788928592,-5.938229151245043,0.5414813982586156,-1.453673047475218
-0.43850408044104244,-5.7607997809074325,0.5269446677838634,-1.8922663090082654
-0.4961120782501168,-5.584208937755025,0.5080220046937808,-2.314935273657597
-0.551954167627667,-5.40584032352139,0.4848726519572048,-2.7214524927718267
-0.606012570862881,-5.223297085932705,0.45765812702948655,-3.111586676178986
-0.6582455417222081,-5.034460377183205,0.4265422602676967,-3.485090785524316
-0.7085901454940401,-4.837519264804692,0.39169135241245356,-3.8417357107661227
-0.756965338142087,-4.630983765360154,0.3532739953047923,-4.181365900031289
-0.8032751757956885,-4.413686220749047,0.31146033630447945,-4.503962827731699
-0.847412038003179,-4.184772943474487,0.26642070802716245,-4.80970762122894
-0.8892597674379239,-3.943686646899629,0.21832363181487305,-5.09903740638689
-0.9286966339069201,-3.6901398556294565,0.16733325775100413,-5.372692019380675
-0.9655980324632147,-3.424079803435848,0.11360633755719739,-5.631749190030399
-0.9998388304975732,-3.1456460128497374,0.0572888456568934,-5.877647337985223
-1.0312952906260706,-2.8551226841679718,-0.001487627722958837,-6.112195739960984
-1.0598465174677503,-2.552889188928464,-0.06260958512256867,-6.337571871591253
-1.085375409357035,-2.2393734837877606,-0.12598530383848122,-6.556304893942877
-1.1077691441949125,-1.9150154385745641,-0.19154835277791,-6.771242030118394
-1.1269192985806582,-1.5802504766076222,-0.25926077307909395,-6.985490137007579
-1.1427218033467343,-1.2355295018321981,-0.3291156744491697,-7.202316819181242
-1.1550770983650562,-0.8814002510109031,-0.40113884264098215,-7.4249820076912885
-1.1638911008751653,-0.5186897386523157,-0.47538866271789504,-7.6564495101218775
-1.1690779982616886,-0.14884861307251757,-0.5519531578191138,-7.898896624487608
-1.1705664843924137,0.22545649200033002,-0.6309421240639899,-8.152901310885285
-1.1683119194724105,0.599402520500468,-0.7124711371728427,-8.416160673848076
-1.162317894267406,0.964667253002215,-0.7966327439113234,-8.681647129662704
-1.1526712217373838,1.3078478304790375,-0.8834492152079505,-8.935393329063112
-1.1395927434325934,1.6093617094695232,-0.9728031484985816,-9.154848302901812
-1.1234991263378982,1.8444526660122802,-1.0643516315275998,-9.309983012163633
-1.1050545996777754,1.9883627326613194,-1.1574514616492362,-9.369953939389088
-1.0851709723511622,2.0257114814541235,-1.251151001043127,-9.315434148028372
-1.064913857536621,1.9590535981795476,-1.3443053425234108,-9.149876579196
-1.0453233215548257,1.8090670445881925,-1.4358041083153708,-8.899625091372346
-1.0272326511089438,1.6053471692523271,-1.5248003592290942,-8.601674491831208
-1.0111791794164204,1.375485721753624,-1.6108171041474062,-8.289487877676464
-0.9974243221988842,1.1393486667617043,-1.693711982924171,-7.985948602670548
-0.9860308355312671,0.9087963001497616,-1.7735714689508764,-7.7034758638771335
-0.9769428725297695,0.68981045623724,-1.8506062275896478,-7.447116904116368
-0.9700447679673971,0.48476604741605395,-1.9250773966308115,-7.217637071167047
-0.9651971074932366,0.29406989463970773,-1.997253767342482,-7.013662194600482
-0.9622564085468396,0.11716083145448389,-2.067390389288487,-6.832933097627998
-0.9610848002322947,-0.04693406914338433,-2.135719720264767,-6.672966804886446
-0.9615541409237286,-0.19930982956012808,-2.202449388313631,-6.531374036988635
-0.9635472392193298,-0.34104260411606757,-2.2677631286835176,-6.4059928148612135
-0.9669576652604905,-0.4731280185463601,-2.3318230568321296,-6.294929296271849
-0.9716889454459542,-0.5964602604417306,-2.3947723497948483,-6.196554726023914
-0.9776535480503715,-0.711831179345419,-2.4567378970550875,-6.1094836895505304
-0.9847718598438258,-0.8199384802599431,-2.5178327339505926,-6.032546175202057
-0.9929712446464252,-0.9213973893502776,-2.578158195702613,-5.964759346812477
-1.002185218539928,-1.0167529850573462,-2.637805789170738,-5.905301567265902
-1.0123527483905015,-1.1064918662965313,-2.696858804843397,-5.853489548746189
-1.0234176670534667,-1.1910525942007868,-2.755393700330859,-5.8087587147397075
-1.0353281929954745,-1.2708347293599602,-2.8134812874782558,-5.770646512297007
-1.0480365402890741,-1.3462064715698598,-2.8711877526012257,-5.7387782868160695
-1.0614986050047728,-1.4175109892193234,-2.9285755354693865,-5.712855310213149
-1.075673714896966,-1.4850715514464317,-2.985704088571518,-5.692644577790262
-1.0905244304114303,-1.549195574978022,-3.0426305343494207,-5.677970029742911
-1.1060163861612105,-1.6101776831558816,-3.0994102346468497,-5.668704895608884
-1.1221181629927692,-1.668301854156731,-3.1560972836029384,-5.664764897337571
-1.1388011815343366,-1.7238427122314373,-3.212744932576314,-5.666102076253094
-1.156039608656651,-1.7770659913563072,-3.269405953338845,-5.672699030074122
-1.1738102685702139,-1.8282281754311542,-3.3261329436395863,-5.684563358279745
-1.1920925503245254,-1.8775752930297298,-3.3829785772223837,-5.7017221177764625
-1.2108683032548226,-1.9253408175153979,-3.4399957984001484,-5.724216086480412
-1.2301217114299767,-1.9717425949640868,-3.4972379592649525,-5.752093620650324
-1.2498391373796176,-2.016978692950099,-3.5547588954714557,-5.785403873358196
-1.2700089243091186,-2.0612220335109304,-3.6126129342050377,-5.824189117525734
-1.290621144644228,-2.1046136449649833,-3.670854825380295,-5.86847588934692
-1.3116672810938779,-2.1472543423369737,-3.7295395842737644,-5.918264639682861
-1.3331398245172477,-2.1891946292736093,-3.788722230670593,-5.973517556976275
-1.3550317708099837,-2.230422612205023,-3.848457406240356,-6.0341442128674
-1.377335996932034,-2.270849740026332,-3.9087988483690297,-6.0999846922189755
-1.4000444943322974,-2.3102942437594813,-3.9697986952912196,-6.170789918903681
-1.4231474367698922,-2.3484622694874817,-4.031506594480256,-6.246199000002815
-1.446632059464767,-2.384926898671549,-4.093968584480285,-6.325713613777376
-1.4704813284514826,-2.4191055617873447,-4.157225720618059,-6.4086697977567875
-1.494672384069356,-2.4502368049306167,-4.221312418595627,-6.494207994012976
-1.5191747521186623,-2.4773579908949923,-4.286254498535756,-6.581242918548727
-1.5439483320276122,-2.499286315771959,-4.352066927721244,-6.668435764737503
-1.5689411951853318,-2.514606472845918,-4.418751285368619,-6.754172413063446
-1.594087259913791,-2.521669307815935,-4.486293009499254,-6.836552616631763
-1.6193039529919504,-2.5186066990642537,-4.554658535665571,-6.91339636918019
-1.644490019982593,-2.503368359891082,-4.623792499357373,-6.982274498270837
-1.6695237035815038,-2.4737858734572526,-4.693615244340082,-7.040570464392939
-1.6942615623160764,-2.427667550335776,-4.764020948984011,-7.085578789288369
-1.718538237819434,-2.362924237310095,-4.834876736876894,-7.114641940896533
-1.742167480192535,-2.277720912392747,-4.906023156285859,-7.125321650757481
-1.7649446893164626,-2.1706422742981744,-4.977276372793434,-7.115592978634516
-1.7866511120594444,-2.0408538564280274,-5.048432302579779,-7.084041334730264
-1.8070596506237246,-1.888235445248169,-5.119272715927082,-7.030036360930522
-1.8259420050762063,-1.7134629294859767,-5.189573079536387,-6.953854630164011
-1.843076634371066,-1.5180196238006813,-5.259111625838027,-6.856727449322669
-1.8582568306090728,-1.3041284644477538,-5.327678900331254,-6.740800795654941
-1.8712981152535504,-1.0746101236025165,-5.395086908287803,-6.609009433363164
-1.8820442164895756,-0.8326854036463383,-5.461177002621435,-6.464882593980849
-1.890371070526039,-0.581749477596978,-5.525825828561243,-6.312309957562293
-1.8961885653020087,-0.3251482371438323,-5.588948928136866,-6.155301110295863
-1.899440047673447,-0.06598305602997001,-5.650501939239825,-5.997768691152764
-1.9000998782337466,0.19303838728719624,-5.710479626151352,-5.843356938918649
-1.8981694943608747,0.4496979748191991,-5.768913195540539,-5.695326457444692
-1.8936725146126827,0.7023117834165199,-5.825866460114986,-5.556495807402579
-1.8866493967785176,0.9497321069079391,-5.8814314181890115,-5.429233048078155
-1.8771520757094382,1.1913187371654237,-5.935723748669793,-5.315486307559726
-1.865238888337784,1.4268918154223849,-5.98887861174539,-5.216841506283976
-1.85096997018356,1.6566771345436146,-6.04104702680823,-5.134596590230201
-1.834403198838124,1.881252451617382,-6.092392992710532,-5.069844043158822
-1.81559067432195,2.101500924061484,-6.14309143314212,-5.02355622970564
-1.7945756650813351,2.3185756844499648,-6.193326995439176,-4.9966707532228565
-1.7713899082368354,2.533878032508292,-6.243293702971405,-4.990175244431637
-1.7460511279117525,2.7490507763125964,-6.293195455415721,-5.00519276861916
-1.7185606201486265,2.9659878150343055,-6.343247383101913,-5.043070383478031
-1.6889007419982836,3.186860964899635,-6.393678086936693,-5.105474328737878
-1.6570321323492871,3.4141650439592697,-6.444732830224072,-5.19449580298947
-1.6228904819096945,3.6507819255087117,-6.496677788253966,-5.312770915557785
-1.5863826626546074,3.9000627985103966,-6.549805497409544,-5.463616184352353
-1.5473820346695033,4.165923416099993,-6.604441659253068,-5.651174465640998
-1.5057228005085033,4.4529356483806,-6.6609534039094775,-5.880549908317152
-1.4611934440246972,4.7663712712277215,-6.719758902992649,-6.157872000387726
-1.41352973131242,5.112091143100369,-6.781337622996526,-6.490140747308745
-1.3624088198814164,5.496033877015205,-6.846239030469613,-6.884510110397477
-1.3074484811112643,5.9227656093706225,-6.915084131573588,-7.346256370464526
-1.2482208250175582,6.392001752799975,-6.988546695278233,-7.873903798834251
-1.1843008074895585,6.8912568293889915,-7.0672857332665755,-8.448914475518436
-1.1153882391956684,7.3829429567946185,-7.15177487802176,-9.017562693941274
-1.0415588096277222,7.789914613778467,-7.2419505049611725,-9.470551017851626
-0.9636596634899375,8.001900015661072,-7.336656015139689,-9.651783044720013
-0.8836406633333268,7.937804151673462,-7.433173845586889,-9.445340206399527
-0.8042626218165921,7.629562661419916,-7.5276272476508845,-8.8926721355659
-0.7279669952023929,7.202884924339782,-7.616553969006543,-8.165805271873047
-0.6559381459589951,6.772202872432511,-7.698212021725274,-7.421162105010312
-0.58821611723467,6.393062520781674,-7.772423642775377,-6.73364104117309
-0.5242854920268533,6.079509905947509,-7.839760053187108,-6.120895512105921
-0.46349039296737815,5.828213966023988,-7.900969008308167,-5.576730811042382
-0.4052082533071383,5.631046734571898,-7.956736316418591,-5.088430802897917
-0.3488977859614193,5.479785968410917,-8.00762062444757,-4.643198849089921
-0.29409992627731013,5.367454344253071,-8.05405261293847,-4.2299841300774546
-0.24042538283477943,5.288471852547118,-8.096352454239245,-3.8397002771473017
-0.18754066430930827,5.238455343047337,-8.134749457010718,-3.4649831388357737
-0.1351561108788349,5.213951083815461,-8.169399288399076,-3.0998791842121753
-0.08301660004068029,5.21218660298169,-8.200398080241197,-2.7395821939642557
-0.030894734010863387,5.230860254526748,-8.227793902180839,-2.3802427496371794
0.021413868534404093,5.267966361318039,-8.251596329677211,-2.0188457562302773
0.07409353214758449,5.321649611953245,-8.271784787239513,-1.6531433193137242
0.12731002826711696,5.390083650036569,-8.28831622043265,-1.281628711749088
0.18121086476748266,5.471371615366739,-8.301132507550141,-0.9035368293305839
0.23592458092115004,5.563469332655574,-8.310167875843447,-0.518856048786786
0.2915592742477058,5.6641342025203985,-8.315356436331315,-0.12833582040197566
0.34820061627290977,5.770904116008277,-8.316639794535336,0.2665256599445869
0.40590965743299257,5.881110434221118,-8.31397453793589,0.6635278320536346
0.4647207617752038,5.991926964945517,-8.307339259615354,1.0598585193758596
0.524640031424659,6.100453017206524,-8.296740674421596,1.4522329709410418
0.5856445615967242,6.203823651227012,-8.282218344712184,1.8370767479324632
0.6476827981089943,6.299335327591735,-8.263847577232859,2.2107391468890993
0.7106761513849117,6.3845717214095234,-8.241740185763968,2.569716637342249
0.774521868599007,6.457513707548497,-8.216043019390545,2.9108622717764
0.839097005674492,6.5166199180198605,-8.18693439667278,3.2315583574798086
0.9042632048546906,6.560869320176706,-8.154618813097983,3.529835595987487
0.9698718980564577,6.5897636440285945,-8.119320457138109,3.804430759897017
1.0357695344967437,6.60329356766126,-8.08127614953914,4.05478441576691
1.1018024701733562,6.6018770064258305,-8.04072830538147,4.280987988174041
1.1678212402376145,6.586279984125786,-7.997918425499731,4.483694211600949
1.2336840400788724,6.557530478921771,-7.953081483383722,4.664006441814636
1.2992593448680902,6.516833943673334,-7.906441418965575,4.823360993696169
1.3644276843048235,6.4654967015898475,-7.858207809028613,4.963413685278908
1.429082651320722,6.404860824711218,-7.808573672175824,5.085938163887054
1.493131259567834,6.336251887872184,-7.757714290536954,5.192740179324081
1.556493778446556,6.260939369787381,-7.705786888743713,5.285589213722595
1.6191031721444298,6.180108462590628,-7.652930996606488,5.366166935005623
1.680904256770336,6.094841553274573,-7.599269327256431,5.436030762293535
1.7418526723030818,6.006107513648797,-7.544909019633496,5.496590264857256
