th1 (rad),w1 (rad/s),th2 (rad),w2 (rad/s),a1 (rad/s^2),a2 (rad/s^2)
6.220413018470497,-2.4916123572492728,1.6868456749696807,1.9499174191396311,1.0938239355749064,-15.64866200377633
6.195496894898004,-2.480674117893524,1.706344849161077,1.7934307991018679,0.7046801600033102,-15.555145512820095
6.170690153719069,-2.473627316293491,1.7242791571520957,1.637879343973667,0.3579135806211331,-15.494387420779622
6.145953880556134,-2.4700481804872796,1.7406579505918323,1.4829354697658708,0.05223506397726797,-15.458874382298067
6.121253398751262,-2.469525829847507,1.755487305289491,1.32834672594289,-0.21314847140078166,-15.441591689155667
6.096558140452786,-2.471657314561515,1.76877077254892,1.1739308090513334,-0.4386401345795948,-15.435958276489231
6.071841567307171,-2.476043715907311,1.7805100806394332,1.0195712262864411,-0.624352849681478,-15.435788529654833
6.047081130148098,-2.4822872444041257,1.7907057929022976,0.8652133409898928,-0.7702037171868965,-15.435277415387693
6.022258257704057,-2.4899892815759945,1.7993579263121966,0.7108605668360158,-0.876003248974198,-15.429005177431815
5.9973583648882975,-2.4987493140657366,1.8064665319805568,0.5565705150616977,-0.9415391859141287,-15.411957554451261
5.97237087174764,-2.508164705924878,1.812032237131174,0.40245093951718514,-0.9666540678244208,-15.379557208537177
5.947289224688391,-2.517831246603122,1.8160567465263457,0.24865536743181335,-0.9513152977650975,-15.327701842265313
5.92211091222236,-2.527344399580773,1.818543300200664,0.09537834900916023,-0.8956761722464864,-15.252804392236584
5.896837468226552,-2.5363011613032382,1.8194970836907556,-0.05714969491320562,-0.8001262688706987,-15.151830778061633
5.8714744566135195,-2.544302423991945,1.8189255867416234,-0.20866800269382196,-0.6653297099485836,-15.022331005198145
5.8460314323736,-2.550955721091431,1.8168389067146853,-0.35889131274580344,-0.492250151940054,-14.86245999164525
5.820521875162686,-2.5558782226108314,1.8132499935872273,-0.5075159126622559,-0.2821618619667804,-14.670985305484946
5.794963092936578,-2.5586998412304993,1.8081748344606048,-0.6542257657171053,-0.036646889203899594,-14.447280023009615
5.769376094524272,-2.5590663101225384,1.8016325768034338,-0.7986985659472015,0.24242094126390498,-14.191300075923321
5.7437854314230465,-2.556642100709899,1.7936455911439617,-0.9406115667064346,0.5529037638245514,-13.903546658633244
5.718219010415948,-2.5511130630716536,1.7842394754768973,-1.079647033292767,0.8924370410121295,-13.58501540982802
5.692707879785231,-2.5421886926615325,1.7734430051439696,-1.2154971873910472,1.258473961407309,-13.23713506585244
5.6672859928586155,-2.5296039530474594,1.7612880332700591,-1.3478685380495716,1.6483339448284093,-12.86169902207134
5.641989953328141,-2.5131206135991753,1.7478093478895633,-1.4764855282702851,2.059252234407943,-12.460793673989627
5.616858747192149,-2.492528091255096,1.7330444926068604,-1.6010934650101813,2.4884276812020865,-12.036727516377466
5.591933466279598,-2.467643814443075,1.7170335579567586,-1.7214607401739561,2.933066159692871,-11.591964763706399
5.567257028135168,-2.4383131528461464,1.699818950555019,-1.8373803878110202,3.390417555165601,-11.129066756523926
5.542873896606706,-2.4044089772944903,1.6814451466769087,-1.9486710553762594,3.8578048869459844,-10.65064369644689
5.518829806833762,-2.3658309284250305,1.661958436123146,-2.055177492340728,4.332644819395733,-10.159318381299213
5.495171497549512,-2.322504480231073,1.6414066611997389,-2.1567706761537204,4.812459510356427,-9.657702669885925
5.4719464527472015,-2.2743798851275088,1.6198389544382017,-2.2533477028525795,5.2948804047880795,-9.148386467587354
5.449202653895926,-2.221431081079628,1.597305477409676,-2.344831567528453,5.777645158637543,-8.633938154535969
5.42698834308513,-2.1636546294932524,1.5738571617343915,-2.4311709490738123,6.258589343365819,-8.116914630166798
5.405351796790197,-2.1010687360595943,1.5495454522436534,-2.5123400953754804,6.735634913715848,-7.599878560490542
5.384341109429601,-2.033712386922436,1.5244220512898985,-2.588338880980386,7.206777607655391,-7.085420013849922
5.364003985560377,-1.961644610845882,1.4985386624800947,-2.659193081118885,7.670075482987895,-6.5761794722296525
5.344387539451918,-1.884943856016003,1.4719467316689059,-2.7249548758411817,8.123640681505023,-6.0748692136356555
5.325538100891758,-1.8037074492009528,1.444697182910494,-2.785703567977538,8.565636256616598,-5.584290272968616
5.307501026399748,-1.718051086634787,1.4168401472307186,-2.8415464707072244,8.994279518466914,-5.107342591737558
5.2903205155334,-1.6281082914501177,1.3884246825236464,-2.8926198966246,9.407852863036773,-4.647026539138906
5.274039432618899,-1.53402976281975,1.3594984835574004,-2.9390901620159893,9.804722487666487,-4.206434696709098
5.258699134990701,-1.435982537943085,1.3301075819372405,-2.98115450898308,10.183364791445618,-3.788733603905441
5.24433930961127,-1.334148890028629,1.3002960368474097,-3.0190418450221346,10.542399658153819,-3.3971360110677984
5.230997820710984,-1.2287248934470907,1.2701056183971884,-3.0530132051328125,10.880629269167269,-3.034865020662728
5.218710571776513,-1.119918600755418,1.2395754863458603,-3.0833618553394397,11.197080641562135,-2.705112255970431
5.207511385768959,-1.0079477943397968,1.208741867792466,-3.110412977899144,11.491049775691504,-2.410992819630173
5.197431907825561,-0.8930372965828817,1.1776377380134746,-3.134522906095446,11.762145160325565,-2.1555002431501933
5.188501534859732,-0.775415844979626,1.1462925089525202,-3.1560779085269477,12.01032844134436,-1.9414648486901998
5.180747376409935,-0.6553125605661824,1.1147317298672508,-3.1754925570138495,12.235950313879766,-1.7715189329541505
5.174194250804273,-0.5329530574273847,1.0829768042971122,-3.1932077463433908,12.439780131250627,-1.6480719502459484
5.168864720229999,-0.4085552561148785,1.0510447268336782,-3.20968846584585,12.6230283037585,-1.5732984513727717
5.164779167668851,-0.28232497307729343,1.0189478421752196,-3.225421450359578,12.787361240414732,-1.5491409809750294
5.161955917938077,-0.1544513606731461,0.9866936276716238,-3.2409128601693284,12.934909314200079,-1.577329516082756
5.160411404331346,-0.025102267531145306,0.9542844990699305,-3.256686155330156,13.068269053929495,-1.6594184179702862
5.160160381656034,0.10558042300814965,0.9217176375166289,-3.273280339509859,13.190501437533165,-1.7968413410858286
5.161216185886116,0.2374854373834813,0.8889848341215304,-3.2912487529207173,13.305128749295582,-1.9909841618329116
5.16359104025995,0.37053672487643713,0.8560723465923232,-3.3111585945390463,13.416132949831207,-2.2432758071679015
5.167296407508715,0.5046980543747492,0.8229607606469328,-3.3335913526107253,13.527958891407312,-2.5552969120136737
5.172343388052463,0.6399776432888223,0.7896248471208256,-3.359144321730862,13.645526006311254,-2.9289065304218207
5.1787431644853505,0.7764329033519348,0.7560334039035169,-3.3884333870350805,13.774252325649234,-3.366387664146332
5.18650749351887,0.9141754266084272,0.7221490700331661,-3.4220972636765437,13.920094875240485,-3.870613128858663
5.195649247784954,1.053376375360832,0.6879280973964006,-3.4608033949651302,14.08961065845329,-4.445234200615712
5.206183011538562,1.194272481945365,0.6533200634467493,-3.5052557369712876,14.290042557316447,-5.094895478209459
5.218125736358016,1.3371729075185295,0.6182675060770364,-3.5562046917533823,14.529434485527744,-5.825480287058407
5.231497465433201,1.482467252373807,0.5827054591595026,-3.6144594946239663,14.816779814510982,-6.644391414237595
5.246322137956939,1.6306350505189169,0.5465608642132629,-3.6809034087663424,15.162206050589663,-7.560871391966795
5.262628488462129,1.7822571110248135,0.5097518301255994,-3.7565121226860105,15.577196141550452,-8.58636377957246
5.280451059572377,1.938029072440318,0.4721867088987393,-3.842375760481735,16.0748410414253,-9.734909728513562
5.29983135029678,2.098777482854571,0.43376295129392195,-3.939724857766871,16.6701062302835,-11.02355836561351
5.320819125125326,2.265478545157406,0.39436570271625326,-4.049960441423006,17.380071024332356,-12.47273724819802
5.3434739105769005,2.43927925540073,0.3538660983020232,-4.1746878139049866,18.224052851966494,-14.106465252504211
5.3678667031309075,2.621519783920395,0.31211922016297333,-4.315752466430029,19.223438704982364,-15.952166210000458
5.394081900970112,2.8137541709702187,0.26896169549867305,-4.4752741285300335,20.40087423608336,-18.039603710202268
5.422219442679814,3.0177629133310524,0.22420895421337272,-4.655670165632056,21.778136378416953,-20.398006223916905
5.452397071813125,3.235544277115222,0.17765225255705216,-4.859650227871225,23.371410766160775,-23.049608518772175
5.484752514584277,3.4692583847768295,0.1290557502783399,-5.090146313058947,25.181599028664095,-25.996301918683386
5.519445098432045,3.7210743750634703,0.07815428714775044,-5.350109332245781,27.17539869342076,-29.193444184414584
5.556655842182679,3.992828361997678,0.02465319382529263,-5.6420437740899265,29.250034854546925,-32.50084267524839
5.596584125802656,4.285328710543147,-0.03176724391560664,-5.96705220084241,31.17145492602347,-35.596551439514386
5.639437412908088,4.597043259803382,-0.09143776592403074,-6.323017715237554,32.47720680399926,-37.84092251162079
5.685407845506122,4.921815327843374,-0.1546679430764063,-6.701426940353762,32.35694424029295,-38.10846432535592
5.734625998784556,5.245384770246304,-0.2216822124799439,-7.082511583607321,29.601141761309265,-34.71342524717035
5.787079846487019,5.541396187859396,-0.2925073283160171,-7.4296458360790245,22.868860253995944,-25.779443614917927
5.842493808365613,5.7700847903993555,-0.36680378667680735,-7.687440272228204,11.606022388006238,-10.517516641326607
5.900194656269607,5.886145014279418,-0.44367818939908943,-7.79261543864147,-2.6453169969280577,8.948571243392383
5.959056106412401,5.859691844310137,-0.5216043437855041,-7.703129726207546,-16.170842719653827,27.476147712080383
6.017653024855503,5.697983417113599,-0.5986356410475796,-7.428368249086742,-25.43166959635646,40.17218086209247
6.0746328590266385,5.443666721150034,-0.672919323538447,-7.026646440465818,-29.470646754811213,45.72949074826608
6.129069526238139,5.148960253601922,-0.7431857879431052,-6.569351532983157,-29.593941613003405,45.96678872320746
6.180559128774158,4.853020837471888,-0.8088793032729368,-6.109683645751082,-27.611256043716295,43.38188623128008
6.229089337148877,4.576908277034725,-0.8699761397304476,-5.675864783438282,-24.82307717798945,39.75683147403206
6.274858419919224,4.328677505254831,-0.9267347875648304,-5.278296468697961,-21.926810146640758,36.03761742781983
6.318145194971772,4.1094094037884235,-0.97951775225181,-4.917920294419763,-19.22736765168554,32.63024419093336
6.359239289009657,3.917135727271568,-1.0286969551960077,-4.59161785251043,-16.82665347090355,29.663677555080216
6.398410646282373,3.748869192562532,-1.074613133721112,-4.294981076959628,-14.734969758245068,27.143258068886496
6.435899338207998,3.6015194949800815,-1.1175629444907083,-4.023548496270763,-12.926639074175032,25.026671234605608
6.471914533157799,3.472253104238331,-1.1577984294534158,-3.773281783924707,-11.365375382283975,23.258227127293974
6.506637064200182,3.358599350415491,-1.195531247292663,-3.5406995126517673,-10.014965314219056,21.78304475352849
6.5402230577043365,3.2584496972733006,-1.2309382424191806,-3.3228690651164823,-8.84322459309101,20.552122694269325
6.57280755467707,3.1700174513423907,-1.2641669330703453,-3.117347838173789,-7.823021723934198,19.523490863977216
6.604507729190494,3.0917872341030486,-1.2953404114520832,-2.922112929534017,-6.932107470530569,18.6618077080026
6.635425601531524,3.0224661593977427,-1.3245615407474234,-2.735494852453991,-6.152523464755926,17.937445078696555
6.665650263125501,2.9609409247501834,-1.3519164892719633,-2.5561204016670254,-5.469919921133145,17.325499983746553
6.695259672373003,2.906241725538852,-1.3774776932886335,-2.3828654018295596,-4.872912303534055,16.804902510674957
6.724322089628391,2.857512602503512,-1.4013063473069292,-2.21481637672281,-4.352518683237681,16.357671615174326
6.752897215653426,2.813987415671135,-1.4234545110741572,-2.051239660571067,-3.9016825891012514,15.968321667902929
6.781037089810137,2.7749705897801222,-1.4439669076798678,-1.8915564438920378,-3.514872315221456,15.623404414030105
6.808786795707938,2.7398218666279077,-1.462882472118788,-1.7353223997517366,-3.18774400503989,15.31116584067284
6.836185014374217,2.707944426577509,-1.4802356961163055,-1.5822107413450082,-2.9168564551369394,15.021297474116729
6.863264458639992,2.6787758620261393,-1.4960578035297556,-1.4319977666038408,-2.6994277868942547,14.744763365587515
6.890052217260253,2.6517815841571966,-1.510377781195794,-1.2845501329479656,-2.533126712516171,14.473686037867985
6.916570033101825,2.626450317032035,-1.5232232825252736,-1.1398132725692858,-2.415893539391865,14.201276461811604
6.942834536272145,2.6022913816381164,-1.5346214152509665,-0.9978005079511697,-2.3457880793217387,13.921794642187315
6.968857450088526,2.578833500844899,-1.5445994203304783,-0.8585825615292966,-2.320863155552607,13.630528723635575
6.994645785096975,2.555624869289373,-1.5531852459457711,-0.7222772742929409,-2.339063393235705,13.323781840786772
7.020202033789869,2.532234235357016,-1.5604080186887006,-0.5890394558850731,-2.3981494398458314,12.99885738042733
7.045524376143439,2.5082527409585578,-1.5662984132475513,-0.4590508820807998,-2.4956477283332505,12.654034997070532
7.070606903553025,2.4832962636752254,-1.5708889220683593,-0.3325105321100945,-2.628825440205412,12.288531656349146
7.0954398661897775,2.457008009273171,-1.5742140273894603,-0.20962521554660304,-2.794689555685236,11.902444128863491
7.120009946282509,2.429061113716319,-1.5763102795449262,-0.09060077425796813,-2.9900079282644425,11.49667160966667
7.144300557419672,2.3991610344336745,-1.577216287287506,0.02436594183869857,-3.2113493401004987,11.072819337878125
7.168292167764008,2.3670475410326697,-1.576972627869119,0.13509413521747982,-3.4551386278200225,10.633086060591577
7.191962643174334,2.3324961547544696,-1.5756216865169441,0.2414249958233956,-3.717722337932766,10.18013976109336
7.215287604721879,2.295318931375142,-1.57320743655871,0.3432263934343292,-3.995440061418189,9.716987129608373
7.23824079403563,2.2553645307609598,-1.5697751726243667,0.44039626473041293,-4.284696644341251,9.246842731762062
7.26079443934324,2.2125175643175474,-1.5653712099770627,0.5328646920480336,-4.582030862334229,8.773003730497264
7.282919614986415,2.166697255694205,-1.5600425630565824,0.6205947293530062,-4.884176825270711,8.298735410181015
7.3045865875433575,2.117855487441498,-1.5538366157630523,0.7035820834548163,-5.18811525810824,7.827171755224281
7.325765142417772,2.0659743348604156,-1.546800794928504,0.7818538010070591,-5.491112784113241,7.361234095904691
7.3464248857663765,2.011063207019283,-1.5389822569184335,0.855466141966106,-5.7907483185485855,6.90356950258253
7.366535517836569,1.9531557238337973,-1.5304275954987725,0.9245018369919313,-6.084926580017884,6.456509322501439
7.386067075074907,1.8923064580336184,-1.5211825771288532,0.9890669302169457,-6.371879481583021,6.022047117863734
7.404990139655243,1.8285876632177882,-1.5112919078266838,1.049287401395583,-6.650156739299033,5.601834350165125
7.423276016287421,1.762086095824798,-1.500799033812728,1.1053057448972343,-6.91860742178755,5.197191496869365
7.4408968772456685,1.6929000216069223,-1.4897459763637555,1.157277659865928,-7.1763543713670375,4.809131882771796
7.457825877461738,1.621136477893252,-1.4781731997650962,1.205368978693646,-7.42276348003889,4.438395335458351
7.47403724224067,1.546908843092863,-1.4661195099781597,1.2497529320482295,-7.657409735283071,4.0854887920410246
7.489506330671599,1.4703347457400322,-1.4536219806576773,1.2906078199686397,-7.880041796400661,3.750731145706374
7.5042096781289995,1.3915343277760255,-1.440715902457991,1.3281151314257034,-8.09054665512411,3.434299878447682
7.518125021406759,1.3106288612247843,-1.427434751143734,1.3624581302101801,-8.288915702363568,3.1362773386721607
7.531231310019007,1.2277397042011486,-1.413810169841632,1.3938209035969018,-8.47521328764088,2.856694855316901
7.543508707061019,1.14298757132474,-1.3998719608056631,1.4223878521500708,-8.649548633459721,2.5955732091394417
7.554938582774266,1.0564920849901427,-1.3856480822841624,1.4483435842414651,-8.812051761700745,2.352958291609114
7.565503503624168,0.9683715673731352,-1.3711646464417477,1.4718731671575562,-8.962853905979241,2.1289510649886614
7.5751872192978995,0.8787430283133428,-1.3564459147701722,1.493162677807443,-9.102072721699361,1.9237311928213923
7.583974649581033,0.7877223010963492,-1.3415142879920978,1.5123999897356568,-9.229802460708118,1.7375739416518852
7.591851872591996,0.6954242764892681,-1.3263902880947414,1.5297757291521756,-9.346109145235266,1.5708601684937638
7.598806115356889,0.6019631850369154,-1.3110925308032195,1.5454843308371133,-9.45103065143771,1.4240794111857902
7.604825747207259,0.5074528785225383,-1.2956376874948483,1.5597251249489712,-9.544581492543001,1.2978262964728786
7.609900275992484,0.41200706359710826,-1.2800404362453586,1.5727033879137,-9.626761973178253,1.1927906775737862
7.614020346628455,0.3157394438653257,-1.2643134023662215,1.5846312946894379,-9.697571269981513,1.1097421104952363
7.617177741067108,0.21876373116551057,-1.248467089419327,1.5957287157943902,-9.757023881322771,1.0495094744890436
7.619365378378763,0.12119349235228286,-1.2325098022613832,1.6062238105392808,-9.805168785385808,1.0129567315836139
7.620577313302286,0.023141804498424776,-1.2164475641559904,1.616353377855117,-9.842110557220431,1.000955994913257
7.62080873134727,-0.07527930107377954,-1.2002840303774394,1.6263629378042495,-9.868031629019654,1.014359225383592
7.620055938336533,-0.17395961736397608,-1.1840204009993969,1.6365065300580854,-9.88321484142358,1.053969989881279
7.618316342162893,-0.2727917657782119,-1.167655335698816,1.6470462299568982,-9.888065434033528,1.1205167810468968
7.615588424505111,-0.3716724201185472,-1.151184873399247,1.6582513977673672,-9.883131665847776,1.2146294098017427
7.611871700303926,-0.47050373677702495,-1.1346023594215733,1.6703976918653847,-9.86912334388713,1.3368199319018206
7.607166662936155,-0.5691949702158963,-1.1178983825029194,1.683765891184403,-9.846927670762552,1.48746945779874
7.601474713233996,-0.6676642469235218,-1.1010607235910754,1.6986405857623903,-9.817621996039614,1.6668220252240942
7.594798070764761,-0.7658404668839179,-1.0840743177334515,1.7153088060146313,-9.782483265630896,1.8749864957785745
7.587139666095922,-0.8636652995402269,-1.0669212296733053,1.734058670972417,-9.742994199273623,2.111947185053449
7.57850301310052,-0.9610952415329631,-1.049580642963581,1.7551781428229516,-9.700846478015345,2.3775836692845855
7.56889206068519,-1.0581037063131165,-1.0320288615353514,1.7789539795157974,-9.657941480669301,2.67169995201937
7.558311023622059,-1.1546831211198094,-1.0142393217401935,1.805670979035991,-9.616389360336496,2.994062944996272
7.546764192410861,-1.2508470147231745,-0.9961826119498336,1.8356116084859537,-9.57850749125956,3.3444500415647
7.534255722263629,-1.3466320896357702,-0.977826495864974,1.8690561089016007,-9.546819537512144,3.722705460270621
7.520789401367272,-1.4421002850108917,-0.959135934775958,1.906283163504307,-9.524056597336772,4.128805030067343
7.5063683985171625,-1.5373408509842594,-0.940073103140915,1.9475712138049803,-9.513162063867831,4.562929193426445
7.49099499000732,-1.6324724716229377,-0.9205973910028652,1.9932005057392448,-9.517302022893954,5.025544232947382
7.474670265291091,-1.7276454918518773,-0.9006653859454727,2.0434559480687184,-9.539883194435808,5.5174920920021915
7.457393810372572,-1.8230443237962355,-0.8802308264647856,2.0986308689887405,-9.584580634989123,6.040089670029096
7.43916336713461,-1.9188901301461267,-0.8592445177748982,2.1590317656890314,-9.655377672935733,6.595239137187844
7.419974465833148,-2.015443906875484,-0.8376542001180078,2.2249841570609097,-9.756620875140158,7.185551639915239
