th1 (rad),w1 (rad/s),th2 (rad),w2 (rad/s),a1 (rad/s^2),a2 (rad/s^2)
3.485679465877017,1.4241559357047848,0.5552451917763342,-1.5489134795249069,1.411287758479514,-3.3610449411121333
3.499921025234065,1.43826881328958,0.5397560569810852,-1.5825239289360282,1.7774621985142487,-2.9149443265459207
3.514303713366961,1.4560434352747225,0.5239308176917249,-1.6116733722014875,2.165598297538502,-2.4425582911351826
3.528864147719708,1.4776994182501075,0.5078140839697101,-1.6360989551128393,2.572931458133496,-1.9485893368348999
3.543641141902209,1.5034287328314424,0.49145309441858165,-1.6555848484811884,2.995737524654188,-1.439108835750788
3.5586754292305236,1.5333861080779843,0.47489724593376975,-1.6699759368386962,3.429368934702327,-0.9215201897986842
3.5740092903113037,1.5676797974250076,0.4581974865653828,-1.679191138736683,3.86835767373186,-0.40443125063160285
3.589686088285554,1.6063633741623262,0.44140557517801593,-1.683235451242999,4.306587816023422,0.10256900326862378
3.605749722027177,1.6494292523225604,0.42457322066558595,-1.6822097612103128,4.737532903162731,0.5892245197229442
3.6222440145504025,1.6968045813541877,0.4077511230534828,-1.6763175160130834,5.154545148134088,1.0450007538837267
3.639212060363944,1.7483500328355286,0.390987947893352,-1.6658675084742463,5.551175816350504,1.4595209914151017
3.6566955606922993,1.8038617909990335,0.37432927280860956,-1.6512722985600952,5.921500600891322,1.82301563093413
3.67473417860229,1.8630767970079467,0.3578165498230086,-1.633042142250754,6.260421615221386,2.126745941009467
3.6933649465723692,1.9256810131601605,0.3414861284005011,-1.6117746828406592,6.563919422638567,2.3633653697194967
3.712621756703971,1.9913202073865461,0.32536838157209447,-1.5881410291434641,6.82923415296156,2.5271882337690745
3.7325349587778365,2.059612548916162,0.30948697128065983,-1.5628691468057734,7.054963264859207,2.6143463969403498
3.753131084266998,2.130162181564754,0.2938582798126021,-1.5367256828363698,7.2410733640220215,2.622827414198544
3.7744327060826457,2.202572915204974,0.2784910229842384,-1.5104974086943843,7.388832962531361,2.5524003126839934
3.7964584352346953,2.2764612448302874,0.26338604889729456,-1.4849734055675443,7.500680669186942,2.4044456868889696
3.819223047682998,2.351468051522157,0.24853631484161912,-1.4609289486986545,7.580048079401221,2.18171374817617
3.8427377281982196,2.427268532316169,0.23392702535463256,-1.4391118112168928,7.631158302043065,1.888036892173742
3.867010413521381,2.5035801153365997,0.21953590724246363,-1.4202314422951554,7.65881994635949,1.5280225415017163
3.892046214674747,2.580168314800195,0.20533359281951208,-1.4049512168801384,7.668233239396411,1.1067483677019958
3.917847897822749,2.656850647194159,0.1912840806507107,-1.3938837332031184,7.664820669810872,0.6294766378707802
3.9444164042946905,2.733498853892268,0.1773452433186795,-1.3875889668244106,7.654090026811032,0.10139848451601836
3.971751392833613,2.8100397541603783,0.1634693536504354,-1.3865749819792503,7.6415335989184925,-0.47258674773705983
3.999851790375217,2.886455090149563,0.14960360383064292,-1.391300849456621,7.632564038320346,-1.0880566937138934
4.028716341276713,2.9627807305327667,0.13569059533607672,-1.40218141639376,7.632485161797868,-1.741218946620453
4.058344148582041,3.0391055821507456,0.12166878117213911,-1.4195936058599645,7.646494739101942,-2.429037569414518
4.088735204403548,3.115570529541765,0.10747284511353947,-1.4438839815541098,7.679715986719677,-3.149340410031176
4.119890909698966,3.192367689408962,0.09303400529799837,-1.4753773856544217,7.737254860061691,-3.900915307229527
4.151814586593056,3.269740238009579,0.07828023144145414,-1.514386538726717,7.824281140362311,-4.683603663955587
4.184511988973152,3.347983049413202,0.06313636605418697,-1.561222575366273,7.9461325963722835,-5.49840010223973
4.217991819467284,3.427444375376925,0.047524140300524244,-1.6162065763886702,8.108443066321973,-6.347567236468665
4.2522662632210535,3.508528806040145,0.031362074536637544,-1.6796822487533567,8.31729710675051,-7.234775210479194
4.287351551281455,3.5917017771076503,0.014565252049103975,-1.7520300008581486,8.579415894412989,-8.165276702371624
4.323268569052532,3.67749593605178,-0.00295504795947751,-1.8336827678818648,8.902381385638149,-9.146129739299155
4.360043528413049,3.7665197499081615,-0.021291875638296157,-1.9251440652748564,9.294908390775225,-10.186482969720348
4.397708725912131,3.8594688338159138,-0.040543316291044726,-2.02700889497206,9.767177243822147,-11.29794101916347
4.43630341425029,3.957140606254135,-0.060813405240765325,-2.1399883051636945,10.331243071998847,-12.495031035291385
4.475874820312831,4.060453036974124,-0.08221328829240226,-2.2649386155166082,11.001540964674499,-13.795794933475557
4.516479350682572,4.170468446620869,-0.10486267444756835,-2.402896564851364,11.795508660741447,-15.222533717345476
4.558184035148781,4.288423533228284,-0.12889164009608198,-2.555121902024819,12.734347423479026,-16.80272716573521
4.601068270481063,4.4157670074630735,-0.15444285911633016,-2.723149173682171,13.843932340552932,-18.570136589695515
4.645225940555694,4.5542063308686025,-0.18167435085315187,-2.9088505395791264,15.155853904738736,-20.5660538392886
4.690768003864379,4.70576486991599,-0.21076285624894314,-3.114511077972012,16.708498524152585,-22.84055090095485
4.737825652563539,4.872849855157516,-0.24190796702866327,-3.342916586981561,18.54790298407772,-25.45333539312413
4.786554151115114,5.058328884998293,-0.2753371328984789,-3.597449940912802,20.727731822276915,-28.47326570863926
4.837137439965097,5.265606203221062,-0.3113116323076069,-3.8821825979991944,23.306882008550588,-31.974380313394242
4.889793501997307,5.498675023306568,-0.35013345828759884,-4.201926401133137,26.341403418353966,-36.023727737202556
4.944780252230372,5.762089057490107,-0.3921527222989302,-4.562163678505162,29.863610915091524,-40.65090726927139
5.002401142805273,6.0607251666410225,-0.4377743590839818,-4.968672751197876,33.833627816979906,-45.77848511312617
5.063008394471684,6.399061444810822,-0.4874610865959606,-5.426457602329138,38.03490807911056,-51.073222787072
5.126999008919792,6.779410525601927,-0.5417256626192519,-5.937189830199857,41.867617391115516,-55.65334903666187
5.194793114175811,7.198086699513082,-0.6010975609212506,-6.493723320566476,44.00057571772649,-57.59717764510895
5.2667739811709415,7.638092456690347,-0.6660347941269154,-7.069695097017565,41.99401390832919,-53.412898070569966
5.343154905737845,8.05803259577364,-0.736731745097091,-7.603824077723265,32.56563365761176,-38.42046287903489
5.423735231695582,8.383688932349758,-0.8127699858743237,-7.988028706513614,13.961042003120053,-10.108906473585234
5.507572121019079,8.523299352380958,-0.8926502729394599,-8.089117771249466,-9.788561597692848,25.83617470670426
5.592805114542888,8.42541373640403,-0.9735414506519545,-7.830756024182423,-29.195950170668027,55.970124165775296
5.677059251906929,8.13345423469735,-1.0518490108937788,-7.27105478252467,-37.97882296587169,71.29728605850518
5.7583937942539025,7.7536660050386335,-1.1245595587190256,-6.5580819219396185,-37.74069693810759,73.92846459486759
5.835930454304289,7.376259035657558,-1.1901403779384219,-5.818797275990942,-33.09215218118122,70.27480286817041
5.909693044660864,7.0453375138457455,-1.2483283506983314,-5.116049247309238,-27.261207484365002,64.8658212340793
5.980146419799322,6.7727254390020954,-1.2994888431714238,-4.467391034968445,-21.678050132442124,59.728801777894645
6.047873674189343,6.555944937677674,-1.3441627535211083,-3.8701030171894986,-16.78865732672875,55.5074569257413
6.11343312356612,6.388058364410387,-1.3828637836930033,-3.3150284479320855,-12.64285244470041,52.27838467469274
6.1773137072102235,6.261629839963383,-1.4160140681723241,-2.7922446011851583,-9.164602566618992,49.92830122614716
6.239930005609858,6.1699838142971934,-1.4439365141841758,-2.2929615889236867,-6.255569683646509,48.29947910620144
6.3016298437528295,6.107428117460729,-1.4668661300734127,-1.8099667978616725,-3.8294056865943196,47.23854932707488
6.362704124927437,6.069134060594785,-1.4849657980520294,-1.3375813045909237,-1.8200979640088457,46.60906685021674
6.423395465533385,6.050933080954697,-1.4983416110979386,-0.8714906360887563,-0.18137788295400706,46.29178785395108
6.483904796342932,6.049119302125157,-1.5070565174588262,-0.40857275754924555,1.1165383777949855,46.1816509008194
6.544395989364183,6.060284685903107,-1.5111422450343186,0.05324375145894844,2.0907201913363203,46.18467227915253
6.604998836223214,6.081191887816471,-1.5106098075197292,0.5150904742504737,2.749152204602169,46.215781410911575
6.665810755101379,6.1086834098624925,-1.5054589027772245,0.9772482883595894,3.0940767586305733,46.197798947515516
6.7268975892000045,6.139624177448798,-1.4956864198936286,1.4392262778347447,3.125031145363616,46.061438147849216
6.788293830974492,6.1708744889024345,-1.4812941571152811,1.8998406593132369,2.841557419100455,45.74606954993624
6.850002575863517,6.199290063093439,-1.4622957505221488,2.3573013548125994,2.2455243870061716,45.20092101441811
6.911995476494451,6.221745306963501,-1.4387227369740228,2.8093105649567804,1.3429738398982207,44.38636288290031
6.974212929564086,6.2351750453624835,-1.4106296313244548,3.2531741937857834,0.1454056848906594,43.27495181805546
7.036564680017711,6.23662910221139,-1.378097889386597,3.685923711966338,-1.3295463217857995,41.85197955210733
7.098930971039825,6.223333638993532,-1.3412386522669335,4.104443507487412,-3.0580333887579414,40.115386722376805
7.16116430742976,6.192753305105953,-1.3001942171920593,4.50559737471118,-5.010418797694622,38.07503616261696
7.223091840480819,6.1426491171290065,-1.2551382434449474,4.88634773633735,-7.152069265709939,35.751464205527135
7.28451833165211,6.071128424471907,-1.2062747660815738,5.243862378392621,-9.44434087156266,33.174312724647095
7.345229615896828,5.9766850157562805,-1.1538361422976475,5.575605505639092,-11.845605025374274,30.380669309892188
7.404996466054391,5.858228965502538,-1.0980800872412566,5.879412198738014,-14.31221169377979,27.413505860958637
7.463578755709417,5.71510684856474,-1.0392859652538764,6.153547257347601,-16.799359637352474,24.320322456298427
7.520729824195064,5.547113252191215,-0.9777504926804004,6.396750481910585,-19.261914725137792,21.152001367966687
7.576200956716977,5.354494104939837,-0.9137829878612945,6.6082704955902525,-21.65526592465835,17.961786783006005
7.629745897766375,5.1379414456932535,-0.847700282905392,6.787888363420312,-23.936319482075152,14.804254933872182
7.681125312223307,4.898578250872502,-0.7798213992711889,6.935930912759034,-26.064700967996515,11.734140655662047
7.730111094732033,4.637931241192537,-0.7104620901435985,7.053272319315654,-28.004169985614116,8.804938556356413
7.7764904071439584,4.357889541336396,-0.639929366950442,7.141321704879218,-29.72417117076777,6.067284503862997
7.8200693025573225,4.060647829628719,-0.5685161499016498,7.201994549917847,-31.201370940561272,3.567220689490798
7.86067578085361,3.748634120223106,-0.49649620440247133,7.2376667568127555,-32.4209847082859,1.3445270278530874
7.898162122055841,3.424424273140247,-0.4241195368343438,7.2511120270912865,-33.37769890631609,-0.5686597373917286
7.932406364787243,3.090647284077086,-0.3516084165634309,7.245425429717369,-34.076038751586175,-2.1487309927205547
7.963312837628014,2.7498868965612244,-0.2791541622662572,7.223938119790164,-34.530115523161896,-3.3808477847589233
7.990811706593626,2.4045857413296057,-0.2069147810683556,7.190129641942574,-34.76278559791862,-4.2584824907152345
8.014857564006922,2.0569578853504193,-0.13501348464892984,7.147544817035422,-34.80434386999863,-4.7823013759457265
8.035427142860426,1.7089144466504331,-0.06353803647857562,7.0997218032759655,-34.69093694265615,-4.958508882213264
8.052516287326931,1.3620050772238717,0.007459181554184041,7.050136714453833,-34.46290646132086,-4.796822046173691
8.06613633809917,1.017376012610663,0.07796054869872238,7.002168493992096,-34.16326058063193,-4.308254007896778
8.076310098225276,0.6757434068043437,0.14798223363864332,6.959085953913129,-33.83643029080227,-3.502865147206064
8.08306753229332,0.33737910389632103,0.21757309317777462,6.924057302441068,-33.527408797210896,-2.387602472547257
8.086441323332284,0.0021050159242120836,0.2868136662021853,6.900181277715595,-33.2813057104247,-0.9643102873205224
8.086462373491527,-0.3307080411800349,0.35581547897934124,6.89053817484239,-33.14327556061927,0.7720209897269115
8.083155293079725,-0.6621407967862276,0.42472086072776516,6.898258384739659,-33.15869193226208,2.8346677936982987
8.076533885111862,-0.9937277161088485,0.49370344457516174,6.926605062676642,-33.373304624990524,5.24602051849052
8.066596607950775,-1.3274607623587538,0.5629694952019282,6.9790652678615475,-33.832874516007394,8.03733053052837
8.053322000327187,-1.6657895075188276,0.6327601478805437,7.059438573166831,-34.58130461863632,11.246170417442267
8.036664105252,-2.011602553705191,0.703354533612212,7.171900277341254,-35.65533798145369,14.909096089041642
8.016548079714948,-2.368155933519728,0.7750735363856246,7.32099123823167,-37.0720403843759,19.044397182630824
7.99286652037975,-2.738876337363487,0.8482834487679413,7.511435210057979,-38.80183592325984,23.614958548238185
7.9654777570061155,-3.1268946965960853,0.9233978008685211,7.7475847955403605,-40.71410693517777,28.45308417204317
7.934208810040155,-3.534035765947863,1.0008736488239247,8.032115637260793,-42.47530895021302,33.11892467749932
7.898868452380676,-3.9587888554499933,1.0811948051965325,8.363304884035786,-43.380812761437696,36.6650989745744
7.859280563826176,-4.3925969830643705,1.1648278540368904,8.729955873781531,-42.148715994562906,37.34423284638088
7.815354593995532,-4.81408414301,1.2521274127747057,9.10339820224534,-36.88500006808263,32.54708781727284
7.767213752565432,-5.182934143690826,1.3431613947971592,9.42886908041807,-25.78184736616563,19.7508625228858
7.7153844111285235,-5.440752617352482,1.43745008560134,9.626377705646927,-9.05690737349779,-0.8116562740184444
7.660976884954999,-5.531321691087459,1.5337138626578093,9.618261142906743,9.274447831528484,-23.7064165668216
7.605663668044124,-5.4385772127721745,1.6298964740868767,9.381196977238528,23.348932764838136,-40.98748313150738
7.551277895916402,-5.205087885123794,1.723708443859262,8.971322145923454,30.25137297516081,-48.772399130460684
7.499227017065165,-4.902574155372186,1.8134216653184965,8.483598154618846,31.25701965547583,-48.87594079009829
7.450201275511443,-4.5900039588174275,1.898257646864685,7.994838746717863,29.07377454037139,-44.98937186870966
7.404301235923269,-4.299266213413714,1.9782060343318637,7.544945028030766,25.7207106097018,-39.8082531083928
7.361308573789132,-4.042059107316696,2.0536554846121713,7.146862496946838,22.233082000118987,-34.67434664451078
7.320887982715965,-3.819728287315506,2.1251241095816398,6.8001190305017305,19.025024649020953,-30.093486954991583
7.28269069984281,-3.6294780408252967,2.193125299886657,6.499184160951815,16.212532627707922,-26.180900114347622
7.246395919434557,-3.4673527145482175,2.258117141496175,6.237375159808339,13.78961025852803,-22.89911158409859
7.211722392289074,-3.329456611962937,2.3204908930942585,6.008384043967353,11.708631765376493,-20.163921225815265
7.178427826169445,-3.212370294309172,2.380574733533932,5.8067448317092,9.913472402903079,-17.88653153014636
7.146304123226353,-3.1132355702801413,2.438642181851024,5.627879516407737,8.351786698909631,-15.988069302468764
7.1151717675235515,-3.029717703291045,2.4949209770151017,5.467998823383049,6.978648446835196,-14.402990821426533
7.084874590490641,-2.9599312188226934,2.549600965248932,5.323968915168784,5.7568529908957125,-13.078374490709997
7.055275278302415,-2.9023626889137364,2.60284065440062,5.1931851702616845,4.65610042252529,-11.971938147180266
7.026251651413277,-2.8558016846884833,2.654772506103237,5.073465788789882,3.6519562444374265,-11.049857737452394
6.997693634566392,-2.819282122244109,2.7055071639911357,4.962967211415358,2.724932281758138,-10.284738663314503
6.969500813343951,-2.7920327994265275,2.7551368361052893,4.860119824782213,1.8598053575624172,-9.653801651946761
6.941580485349686,-2.773434745850903,2.8037380343531115,4.763581808262746,1.0452038627326867,-9.137237770272169
6.913846137891177,-2.762982707223576,2.851373852435739,4.672209430560025,0.2734596272516104,-8.716657575815397
6.886216310818941,-2.76024811095106,2.898095946741339,4.585042854801871,-0.45929369755260546,-8.37356747753468
6.858613829709431,-2.7648410479265864,2.9439463752893578,4.501307180026524,-1.1528142038407196,-8.087841361855219
6.830965419230165,-2.7763691899649934,2.988959447089623,4.420428766407972,-1.802311823263239,-7.836220126403169
6.803201727330515,-2.794392308197626,3.033163734753703,4.3420665651439405,-2.398011194385508,-7.590973190394395
6.775257804248539,-2.818372420141481,3.0765844004051424,4.266156833239997,-2.924943180294988,-7.318996512730627
6.747074080047124,-2.8476218519444307,3.1192459687375425,4.19296686811269,-3.363296150406929,-6.981784067555494
6.718597861527679,-2.8812548134485,3.1611756374186695,4.123149027437136,-3.6897395835191658,-6.536839048528176
6.689785313393195,-2.9181522092836913,3.202407127693041,4.057780636951854,-3.8801148857851757,-5.941080411415684
6.660603791300358,-2.956953358141543,3.2429849340625596,3.9983698328376973,-3.9136710929997554,-5.1565051829100295
6.631034257718943,-2.9960900690715406,3.2829686323909364,3.946804781008597,-3.7785327273558225,-4.157678403292149
6.601073357028227,-3.033875396345099,3.3224366802010223,3.905227996975676,-3.4773739034280577,-2.9396068407573015
6.570734603064776,-3.0686491353793794,3.361488960170779,3.8758319285681027,-3.0316024462913296,-1.5235845830833967
6.540048111710982,-3.098965159842293,3.40024727945646,3.8605960827372687,-2.48217996841037,0.04167751838545919
6.509058460112559,-3.1237869595263965,3.4388532402838328,3.861012857921123,-1.8859032050610702,1.685350453381855
6.477820590517295,-3.142645991577007,3.477463368863044,3.8778663624549417,-1.3074946781449122,3.325759557194944
6.446394130601525,-3.1557209383584564,3.516242032487593,3.911123958026891,-0.8095385853753556,4.884755447397477
6.41483692121794,-3.1638163242122097,3.5553532720678622,3.9599715125008657,-0.4432173921704206,6.300974845427241
6.383198757975818,-3.168248498133914,3.5949529871928707,4.022981260955138,-0.24241129432417577,7.538334216023756
6.351516272994479,-3.1706726110771557,3.635182799802422,4.0983646031153755,-0.22227944101890415,8.588168413664842
6.319809546883707,-3.1728954054873446,3.6761664458335757,4.184246287252024,-0.3817950477443997,9.465795765981111
6.288080592828834,-3.1767133559647887,3.718008908706096,4.278904244911835,-0.7086526165980854,10.203806927882255
6.256313459269186,-3.1837998821307694,3.7607979511552143,4.380942314190658,-1.184785121318259,10.844629073737243
6.224475460447878,-3.195647733343952,3.8046073742971207,4.48938860492803,-1.7911934674613939,11.434242052896067
6.1925189831144385,-3.213559668018566,3.849501260346401,4.603731025456991,-2.511474141703537,12.017938405409827
6.160383386434253,-3.238674409435601,3.8955385706009706,4.723910409511089,-3.3340029878218527,12.638204796236618
6.127996642339897,-3.2720144393138195,3.9427776746960816,4.850292457473455,-4.25306247978408,13.334346641430486
6.0952764979467595,-3.3145450641116603,3.9912805992708162,4.98363592388776,-5.269309009639293,14.143345255062679
6.062131047305643,-3.3672381542080534,4.0411169585096935,5.125069376438386,-6.389949919282096,15.10150283436426
6.028458665763562,-3.4311376534008744,4.092367652274078,5.276084404782028,-7.628917522361799,16.246575981409496
5.994147289229553,-3.5074268286244923,4.145128496321898,5.438550164596124,-9.007238788151193,17.620245726369784
5.9590730209433085,-3.5974992165060042,4.199513997967859,5.614752621859822,-10.55372224562042,19.270880823778636
5.923098028778249,-3.7030364389622084,4.255661524186458,5.807461430097608,-12.306008876348104,21.256596692861194
