th1 (rad),w1 (rad/s),th2 (rad),w2 (rad/s),a1 (rad/s^2),a2 (rad/s^2)
0.37408120664986766,-0.9802607051846765,3.882599261308376,0.45098826846418133,-0.654218492100404,6.349356859426588
0.3642785995980209,-0.9868028901056805,3.887109143993018,0.5144818370584472,-0.5047436870411327,6.541652166017998
0.3544105706969641,-0.9918503269760918,3.8922539623636028,0.5798983587186272,-0.36087040835414824,6.73158914933706
0.3444920674272032,-0.9954590310596333,3.898052945950789,0.6472142502119977,-0.2240183376899674,6.917753633799792
0.33453747711660686,-0.997699214436533,3.904525088452909,0.7163917865499957,-0.0956233693742453,7.0987510959708775
0.32456048497224155,-0.9986554481302754,3.911689006318409,0.7873792975097045,0.02288159494728644,7.273234520576189
0.3145739304909388,-0.9984266321808025,3.919562799293506,0.8601116427154664,0.13008709192344572,7.439933553086061
0.30458966416913075,-0.997125761261568,3.9281639157206607,0.934510978246327,0.22462819847923102,7.597684115754692
0.29461840655651506,-0.9948794792767758,3.937509025503124,1.010487819403874,0.3052056170943044,7.745457566426835
0.2846696117637473,-0.9918274231058327,3.947613903697163,1.0879423950681424,0.37060600912862346,7.882388436322107
0.27475133753268893,-0.9881213630145464,3.9584933276478442,1.1667662794313634,0.41972081270652273,8.007799792344034
0.26487012390254344,-0.9839241548874812,3.970160990442158,1.2468442773548036,0.4515627922133091,8.12122533571938
0.2550308823536686,-0.9794085269653481,3.982629433215706,1.3280565307119974,0.46527961778204974,8.222427472107796
0.24523679708401513,-0.9747557307875275,3.9959099985228264,1.4102808054330753,0.46016386391929703,8.311410764134779
0.23548923977613986,-0.9701540921483346,4.010012806577157,1.493394913074423,0.43565894182595244,8.38843039634713
0.22578769885465652,-0.965797502730075,4.024946755707901,1.5772792170378944,0.3913606319780899,8.453995531656139
0.21612972382735576,-0.9618838964102941,4.04071954787828,1.6618191723544558,0.3270140515283309,8.50886770143413
0.2065108848632528,-0.9586137558950109,4.057337739601825,1.746907849368797,0.24250606284896062,8.554054631396673
0.1969247473043027,-0.9561886952665213,4.074806818095513,1.8324483956827637,0.1378532924012317,8.590800145653104
0.1873628603516375,-0.9548101623425089,4.09313130205234,1.9183563971392947,0.01318607119285511,8.62057099756674
0.1778147587282124,-0.9546783016305804,4.112314866023733,2.004562107114962,-0.1312712806471489,8.645041637803972
0.1682679757119066,-0.9559910144370519,4.132360487094883,2.091012523493002,-0.29522332952800595,8.66607804136126
0.15870806556753608,-0.958943247732332,4.153270612329813,2.1776733039066145,-0.4783290378616251,8.68572177576615
0.14911863309021275,-0.9637265381109482,4.175047345368879,2.264530521664276,-0.6802293934417459,8.706175506340982
0.13948136770910327,-0.9705288320453657,4.197692650585521,2.351592276727686,-0.9005766987986287,8.729791109970717
0.1297760793886496,-0.9795345990333519,4.221208573352798,2.438890187827393,-1.139065151761943,8.75906151805105
0.11998073339831608,-0.9909252505509714,4.245597475231072,2.5264808030079036,-1.39546247117081,8.796617346042941
0.11007148089280637,-1.0048798752626795,4.270862283261152,2.614446976468333,-1.6696424695591505,8.845229305908886
0.10002268214017958,-1.021576299958271,4.297006753025835,2.7028992695274217,-1.9616186414396795,8.907817352836599
0.08980691914059687,-1.0411924863726678,4.324035745721109,2.7919774430557878,-2.2715790158290674,8.987467501858937
0.07939499427687019,-1.0639082765309584,4.351955520151667,2.8818521180743772,-2.5999227100067537,9.087457273814788
0.0687559115115606,-1.089907503631026,4.380774041332411,2.972726690812525,-2.9472988137991813,9.211290801051765
0.05785683647525034,-1.1193804917690178,4.410501308240536,3.064839598823043,-3.3146484251440027,9.362744744641507
0.046663031557560165,-1.1525269760204577,4.441149704228766,3.158467046269458,-3.7032508412684266,9.545926343855998
0.03513776179735559,-1.189559484433142,4.472734374691461,3.2539263097080178,-4.114775072873106,9.765345122812935
0.023242166953024168,-1.230707235161873,4.505273637788541,3.351579760936147,-4.551337967272457,10.025999989953707
0.010935094601405437,-1.2762206148345976,4.538789435397902,3.4518397608356843,-5.015570255328202,10.333483626662556
-0.001827111546940539,-1.3263763173878795,4.573307833006259,3.55517459710231,-5.510691692857466,10.694106065482483
-0.015090874720819335,-1.3814832343164543,4.608859578977283,3.6621156577571345,-6.040595998963575,11.11503901144961
-0.028905707063983876,-1.44188919430609,4.645480735554854,3.7732660478716307,-6.609945231244966,11.6044814107146
-0.04332459900704478,-1.5079886466185397,4.683213396033571,3.889310861978777,-7.224271101345736,12.171844388787727
-0.058404485473230176,-1.580231357631997,4.722106504653358,4.011029305866654,-7.890076674966544,12.827948840396944
-0.07420679904955015,-1.6591321243816626,4.762216797712025,4.139308794270624,-8.614924417819811,13.585219644589307
-0.09079812029336677,-1.7452813685598607,4.803609885654732,4.275160990716517,-9.407482990587603,14.457843118386423
-0.10825093397896537,-1.8393561984657367,4.846361495561896,4.419739421900381,-10.27748087319757,15.461822523778467
-0.12664449596362273,-1.9421310071977125,4.8905588897809,4.574357647138166,-11.23547154148799,16.614808857573507
-0.14606580603559985,-2.0544857226125925,4.936302466252282,4.740505735713901,-12.29223803344307,17.935480753510923
-0.16661066326172577,-2.177408102947023,4.983707523609421,4.91986054324901,-13.457529300086906,19.442063289773102
-0.188384744291196,-2.3119833959478924,5.032906129041911,5.114281176146741,-14.737584838247416,21.149252095555457
-0.21150457825067492,-2.4593592443303667,5.084048940803378,5.325773697102296,-16.13050197119738,23.062253335196587
-0.2360981706939786,-2.6206642640423405,5.137306677774402,5.556396230454261,-17.617842765980015,25.16573399866539
-0.262304813334402,-2.7968426917021407,5.192870640078945,5.808053570440915,-19.149892086200886,27.40408963502358
-0.29027324025142337,-2.9883416125641498,5.250951175783354,6.082094466791151,-20.62078191827598,29.647721773690225
-0.32015665637706486,-3.1945494317469096,5.311772120451265,6.378571684528054,-21.82915567286919,31.639143712031018
-0.352102150694534,-3.4128409884756015,5.375557837296546,6.694963121648364,-22.423211433421887,32.916895251414815
-0.38623056057929,-3.63707310280982,5.442507468513029,7.024132074162512,-21.84371161283466,32.73536350615119
-0.4226012916073882,-3.855510218938167,5.512748789254655,7.351485709224025,-19.318469715713867,30.053658235018048
-0.46115639379676987,-4.048694916095306,5.586263646346895,7.652022291574205,-14.029396737050483,23.760459926559985
-0.501643342957723,-4.188988883465811,5.662783869262637,7.889626890839805,-5.592974430176777,13.32995441334941
-0.5435332317923811,-4.244918627767579,5.741680138171035,8.0229264349733,5.252295079954651,-0.2376498225606459
-0.5859824180700569,-4.192395676968032,5.8219094025207685,8.020549936747694,16.4276863330075,-14.124407950102222
-0.6279063748397372,-4.028118813637957,5.902114901888245,7.879305857246671,25.47270585561678,-25.02042709087386
-0.6681875629761168,-3.7733917550817893,5.980907960460712,7.629101586337933,31.029145788352082,-31.15207879402414
-0.7059214805269347,-3.4631002971982685,6.057198976324091,7.3175807983976915,33.303272826937835,-32.88242465726749
-0.7405524834989174,-3.13006756892889,6.130374784308068,6.988756551825016,33.336576652441934,-31.683257581224098
-0.7718531591882063,-2.796701802404471,6.2002623498263185,6.671923976012775,32.176779221588596,-28.99864129103938
-0.799820177212251,-2.474934010188585,6.266981589586447,6.381937563102381,30.540513218537047,-25.798572975946254
-0.8245695173141369,-2.1695288780032143,6.33080096521747,6.123951833342919,28.8250791390871,-22.609655162183536
-0.846264806094169,-1.8812780866123433,6.3920404835508995,5.897855281721084,27.217710263772073,-19.672545849333282
-0.8650775869602925,-1.6091009839746226,6.45101903636811,5.701129823227751,25.789309358342148,-17.07305423745785
-0.8811685968000387,-1.3512078903912013,6.508030334600387,5.530399280853172,24.5528244067464,-14.822323138059918
-0.8946806757039507,-1.1056796463237373,6.563334327408919,5.382176049472573,23.49499417626611,-12.899646336498103
-0.905737472167188,-0.8707297045610761,6.617156087903645,5.253179586107592,22.592357963312242,-11.27355141044135
-0.9144447692127988,-0.6448061249279537,6.669687883764721,5.140444072003179,21.818873916454503,-9.911455081171583
-0.9208928304620784,-0.4266173857634087,6.7210923244847525,5.0413295211914635,21.14930131504113,-8.78363685570275
-0.9251590043197124,-0.21512437261299738,6.771505619696667,4.953493152634436,20.560528094048863,-7.864505826184663
-0.9273102480458424,-0.00951909167250875,6.821040551223011,4.874848094372589,20.031945924942512,-7.132641778649067
-0.9274054389625674,0.19080036757691637,6.869789032166737,4.803521676586098,19.54541619328504,-6.570328401588602
-0.9254974352867983,0.3862545295097668,6.917824248932598,4.737818392570212,19.085087824241207,-6.1629169287907315
-0.9216348899917006,0.5771054077521789,6.9652024328583,4.676189223282305,18.637187100154854,-5.898173462150189
-0.9158638359141789,0.7634772787537274,7.011964325091123,4.617207488660803,18.18983006462796,-5.765674748211985
-0.9082290631266415,0.9453755794000069,7.058136399977731,4.5595507411786835,17.732874163030587,-5.756276169662847
-0.8987753073326414,1.1227043210303127,7.103731907389518,4.501987979482055,17.257809575043343,-5.861657685874966
-0.8875482641223383,1.2952824167807462,7.148751787184339,4.443371402623305,16.757683367037757,-6.073946272383779
-0.8745954399545309,1.4628592504511237,7.193185501210572,4.3826319398994675,16.22704673666779,-6.385411060430952
-0.8599668474500197,1.6251297178178017,7.237011820609567,4.318777829295158,15.661915079027578,-6.7882269205780394
-0.8437155502718418,1.7817488686080774,7.280199598902518,4.250895560089377,15.059731311678329,-7.274302271305299
-0.825898061585761,1.9323461817248606,7.3227085545034125,4.178152537376325,14.419324317658148,-7.835166821476738
-0.8065745997685123,2.076539424901442,7.364490079877176,4.099800869161557,13.740856199132438,-8.461914588643232
-0.7858092055194978,2.2139479868927663,7.4054880885687915,4.015181723275124,13.025754071064478,-9.145196907299617
-0.7636697256505702,2.3442055276034113,7.445639905801543,3.923729754202128,12.276624187363444,-9.875259394287855
-0.7402276703745361,2.4669717694770457,7.484877203343564,3.8249771602592495,11.497148118350191,-10.642016150762695
-0.7155579526797656,2.5819432506605478,7.523126974946157,3.7185569987516227,10.691962344262105,-11.435154015384615
-0.6897385201731602,2.688862874103169,7.560312544933673,3.6042054585977765,9.866523885869318,-12.244259555304934
-0.6628498914321285,2.787528112961862,7.596354599519651,3.481762863044727,9.02696540180007,-13.058961732054863
-0.6349746103025098,2.877797766979863,7.631172228150098,3.3511732457241785,8.179943544808824,-13.869083773418746
-0.6061966326327112,2.9595972024279513,7.66468396060734,3.212482407989991,7.332484347219513,-14.664798617724198
-0.5766006606084316,3.0329220459001465,7.6968087846872395,3.0658344218127493,6.491829107484714,-15.436783228879504
-0.5462714401494302,3.0978403369749934,7.727467128905367,2.9114665895239544,5.6652838092351,-16.176367953961787
-0.5152930367796803,3.154493175067344,7.756581794800606,2.7497029099843364,4.860074654753389,-16.87567777957238
-0.48374810502900684,3.203093921614878,7.78407882390045,2.5809461321886125,4.083211943667787,-17.527762761224512
-0.45171716581285803,3.243926041051556,7.809888285222336,2.4056685045763673,3.3413643361713596,-18.126715045114363
-0.41927790540234244,3.2773396844132696,7.8339449702681,2.2244013541252237,2.640745514182738,-18.667769839879412
-0.3865045085582097,3.303747139555097,7.856188983809353,2.0377236557264293,1.9870153463764084,-19.147387552392793
-0.35346703716265876,3.3236172930188608,7.876566220366617,1.8462497802025013,1.3851977869809233,-19.56331423332403
-0.32023086423247016,3.33746927088867,7.895028718168642,1.650616637869261,0.8396177884999525,-19.914617639835775
-0.28685617152358345,3.3458654487736696,7.911534884547335,1.4514704614709033,0.35385938662398436,-20.201696732170795
-0.25339751703584673,3.3494040426399097,7.9260495891620435,1.2494534941491953,-0.06925324704703567,-20.42626333132857
-0.21990347660944765,3.3487115101694394,7.938544124103536,1.0451908608359095,-0.42765061475404054,-20.59129595079777
-0.18641636150775326,3.344435004021899,7.948996032711895,0.8392779013279318,-0.7199882544847911,-20.700967373031293
-0.15297201146753425,3.3372351214770513,7.957388811725174,0.6322682275976188,-0.9455933596992513,-20.760549206983683
-0.11959966025276374,3.3277791878800587,7.96371149400115,0.424662735527782,-1.1043894261217722,-20.776298240292306
-0.08632186837396315,3.316735293618841,7.967958121356428,0.21689975312485893,-1.1968016866306574,-20.755330693342053
-0.05315451543777474,3.3047672767525342,7.970127118887677,0.009346446191438401,-1.223646909184168,-20.70549132880392
-0.020106842670249397,3.2925308076606927,7.970220583349592,-0.1977084670966008,-1.186011697492724,-20.635224657776998
0.012818465406357532,3.2806706906857657,7.968243498678626,-0.4040607136743708,-1.0851237294868148,-20.55345515908751
0.04562517231321519,3.2698194533908973,7.964202891541882,-0.6095952652652459,-0.9222204352094588,-20.46948248564673
0.07832336684712415,3.2605972490388027,7.95810693888923,-0.8142900901217132,-0.6984195607922391,-20.39289608480454
0.11092933933751217,3.2536130534308803,7.949964037988013,-1.0182190509697586,-0.41459606792427184,-20.333511498446708
0.14346546987182096,3.2494670927516376,7.939781847478316,-1.2215541659542257,-0.07127014229558915,-20.30132774016066
0.17596014079933733,3.248754391328682,7.9275663058187735,-1.4245674433558324,0.33148789381008176,-20.306501315455417
0.20844768471262415,3.252069270266783,7.913320631385215,-1.6276324565103866,0.7941277042448095,-20.35932712786255
0.24096837741529198,3.260010547309231,7.897044306820111,-1.831225727789012,1.3176517085566004,-20.47020873413007
0.2735684828883843,3.273187064394797,7.87873204954222,-2.0359278151303126,1.9035904532894767,-20.64958852625084
0.3063003535323323,3.292222968927692,7.8583727713909175,-2.242423700392821,2.5538875618796157,-20.907789706005154
0.33922258322160925,3.3177618445464883,7.835948534386989,-2.4515015974528724,3.27063979301365,-21.254691998478513
0.37240020166707416,3.350468242476625,7.811433518412461,-2.6640485174376574,4.055602909783645,-21.699115040229618
0.4059048840918404,3.3910242715744614,7.784793033238084,-2.8810396678399535,4.909318427251164,-22.247706833899528
0.439815126807585,3.440117455846973,7.7559826365596845,-3.103516736178949,5.829629337032479,-22.90301473681602
0.47421630136605475,3.4984137492172978,7.724947469197895,-3.332546883547109,6.8092216520976665,-23.660234755543684
0.5092004388582277,3.5665059657382745,7.691622000362424,-3.569149231102546,7.831642809051383,-24.50187649026508
0.5448654985156105,3.6448223938287883,7.655930508051398,-3.814167996005197,8.865017757529476,-25.3892588394273
0.5813137224538983,3.733472571404083,7.617788828091346,-4.06806058439947,9.852488624711803,-26.249474494371686
0.6186484481679392,3.8319974576512013,7.577108222247351,-4.330555329343187,10.698510311684913,-26.95659721181236
0.6569684227444512,3.9389825607680504,7.5338026689539195,-4.600121301461311,11.251227623513872,-27.30740680219027
0.6963582483521318,4.051494837003189,7.487801455939306,-4.873195369483214,11.284667345924548,-26.996761952331017
0.7368731967221637,4.164341510462435,7.4390695022444735,-5.143162989006524,10.492539937587704,-25.608947964472033
0.778516611826788,4.269266909838312,7.387637872354408,-5.399252468651245,8.518836662407127,-22.65996047350417
0.8212092809251711,4.354455276462383,7.333645347667896,-5.6258520733862865,5.061164613442612,-17.740651145912828
0.864753833689795,4.405066922596809,7.277386826934033,-5.803258584845414,0.06272068104655687,-10.782643562284859
0.9088045029157631,4.405694129407275,7.219354241085579,-5.911085020468263,-6.079514734715311,-2.3457105967670344
0.9528614442098359,4.344898982060122,7.160243390880897,-5.934542126435933,-12.483404651962273,6.342374185511255
0.9963104340304371,4.220064935540499,7.100897969616538,-5.871118384580821,-18.083771328509673,13.809965327870614
1.038511083385842,4.039227222255402,7.042186785770729,-5.733018731302114,-22.11649880309635,19.01499331420569
1.078903355608396,3.8180622342244384,6.984856598457708,-5.5428687981600575,-24.394330798421628,21.722896975049792
1.1170839779506403,3.574118926240222,6.929427910476107,-5.325639828409559,-25.202026220636647,22.35314269054358
1.1528251672130425,3.322098664033856,6.876171512192012,-5.102108401504124,-25.009331071677472,21.575636985491897
1.186046153853381,3.0720053533170812,6.82515042817697,-4.886352031649205,-24.249736603486795,20.003014802977006
1.216766207386552,2.8295079872822133,6.776286907860478,-4.686321883619435,-23.23535470989327,18.074411196313175
1.245061287259374,2.5971544401832807,6.729423689024284,-4.505577771656303,-22.159254365462555,16.06094677493194
1.271032831661207,2.375561896528655,6.684367911307721,-4.344968303906984,-21.127499538874325,14.111807357414378
1.2947884506264935,2.1642869011399117,6.640918228268651,-4.20385023033284,-20.191087062851793,12.299497692687478
1.3164313196378927,1.9623760305113938,6.598879725965323,-4.080855253405965,-19.36912191615416,10.652466371867975
1.3360550799430067,1.7686848113498521,6.558071173431263,-3.9743305896872854,-18.663480466828304,9.175657388674635
1.3537419280565053,1.582050006681569,6.51832786753439,-3.882574015800539,-18.06741094863183,7.862519757026195
1.369562428123321,1.4013758971952508,6.479502127376385,-3.803948818230277,-17.57032670038687,6.701676182247157
1.3835761870952734,1.225672630191382,6.441462639194082,-3.7369320564078055,-17.16035957187786,5.680459729046744
1.3958329133971872,1.0540690344726036,6.404093318630004,-3.680127459117338,-16.825646942266847,4.786683603908717
1.4063736037419132,0.8858125650499351,6.36729204403883,-3.632260623078251,-16.55492406113465,4.009442141135454
1.4152317293924126,0.7202633244385886,6.330969437808048,-3.5921662016668963,-16.33774718883462,3.339395031323028
1.4224343626367986,0.5568858525502425,6.295047775791379,-3.558772251353666,-16.164529204397617,2.768785443060992
1.428003221162301,0.3952405605062663,6.259460053277842,-3.531084396923056,-16.026487499313056,2.2913284737469817
1.4319556267673637,0.23497568551313577,6.224149209308612,-3.508171112185586,-15.91555807765986,1.90204260331473
1.434305383622495,0.07582010473653716,6.189067498186756,-3.489150686152439,-15.824304295770604,1.5970616661832588
1.4350635846698605,-0.08242293822116889,6.154175991325232,-3.4731800694906063,-15.745834631806328,1.3734457420878068
1.434239355287649,-0.2398812845392322,6.119444190630326,-3.4594456120697283,-15.673736195067235,1.2289991985185058
1.4318405424422567,-0.3966186464899045,6.084849734509629,-3.4471556200845432,-15.602026511372227,1.1620989176309902
1.4278743559773577,-0.5526389116036268,6.050378178308784,-3.4355346309082333,-15.525123858890682,1.1715332841110155
1.4223479668613215,-0.7078901501925337,6.016022831999702,-3.423819298067123,-15.437835192033114,1.256351552320177
1.4152690653593962,-0.8622685021128648,5.98178463901903,-3.4112557825439214,-15.335359992523479,1.4157230506601213
1.4066463803382676,-1.0156221020380996,5.94767208119359,-3.39709855203732,-15.213307965555444,1.6488059205821255
1.3964901593178867,-1.167755181693654,5.9137010956732174,-3.3806104928314986,-15.067728222048554,1.9546254974489823
1.3848126075009501,-1.3184324639141396,5.879894990744902,-3.3610642378570086,-14.895147394896709,2.331962885488288
1.3716282828618087,-1.4673839378631066,5.846284348366332,-3.337744609002126,-14.692614006951688,2.7792546790849237
1.3569544434831777,-1.6143100779326236,5.8129069022763105,-3.3099520622112766,-14.457746340522045,3.294505091355323
