th1 (rad),w1 (rad/s),th2 (rad),w2 (rad/s),a1 (rad/s^2),a2 (rad/s^2)
3.084244240186774,-1.346610931152264,4.902121350913318,0.9771159385196133,0.8896748082252905,8.083438049246874
3.0707781308752513,-1.3377141830700112,4.9118925102985145,1.057950319012082,0.931392381152555,8.12983889133024
3.057400989044551,-1.3284002592584856,4.922472013488635,1.1392487079253844,0.9833710008183579,8.180965991096011
3.044116986451966,-1.318566549250302,4.933864500567889,1.2210583678363445,1.045677575659326,8.237592703072016
3.0309313209594633,-1.3081097734937088,4.946075084246252,1.3034342948670647,1.1183819736047305,8.30047695203997
3.017850223224526,-1.2969259537576616,4.959109427194923,1.3864390643874644,1.201551751072049,8.37035159766928
3.0048809636869493,-1.2849104362469412,4.972973817838797,1.4701425803641572,1.2952444715772726,8.447912091366025
2.99203185932448,-1.2719579915311685,4.987675243642439,1.5546217012778174,1.3994970127494744,8.533800711633917
2.9793122794091684,-1.2579630214036737,5.003221460655217,1.6399597083941566,1.5143111287107835,8.62858649369261
2.966732649195132,-1.2428199101165658,5.019621057739158,1.7262455733310826,1.6396343795834987,8.732739769425342
2.954304450093966,-1.2264235663207308,5.036883513472469,1.813572971025336,1.7753353609752338,8.846600004467192
2.942040214430759,-1.2086702127109785,5.0550192431827226,1.902038971070008,1.921171965981565,8.970335363092259
2.929953512303649,-1.189458493051163,5.074039632893423,1.9917423247009307,2.076751197347266,9.103892156651007
2.9180589273731377,-1.1686909810776902,5.093957056140432,2.082781246267441,2.2414788320151002,9.246932054652461
2.9063720175623606,-1.1462761927575391,5.114784868603107,2.1752505668139657,2.414497049679376,9.398754690022566
2.894909255634785,-1.1221312222607454,5.136537374271247,2.2692381137141915,2.594608013275357,9.558203123279437
2.883687943412178,-1.0961851421279918,5.159229755408388,2.364820144946986,2.780181399002967,9.723549626334183
2.872726091990898,-1.0683833281379622,5.182877956857858,2.462055641210328,2.9690441167982042,9.892359529823802
2.8620422587095184,-1.03869288696998,5.207498513269962,2.5609792365085657,3.15835108458593,10.06133162979912
2.8516553298398186,-1.0071093761241208,5.233108305635048,2.661592552806557,3.344437123466439,10.226115123995871
2.8415842360785772,-0.9736650048894564,5.259724231163113,2.763853704046516,3.522652094098489,10.381105582839838
2.831847586029683,-0.9384384839484715,5.287362768203578,2.867664759874914,3.6871846297912403,10.519226478662983
2.8224632011901982,-0.9015666376505591,5.316039415802327,2.972857024661544,3.8308846154825487,10.631708780877839
2.8134475348136925,-0.8632577914957337,5.345767986048942,3.079174112470322,3.945101272999638,10.707889543238764
2.8048149568987353,-0.8238067787657373,5.376559727173646,3.18625300790271,4.019562558621456,10.73506156003097
2.796576889111078,-0.7836111531795227,5.408422257252673,3.2936036235030195,4.04233241376787,10.698419903250974
2.788740777579283,-0.743187829041844,5.441358293487704,3.4005878225355293,3.999894387985538,10.581166450038559
2.7813088992888644,-0.7031888851619886,5.475364171713059,3.5063994870359148,3.8774212790822498,10.364847896216212
2.7742770104372445,-0.6644146723711661,5.510428166583418,3.610047965998077,3.659297080914013,10.030011683053555
2.767632863713533,-0.627821701562026,5.546528646243399,3.7103480828286126,3.329954141745373,9.557260726368218
2.761354646697913,-0.5945221601445723,5.583632127071684,3.805920690092295,2.875067831522656,8.928762687721633
2.755409425096467,-0.5657714818293457,5.621691333972607,3.8952083169695113,2.2831058364405123,8.130213306585604
2.749751710278174,-0.5429404234649405,5.660643417142302,3.9765104500353674,1.54715505992462,7.153160211775626
2.7443223060435247,-0.5274688728656943,5.700408521642656,4.048042052153123,0.6668494421563289,5.997467644646701
2.739047617314868,-0.5208003784441311,5.740888942164187,4.1080167285995906,-0.3498866788988703,4.673564186010395
2.7338396135304266,-0.5242992452331198,5.781969109450182,4.154752370459694,-1.48565059925258,3.204005333082139
2.728596621078095,-0.5391557512256455,5.823516633154779,4.186792423790516,-2.713318731523006,1.6238554283732467
2.723205063565839,-0.5662889385408756,5.865384557392684,4.203030978074248,-3.997052560792698,-0.02050037902639824
2.71754217418043,-0.6062594641488026,5.907414867173427,4.202825974283984,-5.294649449077023,-1.6742460305191706
2.711479579538942,-0.6592059586395729,5.949443126916266,4.186083513978792,-6.561041454285832,-3.2784903465947446
2.704887519952546,-0.7248163731824312,5.991303962056055,4.153298610512844,-7.752447312526428,-4.7754767533528275
2.697639356220722,-0.8023408463076955,6.032836948161183,4.105543842979316,-8.830484509494417,-6.113782204530329
2.689615947757645,-0.8906456914026397,6.073892386590976,4.044406020934012,-9.765530649585923,-7.252612638800079
2.680709490843619,-0.9883009978984989,6.1143364468003165,3.9718798945460114,-10.53880058713805,-8.164518203011305
2.670826480864634,-1.0936890037698794,6.154055245745776,3.8902347125158983,-11.142915842177874,-8.836234419470367
2.659889590826935,-1.2051181621916582,6.192957592870935,3.801872368321195,-11.581076772096925,-9.267770378158684
2.6478384092050185,-1.3209289299126274,6.230976316554147,3.709194664539608,-11.865201744821906,-9.470182612036828
2.634629119905892,-1.4395809473608465,6.2680682631995435,3.6144928384192396,-12.013514022022331,-9.462622245719729
2.6202333104322837,-1.5597160875810698,6.304213191583736,3.519866615962042,-12.048037916954458,-9.269224598562987
2.604636149556473,-1.6801964667506144,6.3394118577433565,3.427174369976412,-11.99235472521638,-8.916277781301558
2.587834184888967,-1.8001200140027782,6.373683601443121,3.3380115921633964,-11.869822735754019,-8.429929381358987
2.5698329847489396,-1.9188182413603183,6.407063717364755,3.2537122983498064,-11.702330609879574,-7.83452488711605
2.5506448023353365,-2.035841547459114,6.439600840348253,3.1753670494786457,-11.50955497981597,-7.1515494960157096
2.5302863868607455,-2.1509370972572737,6.471354510843039,3.1038515545184886,-11.308637102907573,-6.399073993642586
2.508777015888173,-2.2640234682863496,6.502393026388224,3.0398608145820627,-11.114173180950761,-5.591577836952596
2.4861367812053095,-2.375165200095857,6.532791634534044,2.983945036212537,-10.938416958606922,-4.740024655696341
2.462385129204351,-2.4845493696819263,6.56263108489617,2.9365447896555734,-10.791610197325706,-3.8520835508390125
2.4375396355075316,-2.592465471655183,6.5919965327927255,2.8980239541471833,-10.682378110259828,-2.9324135149203974
2.4116149807909797,-2.6992892527577816,6.620976772334197,2.868699818997979,-10.618147619480267,-1.9829515833062592
2.3846220882634017,-2.805470728952584,6.649663770524177,2.8488703031649165,-10.605563822428723,-1.0031647173154572
2.356567380973876,-2.9115263671768714,6.678152473555826,2.8388386559917618,-10.650893595458433,0.009760121992290469
2.327452117302107,-3.0180353031314557,6.706540860115744,2.8389362572116847,-10.76041508541202,1.0608035114198762
2.2972717642707927,-3.125639453985576,6.734930222687861,2.8495442923258834,-10.940798627471548,2.157088678510897
2.266015369730937,-3.235047440260291,6.76342566561112,2.8711151791109923,-11.199489095741809,3.3079511624901
2.233664895328334,-3.3470423312177093,6.79213681740223,2.9041946907358933,-11.545102347597203,4.5251086752475
2.2001944720161566,-3.4624933546936814,6.821178764309589,2.9494457774883682,-11.987849350641168,5.822935748466879
2.16556953846922,-3.582371848200093,6.850673222084472,3.007675134973037,-12.540000166251303,7.218844905429077
2.1297458199872192,-3.707771849862606,6.880749973434202,3.079863584027328,-13.21639435965469,8.73376800922961
2.0926681014885933,-3.839935793459153,6.911548609274476,3.167201264119624,-14.034990480381937,10.392711665652287
2.054268743554002,-3.9802856982629726,6.943220621915672,3.2711283807761466,-15.01741646582841,12.225316588849523
2.0144658865713723,-4.130459862921256,6.975931905723433,3.3933815466646418,-16.189417967964214,14.266258054398467
1.9731612879421596,-4.292354042600898,7.00986572119008,3.5360441272086263,-17.580968439759737,16.555134371178816
1.9302377475161507,-4.468163726998496,7.045226162462166,3.7015954709204144,-19.225535716467693,19.13510713805452
1.8855561102461658,-4.6604190841631725,7.08224211717137,3.8929465423009595,-21.157463276224842,22.048795527606284
1.838951919404534,-4.871993716925421,7.12117158259438,4.113434497577022,-23.405372920625787,25.32843879088227
1.79023198223528,-5.106047446131679,7.16230592757015,4.366718885485845,-25.977497036895876,28.974519574481675
1.7391715077739631,-5.365822416500638,7.2059731164250085,4.656464081230662,-28.831278828654057,32.912011917119514
1.6855132836089568,-5.6541352047871785,7.252537757237315,4.985584200401857,-31.81406010650265,36.90566405650304
1.628971931561085,-5.972275805852205,7.302393599241333,5.354640840966887,-34.55634740393941,40.408295353927265
1.569249173502563,-6.317839279891599,7.355940007651002,5.758723794506159,-36.306552668127686,42.32672939228123
1.506070780703647,-6.680904806572876,7.413527245596064,6.181991088428972,-35.75766021227113,40.77720582633516
1.4392617326379182,-7.038481408695588,7.475347156480353,6.589763146692324,-31.11076574903536,33.17712329376644
1.3688769185509624,-7.349589066185941,7.541244787947276,6.921534379629988,-20.913779412841233,17.434564233405432
1.295381027889103,-7.558726860314353,7.610460131743576,7.095880021964042,-5.922661738201042,-5.413122652902367
1.2197937592859593,-7.617953477696363,7.681418931963217,7.041748795435018,9.728019452796126,-29.528578461524326
1.1436142245089957,-7.520673283168402,7.7518364199175664,6.746463010819776,20.917903754543257,-47.633790134189574
1.0684074916773116,-7.31149424562297,7.819301050025764,6.27012510947788,25.598376170859844,-56.74439628767475
0.9952925492210819,-7.055510483914372,7.882002301120543,5.702681146601133,25.218246152926838,-58.812014408212725
0.9247374443819382,-6.803328022385103,7.939029112586554,5.114561002519006,22.196201471375733,-57.1926167395638
0.8567041641580871,-6.581366007671345,7.990174722611744,4.542634835123367,18.26312584174867,-54.30809030345123
0.7908905040813737,-6.398734749253859,8.035601070962977,3.999553932088855,14.298170506820536,-51.39782423219163
0.7269031565888351,-6.255753044185654,8.075596610283865,3.4855756897669385,10.652837628731449,-48.96094793318541
0.6643456261469786,-6.1492246678983395,8.110452367181535,2.9959662104350846,7.426102493246775,-47.13609733945626
0.6028533794679951,-6.074963642965872,8.140412029285887,2.524605237040522,4.614901762889325,-45.909757216767794
0.5421037430383364,-6.028814625336978,8.165658081656293,2.065507664872844,2.18369735372999,-45.212511126184765
0.48181559678496666,-6.006977651799678,8.18631315830502,1.6133825536109965,0.09361087438406661,-44.95910284705173
0.4217458202669699,-6.006041543055837,8.202446983841131,1.1637915251404791,-1.6866303771667162,-45.063235404562356
0.36168540483641154,-6.022907846827504,8.214084899092537,0.7131591710948555,-3.1774954630425722,-45.44177861227396
0.3014563263681365,-6.05468280145793,8.221216490803485,0.2587413849721159,-4.388634974476894,-46.01494573730275
0.2409094983535572,-6.098569151202699,8.223803904653206,-0.20140807240091163,-5.320152069408276,-46.705306448518215
0.17992380684153023,-6.151770671896782,8.221789823929196,-0.6684611368860938,-5.96441879730836,-47.436876334554455
0.1184061001225624,-6.2114148598698655,8.215105212560335,-1.1428299002316384,-6.308173077013222,-48.134804300272776
0.05629195152386375,-6.274496590639997,8.203676913558018,-1.6241779432343662,-6.334802799459317,-48.725841311323
-0.006453014382536218,-6.33784461863459,8.187435134125675,-2.111436356347596,-6.026757838724267,-49.139587702357
-0.06983146056888212,-6.398112197021833,8.1663207705622,-2.602832233371166,-5.368007304318673,-49.31038901809498
-0.13381258253910044,-6.451792270065019,8.140292448228488,-3.095936123552116,-4.346420635401399,-49.17965423920948
-0.19833050523975065,-6.4952564764190335,8.109333086992967,-3.587732665944211,-2.955923784435693,-48.698307729417955
-0.263283070003941,-6.52481571426339,8.073455760333525,-4.07471574323839,-1.1982822824386823,-47.829070292830345
-0.3285312271465749,-6.536798537087777,8.032708602901142,-4.553006446166694,0.9156029900005306,-46.54830452356428
-0.3938992125174527,-6.527642507187772,7.987178538439475,-5.018489491402336,3.36494107239442,-44.84725053448577
-0.45917563758933044,-6.493993096463828,7.936993643525452,-5.466961996747194,6.118822810637368,-42.73259803032469
-0.5241155685539687,-6.432804868357454,7.88232402355798,-5.894287977050441,9.136453518867405,-40.226454295726676
-0.5884436172375432,-6.34144033316878,7.823381143787476,-6.296552520007707,12.36776686799403,-37.36583823786064
-0.651858020569231,-6.2177626644888395,7.760415618587398,-6.670210902386314,15.754372196294714,-34.20183435809967
-0.7140356472141194,-6.060218942525893,7.693713509563535,-7.012229245967311,19.230853407702696,-30.79847784485112
-0.7746378366393784,-5.867910408448866,7.623591217103862,-7.320214024415822,22.726508848943578,-27.23134033995463
-0.833316940723867,-5.640645319959431,7.550389076859704,-7.5925274278153685,26.167660070942592,-23.58569225462474
-0.8897233939234612,-5.378968719250005,7.474463802581551,-7.828384350361616,29.48063024680914,-19.954082084234628
-0.9435130811159613,-5.084162416781913,7.3961799590779345,-8.027925171203963,32.59538718848209,-16.433230120237972
-0.9943547052837804,-4.7582085448970926,7.315900707365895,-8.192257472406343,35.44967825273451,-13.120285166839736
-1.0419367907327515,-4.403711762369747,7.233978132641831,-8.323460324074741,37.993301669451945,-10.108702233534443
-1.085973908356449,-4.023778745675227,7.150743529401084,-8.424547346410085,40.19202468482389,-7.484201554919223
-1.1262116958132014,-3.6218584988269886,7.066498055936983,-8.499389361959278,42.03063118222765,-5.321393130875208
-1.1624302808014713,-3.201552187004712,6.981504162317391,-8.55260329326803,43.51468756008451,-3.6816465975924415
-1.1944458026715183,-2.766405311403867,6.89597812938471,-8.589419759243954,44.67083832472809,-2.6126471576693744
-1.222109855785557,-2.319696928156586,6.810083931792271,-8.615546230820648,45.54572390126426,-2.149844610728685
-1.2453068250671229,-1.8642396891439432,6.723928469484064,-8.637044676927935,46.20387433698846,-2.3197434664750025
-1.2639492219585624,-1.4022009457740585,6.637558022714785,-8.660242111592686,46.72510256844264,-3.1447650925873845
-1.277971231416303,-0.9349499200896321,6.550955601598858,-8.691689762518559,47.20195314488315,-4.649270946258327
-1.2873207306171992,-0.46293038864080055,6.464038703973673,-8.738182471981142,47.73763080561914,-6.8662409067907095
-1.2919500345036072,0.014445919415390862,6.376656879253861,-8.806844881049049,48.4444991882128,-9.843933669124459
-1.2918055753094533,0.4988909112975189,6.288588430443371,-8.905284217740293,49.44257763750819,-13.651345376202302
-1.2868166661964782,0.9933166876726007,6.1995355882659675,-9.041797671502316,50.85611577006665,-18.379841414542405
-1.2768834993197522,1.5018778453732673,6.1091176115509445,-9.225596085647739,52.80340022795216,-24.134665871323627
-1.2618647208660194,2.029911847652789,6.016861650694467,-9.466942744360976,55.3684033147224,-31.00125124336475
-1.2415656023894914,2.5835958808000132,5.922192223250857,-9.776955256794624,58.52845518595322,-38.951336703701294
-1.2157296435814913,3.168880432659545,5.82442267068291,-10.166468623831637,61.98276312759727,-47.61272773610783
-1.1840408392548958,3.788708063935518,5.722757984444594,-10.642595901192715,64.78026900695421,-55.76025677125477
-1.1461537586155406,4.43651075400506,5.6163320254326665,-11.200198468905263,64.6381812631733,-60.36995592130067
-1.10178865107549,5.082892566636794,5.504330040743614,-11.80389802811827,57.18792193199922,-55.54662091778049
-1.050959725409122,5.654771785956786,5.3862910604624314,-12.359364237296075,36.86573949306237,-33.67843133611989
-0.9944120075495542,6.02342918088741,5.262697418089471,-12.696148550657274,2.9326831995728546,6.367443859776723
-0.9341777157406801,6.052756012883139,5.135735932582898,-12.632474112059507,-32.85492616173505,48.79969356206501
-0.8736501556118487,5.724206751265788,5.009411191462303,-12.144477176438857,-54.53577027904793,72.36265171485809
-0.8164080880991907,5.178849048475309,4.887966419697914,-11.420850659290275,-59.59573058629611,74.20931418563674
-0.7646195976144377,4.582891742612348,4.773757913105012,-10.678757517433908,-55.76542190633836,65.0177088748792
-0.7187906801883142,4.025237523548964,4.666970337930673,-10.028580428685116,-49.48056098411652,53.31313429286941
-0.6785383049528245,3.530431913707799,4.566684533643822,-9.495449085756421,-43.480512451784385,42.519315932126965
-0.6432339858157465,3.095626789189955,4.471730042786258,-9.070255926435152,-38.516031610172824,33.42452736520955
-0.612277717923847,2.7104664730882266,4.3810274835219065,-8.736010652783056,-34.62442583363687,25.924676702532125
-0.5851730531929648,2.364222214751858,4.293667376994076,-8.476763885757736,-31.651026969613216,19.70973131145128
-0.5615308310454462,2.0477119450557257,4.208899738136498,-8.279666572643222,-29.420276159907516,14.476567238740884
-0.5410537115948889,1.7535091834566505,4.126103072410066,-8.134900900255813,-27.78147037682817,9.978874009143802
-0.5235186197603224,1.4756944796883689,4.044754063407508,-8.035112160164376,-26.614631858313487,6.028583912433376
-0.5087616749634387,1.2095481611052339,3.964402941805864,-7.974826321040042,-25.825282963422293,2.4860542278106945
-0.4966661933523864,0.951295331471011,3.8846546785954637,-7.949965778761935,-25.33712242081614,-0.7499459424119058
-0.48715324003767624,0.6979241072628496,3.8051550208078444,-7.957465238186054,-25.085055755625643,-3.749708180228362
-0.48017399896504775,0.4470735497065932,3.725580368425984,-7.994962319988337,-25.008971811566,-6.557240173083028
-0.4757032634679818,0.1969838315909332,3.6456307452261005,-8.060534721719167,-25.048091518564267,-9.192451085735724
-0.47373342515207245,-0.053497083594709505,3.565025398008909,-8.152459232576524,-25.135658504388125,-11.65132685356689
-0.47426839598801956,-0.30485366863859076,3.4835008056831436,-8.268972501112193,-25.193888798499362,-13.904605337046345
-0.47731693267440545,-0.5567925566235844,3.4008110806720215,-8.408018554482657,-25.129378132699006,-15.895616957950354
-0.4828848582406413,-0.8080863379505745,3.3167308951271948,-8.566974724062161,-24.829585768689,-17.538296061592487
-0.49096572162014707,-1.0563821956374646,3.231061147886573,-8.742357684678087,-24.161579691552824,-18.716916656555775
-0.5015295435765217,-1.2979979925529928,3.1436375710397924,-8.929526851243645,-22.974877228786877,-19.289795535625338
-0.5145095235020516,-1.5277467648408616,3.0543423025273557,-9.122424806599899,-21.110728160062042,-19.09978394934185
-0.5297869911504602,-1.7388540464414821,2.963118054461357,-9.313422646093317,-18.420100314006305,-17.99429863592915
-0.5471755316148751,-1.9230550495815453,2.8699838280004237,-9.493365632452608,-14.791245899910015,-15.856113627471162
-0.5664060821106905,-2.0709675085806456,2.7750501716758977,-9.65192676872732,-10.184423800410068,-12.642407889912368
-0.587115757196497,-2.1728117465847463,2.6785309039886247,-9.778350847626443,-4.6662990383606555,-8.423824808808199
-0.6088438746623445,-2.219474736968353,2.5807473955123603,-9.862589095714526,1.568389886633582,-3.409703913721748
-0.631038622032028,-2.2037908381020173,2.482121504555215,-9.896686134851743,8.201446402013717,2.0556120996567406
-0.6530765304130481,-2.1217763740818802,2.383154643206698,-9.876130013855176,14.829548234736405,7.533532707060378
-0.674294294153867,-1.9734808917345161,2.284393343068146,-9.800794686784572,21.03077719809518,12.562670137081675
-0.6940291030712121,-1.7631731197535643,2.1863853962003,-9.675167985413756,26.440329090969485,16.739849677682503
-0.7116608342687478,-1.4987698288438693,2.0896337163461625,-9.507769488636931,30.81106956441897,19.78418480964665
