th1 (rad),w1 (rad/s),th2 (rad),w2 (rad/s)
3.3295058909160358,-1.7859285851536246,3.646509313615702,0.38462682566221756
3.3116466050644995,-1.7845806493606906,3.650355581872324,0.4208095744730804
3.2938007985708926,-1.7857371555622916,3.654563677617055,0.4590540148881771
3.2759434270152696,-1.7892992931160374,3.659154217765937,0.49922583049744657
3.2580504340841094,-1.7951616833356476,3.6641464760709113,0.5411789822239317
3.240098817250753,-1.8032127953016297,3.6695582658931505,0.5847564585024815
3.2220666892977365,-1.8133354897450458,3.675405830478175,0.629791173738747
3.2039333344002863,-1.8254077157420858,3.6817037422155625,0.6761070495873412
3.1856792572428656,-1.8393033755974797,3.688464812711436,0.7235202996766088
3.1672862234868906,-1.8548933626300566,3.6957000157082023,0.7718409227113491
3.14873728986059,-1.872046765134062,3.703418424935316,0.8208743921852336
3.130016822209249,-1.890632218269753,3.7116271688571683,0.8704235142365705
3.1111105000265513,-1.910519374847984,3.720331403999534,0.9202904096439293
3.0920053062780717,-1.931580456767767,3.7295343080959733,0.9702785627851301
3.072689501710394,-1.95369184203775,3.7392370937238244,1.0201948706824504
3.0531525832900166,-1.9767356384965113,3.749439042430649,1.0698516198965002
3.0333852269050516,-2.0006011949253977,3.760137558629614,1.1190683185115982
3.0133792149557976,-2.0251865032910548,3.77132824181473,1.1676733148256546
2.993127349922887,-2.050399452099623,3.7830049749629864,1.215505143191586
2.9726233554018906,-2.0761588997225213,3.7951600263949024,1.262413549898251
2.9518617664046656,-2.102395547262687,3.807784161893885,1.3082601668444003
2.9308378109320388,-2.1290526021364053,3.820866763562329,1.3529188166897814
2.9095472849106745,-2.1560862350997105,3.8343959517292268,1.3962754487929037
2.887986422559677,-2.183465844093297,3.8483587062171556,1.4382277193390636
2.866151764118744,-2.2111741473385975,3.8627409834105464,1.4786842406651177
2.844040022645358,-2.239207135144644,3.8775278258171975,1.5175635332779702
2.8216479512939117,-2.267573914681483,3.8927034611499773,1.554792719179012
2.798972212147097,-2.296296484570324,3.9082513883417676,1.5903059969144018
2.7760092473013938,-2.32540947674609,3.9241544483109116,1.6240429376064882
2.7527551525339327,-2.354959902003084,3.9403948776869764,1.6559466376064953
2.7292055535139017,-2.385006933340826,3.9569543440630413,1.6859617579664825
2.7053554841804934,-2.415621758092874,3.973813961642706,1.7140324743107793
2.6811992665995645,-2.446887526214109,3.990954286385814,1.7401003535163106
2.6567303913374234,-2.4788994183144353,4.008355289920977,1.7641021664480685
2.631941397154279,-2.5117648532548253,4.025996311585458,1.785967639327888
2.6068237486217307,-2.545603851450948,4.043855987978737,1.80561714056557
2.581367710107221,-2.580549566428263,4.061912159384392,1.8229592954388434
2.5555622144429386,-2.61674899348452,4.080141752338781,1.8378885182655804
2.5293947245080934,-2.654363860251739,4.098520637521436,1.8502824511205829
2.502851085905576,-2.6935716990716125,4.117023462032642,1.8599993002881767
2.47591536891486,-2.7345670947925655,4.135623455035524,1.8668750672928816
2.4485696979669345,-2.777563093037605,4.154292205708453,1.8707206815921487
2.4207940670365584,-2.8227927420893635,4.172999412524375,1.8713190583311465
2.3925661396156648,-2.8705107248729784,4.191712603107686,1.8684221289632663
2.363861032366935,-2.920995014264505,4.210396824397319,1.8617479277130573
2.3346510822242896,-2.9745484528068444,4.229014303674449,1.8509778662913847
2.304905597696221,-3.0315001140291886,4.247524082337363,1.8357543973838228
2.2745905965559294,-3.09220624354074,4.265881626311201,1.815679359614709
2.243668534120522,-3.157050500054142,4.284038419907349,1.7903134191927748
2.2120980291199808,-3.2264431154929296,4.301941554099276,1.7591771829583147
2.1798335979650516,-3.3008184658736424,4.319533325928859,1.7217547602339183
2.146825413306315,-3.380630389009254,4.336750873531198,1.6775008004985381
2.1130191094162227,-3.4663444034044404,4.353525881536183,1.6258523286126592
2.0783556653821784,-3.5584257843317864,4.36978440482231,1.5662470265046833
2.0427714075388606,-3.6573222593104866,4.385446875087357,1.4981499388677368
2.0061981849457555,-3.7634399357227326,4.400428374476035,1.421090850790271
1.9685637855885283,-3.877111033395121,4.414639282983938,1.3347146967149797
1.929792675254577,-3.998552161866937,4.427986429951088,1.2388471597440305
1.8898071536359078,-4.127812386203204,4.4403749015485285,1.1335768983219972
1.8485290297738757,-4.264711319746779,4.451710670531749,1.0193543401192768
1.805881916576408,-4.408769111588401,4.461904213932941,0.8971044584590311
1.7617942254605239,-4.559132535471087,4.470875258517531,0.7683472377206035
1.716202900105813,-4.714504348407939,4.478558730894737,0.6353147254958118
1.6690578566217336,-4.873086317365161,4.4849118781496955,0.5010481664838384
1.620326993448082,-5.032549116610465,4.489922359814534,0.369453786549721
1.5700015022819773,-5.190043675186918,4.493616897680031,0.24529297272488812
1.5181010655301082,-5.342267404838213,4.49606982740728,0.13408377656489137
1.464678391481726,-5.4855942622387746,4.497410665172929,0.04189742165349662
1.4098224488593383,-5.616269748698949,4.4978296393894635,-0.024953724257945453
1.3536597513723487,-5.730661708635582,4.497580102146884,-0.060322699647828826
1.2963531342859929,-5.825547026527048,4.496976875150406,-0.058695653297889755
1.2380976640207224,-5.898405231929454,4.496389918617426,-0.01567014391984472
1.1791136117014278,-5.947684435790204,4.4962332171782275,0.07161766317066065
1.1196367673435257,-5.973004075285735,4.496949393809934,0.20418074676945105
1.0599067265906683,-5.975263243945677,4.4989912012776285,0.38103919444197626
1.0001540941512115,-5.956633286880848,4.502801593222048,0.5992838968466978
0.940587761282403,-5.920428732279676,4.508794432190515,0.8543519280151579
0.8813834739596061,-5.870870021439431,4.517337951470667,1.1404844544233614
0.8226747737452118,-5.812771202141897,4.5287427960149005,1.4513050150477924
0.7645470617237928,-5.751200318943178,4.543255846165378,1.7804346486770195
0.707035058534361,-5.691164628137609,4.561060192652148,2.1220581250315553
0.6501234122529849,-5.637365128235958,4.582280773902464,2.4713738254904873
0.5937497609706253,-5.594047947250436,4.606994512157368,2.824892465395421
0.5378092814981209,-5.564959976785508,4.635243436811322,3.1805859643568457
0.4821596817302658,-5.553399297965721,4.66704929645489,3.5379169338492407
0.4266256887506086,-5.5623415293335405,4.702428465793383,3.89779577347025
0.37100227345727316,-5.59462197103438,4.741406423528085,4.262516370128014
0.31505605374692935,-5.653158467521828,4.784031587229365,4.6357169714156745
0.25852446907171106,-5.7412083812137045,4.830388756943522,5.022405092991666
0.201112385259574,-5.862662184731231,4.8806128078734385,5.429078075298796
0.1424857634122617,-6.022383244357978,4.934903588626426,5.863964838949023
0.08226193096868192,-6.226604004984797,4.993543237015916,6.337404990328427
0.019995890918833956,-6.483371824440905,5.056917286919201,6.862352967151132
-0.04483782732557509,-6.802971598629755,5.125540816590712,7.4549026383841435
-0.11286754331187264,-7.198048623440487,5.2000898429745535,8.134447664890601
-0.1848480295462775,-7.682572822769153,5.281434319623459,8.922288035529652
-0.261673757773969,-8.267213946631994,5.370657199978756,9.835308515003755
-0.34434589724028897,-8.944924866025048,5.469010285128793,10.866086175601108
-0.43379514590053947,-9.654416915086173,5.577671146884804,11.932203345646506
-0.5303393150514012,-10.215907582942272,5.696993180341269,12.786797393093009
-0.6324983908808239,-10.320012219362782,5.824861154272199,13.003212950262952
-0.7356985130744518,-9.788039477826436,5.954893283774829,12.338084966597012
-0.8335789078527162,-8.876854981706348,6.078274133440799,11.15346689999052
-0.9223474576697797,-7.958957595410254,6.189808802440704,9.967612955748635
-1.0019370336238822,-7.182786025121468,6.2894849319981905,8.985339555372184
-1.0737648938750968,-6.552563068724241,6.379338327551912,8.212174338017732
-1.1392905245623393,-6.037793461502115,6.46146007093209,7.606568233302226
-1.1996684591773603,-5.608855352987625,6.537525753265112,7.128803157875564
-1.2557570127072366,-5.243035367321465,6.608813784843868,6.749069929830355
-1.3081873663804513,-4.923724984857195,6.676304484142172,6.446221688327869
-1.3574246162290233,-4.6387532987079965,6.74076670102545,6.205397950111667
-1.4038121492161033,-4.379038244488442,6.802820680526566,6.0161042841313535
-1.4476025316609877,-4.137654471322501,6.86298172336788,5.8708529499699
-1.4889790763742128,-3.9092258246534604,6.921690252867579,5.764214613682431
-1.5280713346207473,-3.689550175169125,6.979332399004403,5.692132498895014
-1.5649668363724385,-3.4753927377182054,7.036253723993354,5.651389676331062
-1.5997207637496205,-3.2644074757690773,7.092767620756664,5.639155351813811
-1.6323648385073113,-3.055159166215833,7.149159174274803,5.652564394655865
-1.6629164301694697,-2.847220540089363,7.2056848182213615,5.68831139355035
-1.6913886355703633,-2.641309286901977,7.262567932156865,5.742271976450825
-1.7178017284393832,-2.4394095744537663,7.3199906519213735,5.8092024063279935
-1.7421958241839208,-2.244797803087902,7.378082675984653,5.882608183124017
-1.7646438022147999,-2.0618770566911384,7.4369087578158934,5.954895626953112
-1.7852625727817113,-1.8957423317938504,7.496457714085425,6.017897551610927
-1.80421999609965,-1.7514699473727278,7.556636689601534,6.063769316128766
-1.821734695573377,-1.6332441578544228,7.6172743827628215,6.086094573893023
-1.8380671371519213,-1.5435502800526884,7.678135328501752,6.080891660087954
-1.8535026399524481,-1.48269527632676,7.738944245102632,6.0471789874313595
-1.8683295927157157,-1.4488158939776734,7.799416034976945,5.986899755248205
-1.8828177516554925,-1.438344539144526,7.859285032529427,5.904259429354833
-1.8972011970469378,-1.4467373230801392,7.918327626822975,5.804742350067494
-1.9116685702777392,-1.469217623788639,7.97637505032365,5.694131412451156
-1.9263607465156256,-1.5013527665053699,8.033316364448162,5.577762670966783
-1.9413742741806792,-1.5393935457606087,8.08909399115783,5.460097261467022
-1.9567682096382852,-1.5803982274796156,8.1436949637725,5.344574682267683
-1.9725721919130814,-1.6222065499356637,8.197140710595177,5.233657773255733
-1.988794257412438,-1.66333279327777,8.249477288327734,5.128978239483526
-2.0054275853452155,-1.7028303445238142,8.30076707072257,5.0315150894323635
-2.0224558887904536,-1.7401595875282292,8.351082221616894,4.941765853359271
-2.039857484665736,-1.7750743893419298,8.400499880150486,4.859891980104481
-2.0576082285591553,-1.8075318241456795,8.44909879995153,4.785833343212505
-2.075683546800612,-1.837624100409963,8.496957133383654,4.71939383207851
-2.094059787804712,-1.8655292574521065,8.544151071704439,4.660302848226019
-2.1127150803792327,-1.8914766378495953,8.590754100186698,4.608258060795823
-2.1316298467577286,-1.9157234581309617,8.636836680794657,4.562954239990495
-2.1507870813390384,-1.9385394351750689,8.682466223194561,4.52410208453067
-2.170172475690789,-1.960197097930051,8.727707244039868,4.491440035175831
-2.1897744466700897,-1.980966002174215,8.772621644391627,4.464741262333763
-2.209584106691832,-2.0011095325680355,8.817269057014965,4.4438173677470445
-2.2295952020175123,-2.0208833220016706,8.861707230692435,4.428519836402813
-2.249804035237529,-2.0405345580377086,8.905992429056463,4.418739885476063
-2.270209380817906,-2.060301596984849,8.950179827911223,4.4144070486420075
-2.2908123967877545,-2.0804133815999357,8.994323898397642,4.415486574305737
-2.3116165306037537,-2.101088167456118,9.038478764140699,4.421975475839027
-2.332627412278315,-2.1225310094458263,9.08269851889909,4.433896824031988
-2.3538527223727734,-2.1449293434880534,9.12703748713941,4.451291592370392
-2.375302015807654,-2.168445817403551,9.171550403063113,4.4742070340058495
-2.3969864739816895,-2.1932072804393816,9.216292473403172,4.502680173768728
-2.418918546786083,-2.219288547196337,9.26131927514086,4.536714548221349
-2.4411114322580465,-2.246689253718795,9.306686420623073,4.576247874852876
-2.4635783247952343,-2.27530192881871,9.352448899371602,4.621108018860008
-2.4863313440834216,-2.3048695331138638,9.398659979560202,4.670954750676557
-2.5093800394145602,-2.334931574301607,9.445369527066967,4.7252059005890485
-2.5327293551575765,-2.3647601370394664,9.492621586072858,4.782949511630299
-2.5563769565279713,-2.393291638802583,9.540451081189161,4.8428496765523095
-2.580309872915997,-2.419067639212586,9.588879577954684,4.903064043087137
-2.604500549308123,-2.4402084604025727,9.637910218385555,4.961205336169862
-2.6289026339121486,-2.4544540067685805,9.687522271747254,5.0143939609089685
-2.6534471739798344,-2.4593097660795133,9.737666211356343,5.059453831541464
-2.6780402716406297,-2.452320900542196,9.788260749671757,5.093282937369306
-2.702563480646052,-2.431454031478062,9.83919357904545,5.1133705836411405
-2.7268780209608323,-2.3955016218180343,9.890327284881861,5.118344260892399
-2.750833037179013,-2.3443725636693427,9.941510727490785,5.108358941230105
-2.774276762815706,-2.2791432908223013,9.992594316903086,5.0851573906181144
-2.797068195723929,-2.2018332383672945,10.043445890809267,5.051754394855039
-2.819086528107602,-2.1149884214868657,10.093963434757818,5.011862920742393
-2.840236412322471,-2.021226806553023,10.144082063965241,4.969274776866256
-2.860448680388001,-1.922880651967525,10.193774811733904,4.927380408751371
-2.879677486907676,-1.8217961290863873,10.243048615821419,4.888907752349119
-2.8978954481985397,-1.7192781547676557,10.29193769334491,4.8558603930770765
-2.915088229746216,-1.6161319688917957,10.34049629727568,4.829586284756598
-2.931249549435134,-1.5127506998388391,10.388792160123245,4.810906465799136
-2.9463770564335223,-1.409212630757821,10.436901224781236,4.800254071548641
-2.9604691827411007,-1.3053685041228131,10.484903765496723,4.797797246359899
-2.9735228677823287,-1.2009114219878285,10.532881737960322,4.803536421082843
-2.985531982002207,-1.0954288519649666,10.580917102171151,4.817375844924968
-2.996486270521857,-0.9884393322610522,10.629090860620401,4.839173304346185
-3.0063706638444674,-0.8794173203726907,10.677482593663862,4.868772946470896
-3.0151648370481943,-0.7678094291611278,10.72617032312857,4.906025696199731
-3.0228429313398055,-0.6530447209118776,10.775230580090568,4.950800849795617
-3.0293733785489243,-0.5345411152624461,10.824738588588524,5.00299148965884
-3.034718789701549,-0.4117094419334481,10.874768503485113,5.062515566850206
-3.0388358841208833,-0.28395626708700816,10.925393659153615,5.129313878038276
-3.0416754467917535,-0.15068633428021902,10.976686797933997,5.203345705852714
-3.0431823101345556,-0.011305265134496145,11.028720254992525,5.284582564128652
-3.0432953627859005,0.13477696282001256,11.081566080633811,5.3730002609116765
-3.0419475931577002,0.2881413243582255,11.135296083242928,5.468569337578725
-3.039066179914118,0.44935345575598384,11.189981776618716,5.571243844931703
-3.0345726453565582,0.6189554180311444,11.245694215068033,5.68094836663898
-3.028383091176247,0.7974552059013253,11.302503698734423,5.797563192904942
-3.0204085391172337,0.9853137467662241,11.360479330663473,5.920907583479363
-3.0105554016495715,1.1829292143865808,11.419688406498267,6.050721143328793
-2.998726109505706,1.3906186038976838,11.480195617931555,6.186643472754194
-2.984819923466729,1.6085966916670722,11.542062052659096,6.328192452757962
-2.9687339565500586,1.8369527462594164,11.605343977186676,6.474741789614428
-2.950364429087464,2.075625671072952,11.670091395082821,6.625498766996087
-2.9296081723767347,2.3243786411537197,11.736346382752782,6.779483525633097
-2.9063643859651975,2.582774727512688,11.804141218009113,6.935511579004392
-2.880536638690071,2.8501554428839446,11.873496333799157,7.092181627734736
-2.852035084261231,3.1256245298502456,11.944418150076505,7.247870980929024
-2.820778838962729,3.408039557781614,12.016896859885795,7.400740935304166
-2.7866984433849127,3.69601389369787,12.090904269238838,7.548754199384291
-2.7497383044479338,3.9879312576028356,12.16639181123268,7.689705789096171
-2.7098589918719056,4.281974284702505,12.243288869123642,7.821267714685604
-2.6670392490248807,4.576167275330494,12.321501546270499,7.941046257120161
-2.621277576271576,4.868431692456066,12.4009120088417,8.04664883288441
-2.5725932593470153,5.156651153826361,12.481378497170544,8.135755623607105
-2.521026747808752,5.438740952807122,12.562736053406615,8.206189646260828
-2.4666393382806806,5.712715877940792,12.644797949869224,8.255978130481763
-2.409512179501273,5.976749611858603,12.727357731174042,8.283398250458962
-2.3497446833826867,6.229219483467454,12.81019171367863,8.28700155908973
-2.2874524885480123,6.468731838530594,12.893061729269528,8.265613788831384
-2.2227651701627065,6.694125582045013,12.975717867157842,8.218309685907466
-2.1558239143422564,6.904454158301811,13.057900964016916,8.14436575134674
-2.086779372759238,7.09894892595332,13.139344621530384,8.043196671163274
-2.015789883499705,7.276969157536912,13.219776588242016,7.914283435205805
-1.9430201919243357,7.437945488928286,13.298919422594075,7.757102468732089
-1.8686407370350528,7.5813244856981195,13.376490447281396,7.571065531616898
-1.7928274921780716,7.70652215160249,13.452201102597565,7.355479810519943
-1.7157622706620468,7.812893822812958,13.525755900702764,7.109536696606481
-1.6376333324339172,7.899727089645973,13.596851267668828,6.832336273314398
-1.5586360615374575,7.966263179790721,13.665174630401973,6.52295243527428
-1.4789734297395503,8.011750491511828,13.730404154754716,6.180540540808708
-1.3988559248244319,8.03553142478531,13.792209560162803,5.804485183363095
-1.3185006105765789,8.037160038850551,13.850254411996435,5.394579748590518
-1.2381290101880733,8.016543239081578,13.90420020948234,4.951221967657228
-1.1579635777972574,7.974092442300723,13.953712429158912,4.475601456664052
-1.0782226533742503,7.910866908066408,13.998468443725553,3.969847990320428
-0.9991139842935862,7.82868579524346,14.038166923628758,3.437105660052869
-0.9208271263411516,7.730185600752343,14.072537980229287,2.8815010886983528
-0.8435252703336282,7.61880477552919,14.10135299111627,2.3079855547451333
-0.7673372225783364,7.4986884822252495,14.124432846663721,1.7220507783561732
-0.6923503377560839,7.374521959910959,14.141653354447282,1.1293423249927874
-0.6186051181569743,7.251316895994459,14.15294677769721,0.5352162322238808
-0.5460919491970296,7.134186722140785,14.15829894001945,-0.05570384816262042
-0.4747500819756218,7.028150137091572,14.157741901537824,-0.6399146070546654
-0.4044685806047061,6.937996656852239,14.151342755467278,-1.2153287285114738
-0.3350886140361837,6.868236182060696,14.139189468182163,-1.7814663868113048
-0.26640625221557673,6.823141065514487,14.12137480431405,-2.3395570817983136
-0.19817484156043186,6.806878439924743,14.097979233496066,-2.8925867960983087
-0.13010605716118442,6.823725179208855,14.069053365535083,-3.44533682744764
-0.061868805369095864,6.87835764686117,14.034599997260607,-4.004462760018596
0.00691477109951584,6.976210199137997,13.994555369660421,-4.578655321742314
0.07667687309089581,7.123892923789911,13.948768816442998,-5.178905352099826
0.14791580232879492,7.3296335055202455,13.896979762922,-5.818844578284987
0.22121213738399736,7.60361813000981,13.83879131713915,-6.514996550146371
0.29724831868409546,7.957840939906613,13.773641351637686,-7.286394102645407
0.3768267280831616,8.404344889929263,13.70077741061123,-8.152001288083845
0.46087017698245425,8.948890180178836,13.619257397730392,-9.1217954048904
0.5503590787842426,9.573146952856407,13.528039443681488,-10.17185178417304
0.6460905483128067,10.194505694510474,13.426320925839757,-11.188169010332919
0.7480356052579114,10.611499221467641,13.314439235736428,-11.890498128257539
0.8541505974725878,10.54492583840738,13.195534254453852,-11.890623906167102
0.9595998558566616,9.926873487616898,13.076628015392181,-11.097748245373012
