th1 (rad),w1 (rad/s),th2 (rad),w2 (rad/s),a1 (rad/s^2),a2 (rad/s^2)
2.1284464134569356,-1.1613040386207105,4.611892667987364,-1.9313762492891289,-5.3035432496118275,4.729886209684231
2.1168333730707287,-1.2143394711168287,4.592578905494473,-1.8840773871922865,-5.51692546051785,4.480360780142548
2.1046899783595605,-1.2695087257220072,4.57373813162255,-1.839273779390861,-5.732886195472577,4.217440931123399
2.0919948911023405,-1.326837587676733,4.555345393828641,-1.797099370079627,-5.95140266562087,3.9406007748468617
2.078726515225573,-1.3863516143329417,4.537374400127844,-1.7576933623311584,-6.172536800232706,3.6492316939871774
2.0648629990822434,-1.4480769823352688,4.519797466504533,-1.7212010453912865,-6.396422128883487,3.342658882497401
2.0503822292588905,-1.5120412036241038,4.50258545605062,-1.6877744565663124,-6.623251405817321,3.0201566231767574
2.0352618172226493,-1.578273717682277,4.485707711484957,-1.6575728903345448,-6.853264637956257,2.6809627489569956
2.0194790800458264,-1.6468063640618396,4.469131982581612,-1.6307632628449749,-7.086737186863925,2.324292738442438
2.003011016405208,-1.7176737359304788,4.452824349953162,-1.6075203354605505,-7.32396762643514,1.949353899322481
1.9858342790459034,-1.7909134121948302,4.436749146598556,-1.5880267964673258,-7.5652650515909325,1.5553600960662646
1.967925144923955,-1.8665660627107397,4.420868878633883,-1.572473195506663,-7.810935549043997,1.1415474798957532
1.9492594842968476,-1.9446754182011796,4.405144146678816,-1.5610577207077057,-8.06126756020641,0.7071916774981852
1.9298127301148358,-2.0252880938032436,4.389533569471738,-1.553985803932724,-8.316515890129027,0.251626887398794
1.9095598491768033,-2.1084532527045337,4.373993711432411,-1.551469535058736,-8.576884147182726,-0.22573268446929862
1.888475316649758,-2.194222094176361,4.358479016081824,-1.553726861903429,-8.842505438765546,-0.7253686504791094
1.8665330957079944,-2.282647148564016,4.342941747462789,-1.5609805484082202,-9.113421201882957,-1.247631181139419
1.8437066242223543,-2.3737813605828455,4.327331941978707,-1.5734568602196144,-9.389558117609022,-1.7927083910630595
1.819968810616526,-2.4676769417589357,4.31159737337651,-1.591383944130245,-9.670703148976893,-2.36059221622332
1.7952920411989366,-2.5643839732487046,4.2956835339352075,-1.6149898662924782,-9.956476856427791,-2.9510407820106486
1.7696482014664496,-2.6639487418129826,4.279533635272283,-1.6445002741125847,-10.246305286667601,-3.563537464102341
1.7430087140483197,-2.7664117946796587,4.263088632531157,-1.680135648753608,-10.539390901584165,-4.197247100425757
1.715344596101523,-2.8718057036955003,4.2462872760436206,-1.7221081197578656,-10.834683213794355,-4.850970125700411
1.686626539064568,-2.9801525358334437,4.229066194846042,-1.7706178210148698,-11.13085002161256,-5.523095769400911
1.6568250137062337,-3.0914610360495693,4.2113600166358935,-1.8258487787088789,-11.426250382106492,-6.211555876982226
1.625910403345738,-3.2057235398706343,4.193101528848805,-1.8879643374787012,-11.718910714915344,-6.913781368716633
1.5938531679470318,-3.3229126470197876,4.174221885474018,-1.9571021511658675,-12.006505674426476,-7.626663816934505
1.560624041476834,-3.4429777037640523,4.15465086396236,-2.0333687893352126,-12.286345640376668,-8.346525066455587
1.5261942644391935,-3.565841160167819,4.134317176069008,-2.1168340399997683,-12.555372827718678,-9.06909819890114
1.4905358528375152,-3.6913948884450054,4.11314883566901,-2.2075250219887796,-12.810168071830196,-9.78952339350389
1.4536219039530651,-3.8194965691633076,4.091073585449123,-2.3054202559238184,-13.046970268976242,-10.502362301913145
1.415426938261432,-3.94996627185307,4.068019382889885,-2.41044387894295,-13.261710210526449,-11.201634367600793
1.3759272755429013,-4.082583373958335,4.043914944100456,-2.5224602226189576,-13.45006011638444,-11.880878023577267
1.335101441803318,-4.217083975122179,4.018690341874266,-2.64126900285473,-13.607499535860509,-12.53323885386088
1.2929306020520963,-4.353158970480784,3.992277651845719,-2.7666013913933387,-13.72939745062342,-13.151585591605718
1.2493990123472885,-4.490452944987019,3.9646116379317853,-2.898117247309396,-13.811109417957727,-13.728653276530586
1.2044944828974182,-4.628564039166596,3.9356304654586913,-3.035403780074702,-13.848087495353184,-14.25721108031143
1.1582088425057522,-4.767044914120128,3.9052764276579444,-3.177975890877816,-13.835999578502859,-14.730250354704475
1.110538393364551,-4.905404909905157,3.873496668749166,-3.3252783944248607,-13.770853773444797,-15.141186531285904
1.0614843442654993,-5.043113447639605,3.8402438848049174,-3.47669025973772,-13.649122627394531,-15.484066800999233
1.0110532097891032,-5.179604673913551,3.8054769822075403,-3.631530927747712,-13.46786157104535,-15.753774229056784
0.9592571630499677,-5.314283289624004,3.769161672930063,-3.78906867003828,-13.224815860390967,-15.946218295329189
0.9061143301537277,-5.446531448227914,3.7312709862296805,-3.948530852991572,-12.918510687750969,-16.058501917336827
0.8516490156714486,-5.575716555105424,3.6917856776997646,-4.10911587216494,-12.548319944463747,-16.089055858306224
0.7958918501203943,-5.7011997545500614,3.6506945189781153,-4.270006430748003,-12.114510289590623,-16.037732999269668
0.7388798525748937,-5.822344857445968,3.607994454670635,-4.4303837607407,-11.618258588955625,-15.9058571227911
0.680656404000434,-5.938527443335524,3.563690617063228,-4.589442331968611,-11.06164228450136,-15.69622340327489
0.6212711295670788,-6.049143866180538,3.517796193743542,-4.74640456600136,-10.44760367528774,-15.413050468554905
0.5607796909052734,-6.153619902933415,3.470332148083528,-4.900535070686908,-9.77989029633869,-15.061886428728485
0.4992434918759392,-6.251418805896802,3.421326797376659,-5.051153934974193,-9.062974467194588,-14.649473434020093
0.43672930381697117,-6.342048550568748,3.370815258026917,-5.197648669314394,-8.30195559847892,-14.183576961038156
0.3733088183112837,-6.425068106553537,3.3188387713337733,-5.339484438924775,-7.502448997733232,-13.672787054418967
0.3090581372457483,-6.50009259653087,3.2654439269445255,-5.4762123094689645,-6.670464759236296,-13.126299169318296
0.2440572112804396,-6.566797244123233,3.2106818038498357,-5.607475301162148,-5.812279943800796,-12.55368214027314
0.17838923883920726,-6.624920043561241,3.154607050838214,-5.733012122564879,-4.934306755415115,-11.964640262193692
0.11214003840359485,-6.674263111115392,3.097276929612565,-5.852658525186816,-4.0429589000203885,-11.368775650069475
0.04539740729244092,-6.714692700115596,3.0387503443606967,-5.96634628168751,-3.1445178474631357,-10.7753560833296
-0.02174951970871504,-6.746137878590227,2.9790868815438216,-6.074099842520806,-2.245000364045769,-10.193092555819065
-0.08921089849461732,-6.768587882230685,2.9183458831186138,-6.176030768078997,-1.3500284651881267,-9.62992982918823
-0.15689677731692417,-6.782088166882566,2.856585575437824,-6.272330066370879,-0.4647028563012521,-9.092852479487506
-0.22471765898574983,-6.786735195445579,2.7938622747741153,-6.363258591165754,0.40651903051878324,-8.587708259660698
-0.2925850109402056,-6.782670005140391,2.7302296888624578,-6.449135673762361,1.2599391580632624,-8.119050082408767
-0.3604117109916095,-6.770070613559758,2.665738332124834,-6.530326174586448,2.0927276997179054,-7.689997560621337
-0.4281124171272071,-6.749143336562579,2.6004350703789694,-6.607226150192662,2.9030227946155316,-7.302118833833215
-0.4956038504928329,-6.720113108616424,2.534362808877043,-6.680247338530994,3.690019115676396,-6.955333381066934
-0.5628049815789972,-6.6832129174596595,2.467560335491733,-6.749800672341664,4.4540426437123095,-6.647836714711105
-0.6296371107535937,-6.638672491022536,2.4000623287683163,-6.816279039488775,5.196608409551369,-6.37604832827225
-0.6960238356638191,-6.586706406927022,2.3318995383734284,-6.880039522771497,5.920457133304387,-6.1345851085580065
-0.7618908997330893,-6.527501835593978,2.2630991431457135,-6.941385373857077,6.629565609352042,-5.916263697456318
-0.8271659180890291,-6.461206179500458,2.1936852894071426,-7.000548010831641,7.329124334607539,-5.712137058866046
-0.8917779798840336,-6.387914936154383,2.1236798092988263,-7.057669381420301,8.025474282198875,-5.511572783615433
-0.9556571292455774,-6.307660193332394,2.0531031154846233,-7.112785109256456,8.725992990576012,-5.30238337314263
-1.0187337311789013,-6.220400263426634,1.9819752643920587,-7.165808942987883,9.438918497193043,-5.071021667955009
-1.0809377338131676,-6.126011078454703,1.91031717496218,-7.216519159667433,10.173098485672508,-4.802857321876603
-1.1421978445977146,-6.024280093597978,1.8381519833655056,-7.264547732886199,10.93765192057703,-4.482552110258937
-1.2024406455336945,-5.914903574392208,1.7655065060366435,-7.309373253988788,11.741532205967207,-4.094551955077052
-1.2615896812776166,-5.797488252332537,1.6924127734967556,-7.350318773539558,12.592985482880911,-3.6237106321468238
-1.319564563800942,-5.671558397503728,1.61890958576136,-7.386555879861026,13.498906084820955,-3.0560528028626237
-1.3762801477759792,-5.536569336655519,1.5450440269627497,-7.417116407889653,14.464104216256725,-2.3796709628463777
-1.4316458411425343,-5.391928294492951,1.4708728628838532,-7.440913117518116,15.490518853944158,-1.5857312952826217
-1.4855651240874639,-5.23702310595351,1.396463731708672,-7.456770430470942,16.576430872936708,-0.6695375274114215
-1.537935355146999,-5.071258797224143,1.3218960274039626,-7.463465805745057,17.715755056808767,0.368428223334643
-1.5886479431192404,-4.894101246656056,1.247261369346512,-7.45978152351171,18.897510618310775,1.521598534191594
-1.637588955585801,-4.705126140472948,1.172663554111395,-7.444565538169794,20.105581977870656,2.7766814160194913
-1.6846402169905303,-4.504070320694241,1.098217898729697,-7.416798724009599,21.31887776947627,4.113429518601312
-1.7296809201974728,-4.290881542999479,1.0240499114896011,-7.375664428823586,22.51197026323998,5.50494158396058
-1.7725897356274676,-4.065761840367079,0.9502932672013653,-7.32061501298398,23.656247031601595,6.918573516156766
-1.8132473540311385,-3.829199370051063,0.8770871170715255,-7.251429277822413,24.72153523352869,8.31746175337243
-1.851539347731649,-3.5819840177157762,0.8045728242933015,-7.168254660288689,25.67807723404356,9.66256834887833
-1.8873591879088067,-3.3252032453753406,0.7328902776904146,-7.071628976799905,26.49866158533173,10.915063158515599
-1.92061122036256,-3.0602166295220234,0.6621739879224156,-6.962478345214749,27.160665097406127,12.038786094730476
-1.9512133866577803,-2.7886099785479623,0.592549204470268,-6.842090484267445,27.647755414476322,13.002501727921207
-1.97909948644326,-2.512132424403199,0.5241282996275936,-6.712065466988233,27.95104500775744,13.781680567492987
-2.004220810687292,-2.2326219743256246,0.45700764495771123,-6.574248661313303,28.069569741787408,14.359613292988389
-2.026547030430548,-1.9519262769077506,0.3912651583445782,-6.430652528383419,28.010069725324204,14.727769575074387
-2.0460662931996256,-1.6718255796545085,0.326958633060744,-6.283374832632675,27.786152946281554,14.885427075337713
-2.062784548996171,-1.393964050191693,0.26412488473441725,-6.134520561879298,27.417001183637332,14.8386935495501
-2.076724189498088,-1.1197940383553195,0.20277967911562428,-5.986133626383797,26.92581929403548,14.599107665295284
-2.0879221298816413,-0.8505358454149647,0.1429183428517863,-5.840142549730844,26.338230776752756,14.182025402847808
-2.0964274883357907,-0.5871535376474372,0.08451691735447786,-5.698322295702366,25.680791937582505,13.604982943138324
-2.102299023712265,-0.33034561827161213,0.0275336943974542,-5.562272466270983,24.979747079212057,12.886185317551789
-2.1056024798949813,-0.08054814747949154,-0.02808903026525563,-5.433410613095465,24.260091879722708,12.043216826757117
-2.106407961369776,0.16205277131773554,-0.0824231363962103,-5.312978444827894,23.544962594978788,11.09201666145586
-2.1047874336565986,0.39750239726752346,-0.13555292084448922,-5.202058278213335,22.85533148878244,10.04611956842328
-2.1008124096839236,0.6260557121553478,-0.18757350362662256,-5.101597082529103,22.209966012846735,8.916130595650426
-2.09455185256237,0.8481553722838152,-0.23858947445191359,-5.012435776572598,21.625599446849673,7.709385076742375
-2.086070298839532,1.0644113667523118,-0.2887138322176396,-4.935341925805174,21.117260840477073,6.429738014286161
-2.075426185172009,1.2755839751570826,-0.33806725147569133,-4.871044545662312,20.698718464630893,5.077428013845743
-2.0626703454204383,1.4825711598033915,-0.38677769693231445,-4.820270265523854,20.383000060247465,3.6489672986154558
-2.0478446338224043,1.6864011604058662,-0.43498039958755297,-4.7837805925377,20.182961888818323,2.137019537893311
-2.0309806222183457,1.8882307792940494,-0.48281820551293,-4.762410397158767,20.11188405121808,0.5302413557677714
-2.012098314425405,2.0893496198062302,-0.5304423094845176,-4.75710798360109,20.184068339806355,-1.1869159846647672
-1.991204818227343,2.291190303204294,-0.5780133893205286,-4.768977143447738,20.415401757673884,-3.034414633567129
-1.9682929151953,2.4953443207810326,-0.625703160755006,-4.799321289783409,20.82381430532422,-5.036758071216174
-1.9433394719874897,2.703582463834275,-0.6736963736528401,-4.84968887049557,21.429485780391687,-7.222837470927362
-1.916303647349147,2.917877321638192,-0.7221932623577958,-4.921917245204844,22.25450909852573,-9.625083295298323
-1.887124874132765,3.1404224126234492,-0.7714124348098442,-5.018168078157827,23.321433161677394,-12.27710637864869
-1.8557206500065306,3.373636744240223,-0.8215941155914225,-5.140939141944314,24.64957050323473,-15.20825537315779
-1.8219842825641284,3.6201324492725706,-0.8730035070108656,-5.2930216956758915,26.246966041954188,-18.432125570254506
-1.7857829580714026,3.8826021096921126,-0.9259337239676245,-5.477342951378437,28.094193575755746,-21.923617021125693
-1.7469569369744815,4.16354404544967,-0.9807071534814089,-5.696579121589694,30.113425929612138,-25.575297897245594
-1.7053214965199848,4.464678304745791,-1.0376729446973059,-5.95233210056215,32.113003634782146,-29.119255001926035
-1.6606747134725268,4.785808341093613,-1.0971962657029273,-6.24352465058141,33.69770583983934,-32.000478483974
-1.6128166300615907,5.122785399492007,-1.1596315122087413,-6.56352943542115,34.15144383099254,-33.210848648588936
-1.5615887760666707,5.464299837801932,-1.2252668065629528,-6.895637921907039,32.364200639454786,-31.1840561407441
-1.5069457776886515,5.78794184419648,-1.2942231857820232,-7.20747848331448,27.02112193743881,-24.057130839108787
-1.4490663592466866,6.058153063570868,-1.3662979706151681,-7.448049791705568,17.383252906735777,-10.762180340715044
-1.3884848286109779,6.2319855926382255,-1.4407784685322238,-7.5556715951127185,4.547500028501996,7.206036543782353
-1.3261649726845957,6.277460592923245,-1.516335184483351,-7.483611229674895,-8.200472170010464,25.28696164069849
-1.2633903667553632,6.195455871223141,-1.5911712967801,-7.23074161326791,-17.330631909713055,38.56325021703455
-1.2014358080431318,6.02214955212601,-1.663478712912779,-6.845109111097565,-21.53574540131607,45.20222776883157
-1.1412143125218717,5.80679209811285,-1.7319298040237547,-6.393086833409249,-21.81031923089623,46.5673335364699
-1.083146391540743,5.588688905803887,-1.7958606723578472,-5.92741349804455,-19.850595197143505,44.99482932952346
-1.0272595024827043,5.390182953832452,-1.8551348073382927,-5.477465204749316,-16.95968767504506,42.27695409015522
-0.9733576729443797,5.220586077082002,-1.909909459385786,-5.054695663847763,-13.865239364449488,39.412052490421104
-0.9211518121735597,5.081933683437507,-1.9604564160242637,-4.660575138943552,-10.897146740529802,36.85166286298622
-0.8703324753391846,4.972962216032209,-2.0070621674136992,-4.29205851031369,-8.172767477923744,34.756195427527324
-0.8206028531788625,4.891234541252971,-2.0499827525168364,-3.9444965560384166,-5.711218062726496,33.15177564077455
-0.7716905077663327,4.834122360625706,-2.0894277180772205,-3.612978799630671,-3.492053579614235,32.010047895241975
-0.7233492841600757,4.799201824829564,-2.1255575060735272,-3.292878320678251,-1.482702768134233,31.28484168913011
-0.67535726591178,4.784374797148222,-2.15848628928031,-2.9800299037869498,0.34955931606521107,30.927522739788763
-0.6275135179402977,4.787870390308874,-2.1882865883181792,-2.670754676389062,2.032806165649386,30.892450919626096
-0.579634814037209,4.808198451965368,-2.21499413508207,-2.3618301671928013,3.5888155407817317,31.138050414842873
-0.5315528295175552,4.844086607373185,-2.2386124367539977,-2.0504496630443727,5.032737406073885,31.626046455124467
-0.48311196344382334,4.8944139814339245,-2.2591169333844414,-1.734189198493128,6.37325862759651,32.32003458096132
-0.4341678236294841,4.95814656770989,-2.2764588253693727,-1.4109888526835146,7.612935410067528,33.18392000043873
-0.38458635795238516,5.034275921810565,-2.290568713896208,-1.0791496526791273,8.748593506105047,34.18049372313396
-0.3342435987342795,5.121761856871616,-2.3013602104229993,-0.7373447154477877,9.77180428447832,35.270305452802035
-0.28302598016556335,5.219479899716399,-2.308733657577477,-0.3846416609197673,10.669493223329198,36.410957039558824
-0.23083118116839935,5.326174831949691,-2.3125800741866747,-0.020532090524179092,11.42475193751155,37.5569265891368
-0.17756943284890242,5.4404223513248064,-2.3127853950919164,0.35503717536718893,12.017914546526306,38.660014809476024
-0.12316520933565436,5.56060149679007,-2.3092350233382444,0.7416373234619491,12.427926652880402,39.67046537003942
-0.06755919436775366,5.684880763318874,-2.301818650103625,1.1383419771623433,12.633982671960252,40.53874199613414
-0.010710386734564925,5.811220590038476,-2.2904352303320015,1.5437293971236847,12.617340707194103,41.21784854706647
0.04740181916581984,5.9373939971104175,-2.2749979363607644,1.9559078825943494,12.363155502024537,41.66596783911461
0.10677575913692403,6.061025552130663,-2.2554388575348208,2.3725675609854955,11.862116580946465,41.84909493830889
0.16738601465823066,6.179646717940128,-2.231713181924966,2.7910585103685843,11.111659555725097,41.74328167269779
0.22918248183763196,6.290763313497378,-2.20380259682128,3.208491327095562,10.11654794504532,41.33611846460339
0.29209011497260573,6.391928792947832,-2.1717176835503245,3.6218525117415963,8.88870323633946,40.62716981177015
0.35600940290208405,6.480815825311226,-2.1354991584329084,4.028124209859298,7.446279231333465,39.627240457418445
0.4208175611551963,6.555278617624561,-2.0952179163343154,4.4243966144334825,5.812106364470395,38.35654699879953
0.4863703473314419,6.613399681269264,-2.0509739501899804,4.807962084421478,4.011740693920889,36.842057411115896
0.5525043441441345,6.653517088208473,-2.0028943293457657,5.176382658532637,2.0714143330279033,35.11439411743108
0.6190395150262192,6.674231231538752,-1.9511305027604393,5.527526599706947,0.01618742051239399,33.204747653192186
0.6857818273416068,6.674393105743876,-1.8958552367633699,5.859574076238869,-2.131448366819369,31.142215287723808
0.7525257583990456,6.653078622075682,-1.8372594960009812,6.170996229116107,-4.352350167359031,28.95188167946083
0.8190565446198024,6.609555120402092,-1.7755495337098202,6.460515045910715,-6.630821786248856,26.653827624484055
0.8851520958238233,6.543246902539604,-1.710944383250713,6.727053322155556,-8.95405496539188,24.263118147857195
0.9505845648492193,6.453706352885685,-1.6436738500291574,6.969684503634128,-11.311015944062026,21.79070290134287
1.0151216283780762,6.340596193445064,-1.5739770049928161,7.187591532647557,-13.690936777375878,19.245068175731053
1.0785275903125269,6.203686825671305,-1.5021010896663405,7.380042214404867,-16.081613073126785,16.634409581995588
1.1405644585692398,6.042870694940037,-1.4283006675222918,7.546386310224823,-18.467739803349126,13.969042871386721
1.20099316551864,5.8581932969065456,-1.3528368044200436,7.68607673893869,-20.82953410376436,11.263735163687297
1.2595750984877057,5.6498979558689015,-1.2759760370306568,7.7987140905755625,-23.141892424557902,8.539623984586663
