th1 (rad),w1 (rad/s),th2 (rad),w2 (rad/s),a1 (rad/s^2),a2 (rad/s^2)
4.902979949858593,2.566438840354451,1.4922552868987842,1.8228000108221967,8.426409948989182,-3.398057284848306
4.928644338262138,2.650702939844343,1.5104832870070062,1.7888194379737137,8.153231664084656,-3.857340981726241
4.955151367660581,2.7322352564851897,1.5283714813867433,1.7502460281564514,7.854353370755131,-4.354286289556655
4.982473720225433,2.810778790192741,1.5458739416683078,1.7067031652608848,7.528424331126259,-4.890797187018696
5.01058150812736,2.8860630335040036,1.5629409733209167,1.6577951933906978,7.174508521235741,-5.46814980554291
5.0394421384624,2.957808118716361,1.5795189252548236,1.6031136953352687,6.792196030842535,-6.086834599373654
5.0690202196495635,3.0257300790247865,1.5955500622081764,1.5422453493415322,6.381718348959674,-6.746398765273643
5.099277520439811,3.089547262514383,1.6109725157015917,1.474781361688796,5.944062850053331,-7.445297252505792
5.130172993064955,3.1489878910149165,1.6257203293184797,1.400328389163738,5.4810802476833,-8.180762913209767
5.161662871975103,3.2037986934917493,1.639723613210117,1.3185207600316402,4.995577270450625,-8.948708333516032
5.193700858910021,3.2537544661962556,1.6529088208104334,1.2290336766964798,4.491385552050877,-9.743673309687308
5.226238403571983,3.2986683217167645,1.6651991575773983,1.1315969435996067,3.973396985552086,-10.558832373441042
5.259225086789151,3.3384022915722853,1.6765151270133944,1.0260086198651963,3.447555881680081,-11.386075782998045
5.292609109704873,3.372877850389086,1.6867752132120464,0.9121478620352159,2.9207994951721616,-12.216174588806503
5.326337888208764,3.4020858453408076,1.6958966918323986,0.7899861161471509,2.400941072835968,-13.039035518402258
5.360358746662172,3.4260952560691673,1.7037965529938701,0.6595957609631282,1.8964936091312385,-13.84404454081722
5.394619699222863,3.4450601921604798,1.7103925106035014,0.521155315554956,1.4164378141830969,-14.620489483922317
5.429070301144468,3.4592245703023106,1.715604063759051,0.3749504207157328,0.9699439625615291,-15.358042837149275
5.463662546847491,3.468924009927926,1.7193535679662084,0.22136999234424007,0.5660635694123434,-16.047277120523464
5.49835178694677,3.4745846456220493,1.7215672678896508,0.06089722113900542,0.2134122931217685,-16.68017842087246
5.533097633402991,3.476718768553267,1.7221762401010408,-0.10590456306971915,-0.08013090432983386,-17.250620339681298
5.5678648210885235,3.475917459509968,1.7211171944703436,-0.2784107664665321,-0.30768233183267885,-17.75476175203583
5.602623995683623,3.4728406361916413,1.7183330868056783,-0.4559583839868904,-0.4635460033172933,-18.19133784977447
5.637352402045539,3.4682051761584685,1.7137735029658094,-0.6378717624846351,-0.5433212060852657,-18.561824466535676
5.6720344538071235,3.462771964097616,1.707394785340963,-0.8234900071499918,-0.5439139656869166,-18.870469323398726
5.7066621734481,3.457332824440747,1.6991598852694632,-1.012194700383979,-0.46344983623403513,-19.1241986277114
5.741235501692508,3.4526983260784063,1.6890379382656233,-1.203436686661093,-0.30109388588161595,-19.33242122807888
5.775762484953292,3.44968738721959,1.6770035713990123,-1.3967608989418818,-0.056790615995160054,-19.506763366158534
5.810259358825488,3.4491194810596384,1.6630359624095936,-1.5918285326034671,0.2690591590387888,-19.660773732901333
5.844750553636084,3.4518100726500265,1.647117677083559,-1.7884362699324805,0.6759662261276699,-19.809640681283852
5.879268654362584,3.458569734911303,1.6292333143842341,-1.986532676745319,1.163749219217086,-19.969961581712493
5.913854351711698,3.470207227103474,1.609367987616781,-2.186232292562444,1.7329469764310046,-20.159599575958673
5.948556423982732,3.4875366968677843,1.5875056646911565,-2.3878282883220305,2.3852406416432226,-20.397656809652325
5.9834317909514105,3.5113891032842166,1.5636273818079363,-2.5918048564185536,3.1238856069251884,-20.70458689177375
6.018545681984253,3.5426279593534686,1.5377093332437508,-2.7988507253362913,3.954159386931288,-21.102463606910348
6.053971961577787,3.5821695532227813,1.5097208259903878,-3.0098753614053946,4.883835780525253,-21.615417611182185
6.089793657110015,3.6310079110280338,1.4796220723763338,-3.2260295375172165,5.923696371859442,-22.270246251781597
6.126103736220295,3.6902448747466283,1.4473617770011615,-3.4487320000350326,7.088084250517691,-23.097189383677474
6.163006184967761,3.7611257172518053,1.4128744570008112,-3.679703893871807,8.395485202340005,-24.13083677519137
6.200617442140279,3.8450805692752055,1.3760774180620932,-3.921012261623721,9.869075005768776,-25.411071248874993
6.239068247833031,3.9437713193328934,1.336867295445856,-4.175122974112471,11.537069956199113,-26.98381702145199
6.27850596102636,4.059142018894884,1.2951160657047314,-4.4449611443269905,13.432503955954155,-28.90107489414267
6.319097381215308,4.193467058454426,1.2506664542614614,-4.733971893268417,15.591612215779662,-31.219121897141825
6.361032051799853,4.3493831806122225,1.2033267353287773,-5.046163112239835,18.049092649049417,-33.99250353381614
6.4045258836059755,4.529874107102716,1.1528651042063789,-5.386088147577997,20.826681368159694,-37.258908639381474
6.449824624677003,4.738140920784313,1.099004222730599,-5.758677233971811,23.907891671614607,-41.00502901738834
6.497206033884846,4.977219837500459,1.0414174503908809,-6.1687275241456945,27.18523786618473,-45.09438506135015
6.546978232259851,5.249072216162307,0.979730175149424,-6.619671374759196,30.356371184995762,-49.12418857047624
6.599468954421473,5.552635928012264,0.913533461401832,-7.110913260463959,32.73859021519596,-52.16827808374689
6.654995313701596,5.880021830164224,0.8424243287971924,-7.6325960413014275,33.00101528513926,-52.40413244297424
6.713795532003238,6.210031983015616,0.7660983683841781,-8.15663736573117,28.985185570891606,-46.86047130765554
6.775895851833394,6.499883838724532,0.6845319947268664,-8.625242078807725,18.238950444084956,-32.155624246102974
6.840894690220639,6.682273343165382,0.5982795739387892,-8.946798321268755,0.19766480284681692,-7.528149679348869
6.907717423652294,6.68424999119385,0.5088115907261016,-9.022079818062243,-20.96164405983938,21.20624865126035
6.974559923564232,6.474633550595456,0.41859079254547915,-8.81001733154964,-37.71089667764232,43.62712916712539
7.039306259070187,6.097524583819033,0.33049061922998274,-8.373746039878386,-45.69479282300906,53.789026341997335
7.100281504908378,5.6405766555889425,0.2467531588311989,-7.835855776458413,-46.369875427902286,53.814718646966895
7.156687271464268,5.176877901309919,0.16839460106661475,-7.297708589988744,-43.321057473256,48.71786472224057
7.208456050477367,4.743667326577359,0.0954175151667273,-6.810529942766339,-39.1452610854419,42.09173670828628
7.25589272374314,4.3522147157229405,0.027312215739063922,-6.389612575683476,-35.07606040025364,35.62332182037399
7.29941487090037,4.001454111720404,-0.03658391001777084,-6.033379357479736,-31.543664737327305,29.88783702928727
7.339429412017574,3.686017464347131,-0.0969177035925682,-5.734500987186863,-28.62557050967378,24.97778051114344
7.376289586661045,3.399761759250393,-0.15426271346443682,-5.484723182075428,-26.271847912498245,20.814593711705573
7.410287204253549,3.1370432801254107,-0.2091099452851911,-5.276577244958372,-24.398870159384934,17.277125477037174
7.441657637054803,2.893054578531561,-0.26187571773477486,-5.103805990188,-22.92374588997124,14.248211292670662
7.470588182840118,2.6638171196318488,-0.31291377763665484,-4.961323877261294,-21.77478424598198,11.628470111011326
7.497226354036437,2.446069277172029,-0.36252701640926777,-4.845039176151181,-20.893000939271637,9.338020722689734
7.521687046808157,2.2371392677793125,-0.41097740817077955,-4.751658968924283,-20.23064986529235,7.314299438195143
7.5440584394859505,2.034832769126389,-0.4584939978600224,-4.678515974542331,-19.74905107197306,5.509042562445287
7.564406767177214,1.8373422584066583,-0.5052791576054457,-4.623425548917878,-19.41651157684142,3.88547998461594
7.582780189761281,1.6431771426382442,-0.5515134130946245,-4.584570749071719,-19.206569111294172,2.4160177248108914
7.599211961187663,1.4511114515253025,-0.5973591205853417,-4.56041057182361,-19.096583813761704,1.0804116199444105
7.613723075702916,1.2601456133876854,-0.6429632263035778,-4.549606455624166,-19.066638928736285,-0.13565112424339462
7.626324531836793,1.0694792241003226,-0.6884592908598195,-4.550962966866599,-19.098700568011125,-1.2416609925192963
7.637019324077796,0.8784922184202113,-0.7339689205284855,-4.563379576791792,-19.17599358099142,-2.2431760185566216
7.645804246261998,0.6867322826102971,-0.7796027162964034,-4.5858113369773585,-19.282561901612862,-3.142568296824838
7.652671569088102,0.49390666359416846,-0.8254608296661771,-4.617237019945607,-19.402992184221596,-3.939688398155444
7.657610635724043,0.2998767417519525,-0.8716331998656331,-4.656633903927162,-19.522287168176693,-4.6324952794982535
7.660609403141563,0.10465387007018556,-0.9181995389049048,-4.7029588567221445,-19.62587928808493,-5.217686134785228
7.661655941842264,-0.09160492281066376,-0.9652291274721263,-4.7551357180699965,-19.699775304542417,-5.691347175712919
7.660739892614157,-0.2886026758560879,-1.0127804846528263,-4.812049189827126,-19.73081918599081,-6.049631921274563
7.657853865855596,-0.485910867715996,-1.0609009765510975,-4.872545509039871,-19.70705349811292,-6.2894581161624465
7.652994757178436,-0.6829814026971253,-1.1096264316414963,-4.935440090201496,-19.61815003549336,-6.409198557405963
7.646164943151465,-0.8791629030520589,-1.1589808325435114,-4.999532075775556,-19.455869879021673,-6.409326407950946
7.637373314120945,-1.0737216018422757,-1.2089761533012668,-5.063625339855065,-19.214503629170938,-6.292964289104734
7.626636098102522,-1.2658666381339851,-1.2596124066998176,-5.1265549827461125,-18.891236805139492,-6.066281231037877
7.613977431721183,-1.45477900618538,-1.3108779565272788,-5.187217795056491,-18.486385805192093,-5.738684832459814
7.599429641659329,-1.6396428642373009,-1.3627501344778437,-5.24460464338109,-18.003458159772595,-5.3227690890275055
7.5830332130169555,-1.8196774458350269,-1.4151961809116544,-5.297832334271365,-17.449007423879685,-4.834000826396218
7.564836438558605,-1.9941675200738238,-1.4681745042543681,-5.346172342535327,-16.832276411577876,-4.290156815016242
7.544894763357867,-2.1624902841896025,-1.5216362276797215,-5.3890739106854895,-16.164649156124913,-3.71055471419634
7.5232698605159705,-2.3241367757508518,-1.5755269667865763,-5.426179457827453,-15.458957291920013,-3.1151481355496062
7.500028492758462,-2.478726348670052,-1.629788761364851,-5.457330939182949,-14.728705644657794,-2.5235737897941775
7.475241229271761,-2.62601340511663,-1.6843620707566804,-5.482566677080891,-13.987290962238884,-1.9542431833909983
7.448981095220595,-2.765886314739019,-1.7391877375274893,-5.5021091089148015,-13.24728536615374,-1.4235618630561553
7.421322232073205,-2.8983591684005563,-1.7942088286166373,-5.516344727545363,-12.519843255967515,-0.9453380730686809
7.392338640389199,-3.0235576009602316,-1.849372275892091,-5.5257981082760494,-11.814270240751034,-0.5304145715437846
7.362103064379597,-3.1417003033677418,-1.9046302569748514,-5.531102253991487,-11.137769572119707,-0.18652792176317232
7.3306860613459195,-3.253077999088939,-1.9599412795147664,-5.532967533209119,-10.495359861700607,0.0816260041382549
7.29815528135503,-3.358031597705945,-2.0152709548468577,-5.532151273167736,-9.88994088830175,0.27215978407296026
7.264574965377971,-3.4569310065889627,-2.070592467578535,-5.529429675327006,-9.322473759630137,0.3856443985614856
7.230005655312081,-3.5501557441852643,-2.125886764331805,-5.525573231341391,-8.792237717451535,0.42469156454414725
7.194504097870229,-3.6380781213597797,-2.1811424966452186,-5.52132631569595,-8.297127384033034,0.3935135777957246
7.1581233166566305,-3.7210493952001102,-2.236355759802178,-5.517391179917992,-7.83395952119592,0.2974968613688504
7.120912822704629,-3.7993889904120692,-2.2915296716013582,-5.514416211304304,-7.398765586902943,0.14281497333848964
7.082918932800509,-3.873376646281099,-2.346673833714401,-5.512988061570919,-6.987053979136085,-0.06390328408387463
7.044185166337698,-3.9432471860724596,-2.4018037143301103,-5.513627094411758,-6.594032765584831,-0.31584361235075803
7.004752694476974,-4.009187513728308,-2.4569399852742277,-5.516785530535266,-6.214789307247675,-0.6062133251071226
6.964660819339691,-4.0713354068007845,-2.5121078405795805,-5.5228476637863375,-5.844427294955937,-0.9283897565661048
6.923947465271683,-4.129779679750344,-2.567336317217444,-5.532131561351998,-5.478164410829118,-1.2760164888810785
6.882649668474179,-4.184561323858635,-2.622657632830964,-5.5448917262408095,-5.111395340487955,-1.6430550477227575
6.840804055235592,-4.235675277263515,-2.678106550093372,-5.5613222767180375,-4.739725495814645,-2.023799833141682
6.798447302462957,-4.283072532221661,-2.7337197728605522,-5.581560275049454,-4.358980856920247,-2.412863556542401
6.75561657714074,-4.326662340790864,-2.7895353756110466,-5.605688910614878,-3.9651990600788296,-2.8051396683672025
6.712349953732832,-4.366314331391652,-2.845592264717195,-5.633740307298551,-3.554606445575401,-3.1957474272263395
6.668686810418915,-4.401860395847406,-2.9019296677901805,-5.665697781570814,-3.1235853807615426,-3.579964547464298
6.624668206460441,-4.433096249655021,-2.9585866456058887,-5.701497427045457,-2.6686358859681554,-3.95315187531915
6.580337243963891,-4.459782608514702,-3.0156016198763433,-5.741028945798648,-2.1863354714805294,-4.310674344041615
6.535739417878744,-4.481645963229508,-3.0730119093343298,-5.784135689239064,-1.6733011675391183,-4.64782257056734
6.490922958246449,-4.498378974904899,-3.1308532662267203,-5.830613914944737,-1.1261579937815909,-4.9597398774327734
6.4459391684974,-4.509640554842715,-3.189159405376168,-5.880211313719065,-0.541518540840468,-5.241360224231543
6.400842762948973,-4.515055740251119,-3.2479615185133586,-5.93262491596138,0.08402113267561438,-5.487363454208072
6.355692205546462,-4.514215528924363,-3.3072877676729724,-5.987498550503461,0.7538635417544332,-5.6921553074456614
6.310550050257218,-4.506676893506818,-3.367162753178007,-6.0444201035779175,1.4713635873861337,-5.84988067777708
6.26548328132215,-4.491963257632957,-3.427606954213786,-6.1029189103556885,2.2397478536678515,-5.9544793901781405
6.220563648745821,-4.469565779096278,-3.488636143317343,-6.16246370425747,3.0619935220141405,-5.999794072223925
6.175867990954858,-4.438945843876137,-3.5502607803599178,-6.222461644979709,3.940662269742288,-5.9797391382804514
6.1314785325160965,-4.399539221178714,-3.612485396809715,-6.282259036362514,4.877686874778532,-5.88853809307103
6.087483140304309,-4.350762352430929,-3.67530798717334,-6.341144417293224,5.874112004672277,-5.721032872616441
6.04397551678,-4.292021232384206,-3.738719431346272,-6.398354746019388,6.9297960139332515,-5.47306342036011
6.001055304456158,-4.222723272244874,-3.802702978806466,-6.453085380222989,8.043087497473913,-5.141907973857416
5.958828071733709,-4.142292397270134,-3.867233832608696,-6.504504459961563,9.210498514801962,-4.726764781083842
5.9174051477610075,-4.050187412122114,-3.9322788772083115,-6.551772107772401,10.426405031529029,-4.229244848404679
5.876903273639786,-3.945923361806824,-3.9977965982860355,-6.594064556256448,11.682812929455674,-3.653834151625282
5.837444040021718,-3.8290952325122674,-4.0637372438486,-6.630602897772701,12.969233144607433,-3.0082744804925743
5.799153087696595,-3.699402901066193,-4.1300432728263266,-6.660685642577627,14.272710063162714,-2.3038071918778362
5.762159058685933,-3.5566758004345655,-4.196650129252103,-6.683723714496405,15.578041332655879,-1.5552261622403818
5.726592300681587,-3.4008953871080068,-4.263487366397067,-6.699275976118809,16.868213539508517,-0.7806971489478616
5.692583346810507,-3.2322132517129214,-4.330480126158255,-6.707082947608288,18.12505692066736,-0.0013212692642287534
5.660261214293378,-3.0509626825062477,-4.397550955634338,-6.70709616030093,19.330095397858134,0.7595509224067178
5.6297515874683155,-2.8576617285276664,-4.464621917237347,-6.699500651076862,20.465539626118108,1.4772148076422558
5.601174970183039,-2.6530063322664854,-4.531616923748115,-6.684728503000439,21.51534569435495,2.1266438903033227
5.5746449068603745,-2.437852875322936,-4.598464208778119,-6.6634620640974065,22.466246137148147,2.6835605862037544
5.550266378107145,-2.2131904139514544,-4.665098829419093,-6.636626458235369,23.30865735743951,3.12543454339983
5.528134473967631,-1.9801038403770592,-4.731465094001447,-6.605372112801371,24.037380219741504,3.432300511560052
5.50833343556386,-1.7397300381796441,-4.79751881512946,-6.57104910768577,24.65203697262846,3.5873066259879245
5.490936135182063,-1.4932096684533596,-4.863229306206318,-6.535176041425891,25.157223250122257,3.5769348131738927
5.47600403849753,-1.241637435952137,-4.928581066620577,-6.499406693294152,25.562392222685894,3.390871475607367
5.463587664138009,-0.986013513725278,-4.993575133553518,-6.465497978538079,25.881522355221694,3.021541351340874
5.453727529000756,-0.7271982901730611,-5.058230113338899,-6.4352825650246706,26.13264549087724,2.4633440472095898
5.446455546099025,-0.4658718352642887,-5.1225829389891455,-6.410649124552575,26.337325494529278,1.7116470880931198
5.441796827746382,-0.20249858031899592,-5.186689430234671,-6.3935326536716435,26.520179633237667,0.7615901697716098
5.439771841943192,0.06270321601338075,-5.250624756771388,-6.3859167519739275,26.708527605696197,-0.3932559066046673
5.440398874103326,0.3297884920703427,-5.314483924291127,-6.389849311039974,26.932240032111793,-1.7623519456383616
5.4436967590240295,0.5991108923914606,-5.378382417401527,-6.407472830496357,27.22384220043991,-3.3597745510202484
5.449687867947944,0.8713493143958597,-5.4424571457064905,-6.44107057600656,27.618910725906293,-5.2059423455892775
5.458401361091902,1.1475384216549227,-5.5068678514665566,-6.493129999462452,28.156776909472214,-7.32951267217663
5.469876745308452,1.429106190749645,-5.571799151461181,-6.566425126184218,28.88150891482551,-9.769453623076606
5.484167807215948,1.7179212798979,-5.637463402723023,-6.6641196624149845,29.84305634807841,-12.577201563063028
5.501347020014927,2.016351843378684,-5.704104599347173,-6.789891678045615,31.09824032871424,-15.818561160526203
5.521510538448713,2.3273342466658264,-5.772003516127629,-6.948077289650877,32.71081623708937,-19.574398436799918
5.5447838809153716,2.65444240903672,-5.841484289024138,-7.143821274018876,34.74881024401717,-23.937784370796614
5.571328305005739,3.0019305114768917,-5.912922501764327,-7.383199117726842,37.275051799919126,-29.00211852718309
5.601347610120508,3.374681029476083,-5.9867544929415955,-7.673220302998673,40.32186457604337,-34.827898568139524
5.635094420415269,3.777899675236517,-6.063486695971582,-8.021499288680069,43.8305321648031,-41.36137733702862
5.672873417167635,4.216204996884548,-6.143701688858383,-8.435113062050355,47.51667952720633,-48.25097211378042
5.71503546713648,4.691371792156611,-6.2280528194788864,-8.91762278318816,50.595782736288015,-54.46883810928866
5.761949185058046,5.197329619519491,-6.317229047310768,-9.462311164281045,51.30999537953722,-57.652240989772245
5.813922481253241,5.710429573314863,-6.411852158953579,-10.038833574178767,46.42955123646491,-53.397983790709084
5.8710267769863895,6.174725085679512,-6.512240494695367,-10.572813412085857,31.789748996602924,-35.975446859352616
5.932774027843185,6.492622575645541,-6.617968628816225,-10.932567880679382,6.033825801749605,-3.4719130284945283
5.99770025359964,6.552960833663037,-6.727294307623019,-10.967287010964327,-23.742947123120924,34.43846129854796
6.063229861936271,6.315531362431828,-6.836967177732663,-10.622902397978848,-45.07626104769406,60.81079317974738
6.126385175560589,5.8647687519548874,-6.9431962017124516,-10.014794466181375,-52.81766865173388,68.86587080758872
6.185032863080138,5.336592065437548,-7.043344146374265,-9.326135758105487,-51.29585261352133,64.71889208164652
