th1 (rad),w1 (rad/s),th2 (rad),w2 (rad/s)
2.573846432831618,3.057144943070044,3.368679963308252,1.8309223866526045
2.6044178822623185,3.0238873769398804,3.386989187174778,1.8095721201010553
2.6346567560317173,2.99157982099532,3.405084908375789,1.791815651576396
2.6645725542416705,2.9603433698334434,3.4230030648915526,1.7774273260191678
2.694175987940005,2.9302945071327846,3.440777338151744,1.7661811765585071
2.7234789330113327,2.9015455891732707,3.458439149917329,1.7578516534072484
2.7524943889030653,2.8742052469558454,3.4760176664514013,1.7522142793219848
2.7812364413726236,2.848378717684003,3.4935398092446213,1.7490462308573977
2.809720228549464,2.824168116587983,3.5110302715531954,1.7481268443943243
2.8379619097153435,2.801672659911967,3.5285115399971385,1.7492380459059236
2.865978636314463,2.780988849396929,3.5460039204561977,1.752164703664869
2.8937885248084325,2.7622106278335066,3.5635255674928463,1.7566949035824548
2.9214106310867676,2.745429514290051,3.581092516528671,1.76262014758518
2.948864926229668,2.7307347265010815,3.598718718004523,1.7697354763403073
2.976172273494679,2.718213296688596,3.616416072767926,1.7778395186966547
3.0033544064615647,2.7079501858361357,3.6341944679548925,1.7867344713667954
3.030433908319926,2.700028400188624,3.6520618126685607,1.7962260136021622
3.057434192321812,2.6945291125456765,3.670024072804582,1.8061231628719863
3.0843794834472686,2.6915317897768203,3.6880853044333017,1.8162380788312968
3.111294801345037,2.6911143269257694,3.706247685221615,1.8263858241479067
3.1382059446142945,2.6933531872860668,3.7245115434630938,1.8363840920657004
3.165139476487155,2.6983235469065665,3.742875384383751,1.8460529119419424
3.1921227119562205,2.706099441092569,3.7613359135031703,1.8552143454590635
3.2191837063671462,2.716753909562242,3.779888056957761,1.8636921878456443
3.2463512454627685,2.730359135938034,3.7985249788362174,1.87131169033716
3.273654836822149,2.7469865761219916,3.817238095739589,1.87789932237696
3.301124702583369,2.766707068726468,3.8360170889633585,1.8832825948389635
3.3287917732706336,2.789590918990536,3.854849914911748,1.8872899690102485
3.3566876824605387,2.815707945365667,3.8737228146018503,1.8897508803999148
3.3848447619141955,2.8451274750311515,3.8926203234058496,1.890495911871678
3.413296036664507,2.877918270796248,3.9115252825245665,1.8893571574025871
3.4420752193724695,2.914148366920341,3.9304188540985923,1.8861688262626468
3.471216703041673,2.9538847850524,3.949280542361219,1.8807681479457872
3.500755550892197,2.9971930934349373,3.968088223840677,1.8729966511526095
3.5307274818265464,3.0441367623820312,3.986818190352203,1.8627019059368926
3.561168849450367,3.0947762564607935,4.005445209411572,1.8497398371647356
3.5921166120149746,3.149167788445996,4.023942607783219,1.8339777399846142
3.6236082898994346,3.207361641748489,4.042282385183065,1.8152981541332855
3.6556819063169197,3.2693999466423525,4.060435366724398,1.793603783243034
3.688375905783343,3.335313771674197,4.078371404556829,1.7688236767558803
3.721729043500085,3.4051193663261135,4.096059641324388,1.7409209232376177
3.7557802371633464,3.4788133667377594,4.113468850556764,1.7099021305229796
3.790568370830724,3.5563667573633007,4.130567871861993,1.6758289830021629
3.826132038404357,3.6377173748648617,4.147326161692015,1.6388321581025322
3.8625092121530056,3.7227607570891115,4.16371448327304,1.59912783563648
3.8997368197238966,3.8113391951472115,4.179705761629405,1.5570369211948492
3.937850211675369,3.903228961259029,4.1952761308413535,1.5130068965183323
3.976882501287959,3.998125884668188,4.2104061998065365,1.467635867690777
4.01686376013464,4.095629759661567,4.225082558483444,1.4216978666311437
4.057820057731256,4.1952285145910775,4.239299537149756,1.3761677436242532
4.099772342877166,4.296283649829375,4.2530612145859985,1.3322430710505122
4.14273517937546,4.39801912530051,4.266383645296504,1.2913594274745233
4.186715370628465,4.499516535920963,4.279297239571249,1.2551944168104494
4.231710535987675,4.5997198565157325,4.2918491837393535,1.2256551060705423
4.277707734552832,4.69745297714838,4.304105734800059,1.2048436785851644
4.324682264324316,4.791452357750642,4.316154171585911,1.194997495735488
4.372596787901823,4.880415167223477,4.328104146543266,1.1984028066752905
4.421400939574057,4.9630602737366765,4.340088174610019,1.2172859957269093
4.471031542311424,5.038195914957753,4.352261034567288,1.2536917785908592
4.5214135014610015,5.104784786948352,4.364797952353197,1.3093626757602284
4.572461349330485,5.161995880416221,4.377891579110798,1.3856365456745394
4.624081308134647,5.209233609835405,4.391747944567544,1.483377489052669
4.676173644233001,5.24613871001697,4.40658171945807,1.602949836880782
4.72863503133317,5.2725610008369745,4.422611217826878,1.7442366444247706
4.78136064134154,5.288509679183873,4.4400535842711255,1.9066957230209995
4.8342457381333785,5.2940905733633095,4.459120541501336,2.089440331417586
4.887186643867012,5.28944089074345,4.480014944815512,2.291329646959141
4.940081052774446,5.274670595586434,4.502928241285103,2.5110558729877526
4.992827758730311,5.2498166490561085,4.52803880001498,2.7472189435761263
5.0453259252208715,5.21481310573021,4.555510989450742,2.9983845343988813
5.097474056278173,5.16947737943674,4.585494834794731,3.2631251243743016
5.149168830072541,5.113511272341648,4.618126086038474,3.5400465029495187
5.200303942795958,5.046514600147216,4.653526551067969,3.8278033141626695
5.25076908879743,4.968009215479927,4.691804584209596,4.1251072503041195
5.300449180952229,4.877471657396697,4.7330556567126365,4.430730730529795
5.349223897526196,4.774373324853995,4.777362964017934,4.743507636351087
5.396967630774736,4.658227873320508,4.824798040381445,5.062331115659957
5.443549909507941,4.528646449105917,4.875421351538045,5.386146675303961
5.488836373999,4.385402458171435,4.929282818291084,5.713936730072889
5.532690398580714,4.228508902260882,4.986422185591813,6.0446903809646155
5.574975487603322,4.058312974364718,5.04686908940146,6.377349381531733
5.615558617346969,3.875614547138874,5.110642583216777,6.710718055764504
5.654314762818358,3.6818170838647997,5.177749763774422,7.043321725732806
5.6911329336570065,3.4791204015766652,5.24818298103175,7.373196130988793
5.725924137672773,3.2707624747281416,5.321914942341638,7.697592052872155
5.7586317624200545,3.0613079411842437,5.39889086287036,8.012590243387963
5.789244841831897,2.856957389809072,5.479016765304239,8.312650810138896
5.817814415729988,2.6658055289571845,5.562143273405628,8.59017998256303
5.844472471019559,2.497904323534329,5.648045073231258,8.835291808687149
5.869451514254902,2.364906574421304,5.73639799131813,9.036051958612624
5.893100579999116,2.279039362585281,5.826758510904257,9.17953435853746
5.915890973624968,2.2512986171869973,5.918553854489631,9.253850235722025
5.9384039597968385,2.289148410558285,6.011092356846851,9.250812902845325
5.961295443902421,2.39451692053054,6.103600485875305,9.16825427026562
5.9852406131077265,2.5630687486250663,6.195283028577961,9.010779229640493
6.010871300593977,2.7852209079967594,6.285390820874366,8.788415722355309
6.038723509673945,3.0484208852079995,6.373274978097919,8.513825723001037
6.069207718526025,3.3396166039189734,6.45841323532793,8.199444997389762
6.102603884565215,3.647044247699134,6.540407685301828,7.855604427997972
6.139074327042207,3.9610767260331565,6.618963729581807,7.4898697165431365
6.178685094302538,4.2743462510832115,6.693862426747239,7.107255472104557
6.22142855681337,4.581485276319154,6.764934981468285,6.710842392395353
6.267243409576562,4.878749126295795,6.8320434053922385,6.3024599035978195
6.31603090083952,5.163657903471434,6.895068004428217,5.883270284777742
6.3676674798742345,5.434703672161833,6.953900707275994,5.454208769959057
6.422014516595853,5.6911211823545145,7.0084427949755845,5.016292424076133
6.478925728419398,5.9327020136563835,7.058605719216346,4.570831563598121
6.538252748555962,6.159628228266895,7.104314034852328,4.119581365223314
6.599849030838631,6.372303355547106,7.1455098485045605,3.6648694254335163
6.663572064394102,6.571161620050186,7.182158542758896,3.209731900201869
6.7292836805946035,6.756439817200521,7.214255861760915,2.7580867426063973
6.796848078766609,6.927901555615003,7.2418367291869785,2.3149647312136064
6.866127094322759,7.0845145460160746,7.264986376499115,1.8868016342420166
6.93697223978292,7.224104685542082,7.283854392841535,1.4817587971510149
7.0092132866383405,7.343053675972128,7.298671980813046,1.1099740813203147
7.082643823398062,7.436172580025004,7.309771721626249,0.7835478319967392
7.1570055491983116,7.496953673755965,7.317607199946217,0.51596809084101
7.231975085935871,7.518414845311408,7.322766880854627,0.32066800043124
7.307159234388985,7.494599255179022,7.325973560858939,0.20863965065264312
7.382105226940776,7.422417451692355,7.328059957365466,0.1855878704597946
7.456329401457699,7.303082415291602,7.329915836070064,0.2497525073963428
7.529360225610615,7.142316427534403,7.332413361144027,0.39163131828884334
7.600783389885959,6.949088836357922,7.336329674326916,0.5959733827793792
7.670274278249538,6.73350534459485,7.34228940815471,0.8451227718759005
7.737609331695487,6.504852267810603,7.3507406358734695,1.1221960060998915
7.802657854373593,6.270453581627362,7.361962595934468,1.4130643630071085
7.865362390189866,6.035392740734202,7.376093239564539,1.707011736264809
7.9257163175972085,5.802789896383038,7.393163356927187,1.9964990357319872
7.983744216561039,5.574292699736937,7.413128347284506,2.2765411858170483
8.039487143558409,5.350562370895507,7.435893759142677,2.544035103442058
8.092992767267365,5.131663146709135,7.461334110177098,2.797192934764645
8.144309398734457,4.91733971659333,7.489306039524744,3.0351182706932165
8.19348279590039,4.707199659527097,7.519657222231676,3.257510255321412
8.240554792495661,4.5008255390654925,7.552232324784891,3.464465151250376
8.285563047886317,4.297838700340034,7.586876976297394,3.6563461096112757
8.328541434889717,4.097931490040447,7.623440437393507,3.833698230823316
8.369520749790121,3.9008796206251404,7.66177741970174,3.99719262485056
8.408529545996373,3.7065425642056704,7.701749345950246,4.147588518080383
8.44559497163843,3.51485717448581,7.743225231131049,4.285706309263972
8.480743543383289,3.3258279389747436,7.786082294223689,4.412407098244576
8.514001822773036,3.1395160914608367,7.830206365206135,4.528575922614089
8.545396983687644,2.9560290573304284,7.875492124432276,4.635107016178845
8.574957274260948,2.7755112153001433,7.921843194594065,4.732890056218189
8.602712386413948,2.598136641218726,7.969172095156247,4.822796740300778
8.628693752826136,2.424104289041842,8.017400062559254,4.905667229952334
8.652934795716554,2.253635917621993,8.066456734858777,4.982296090784078
8.675471154892774,2.0869769568490284,8.116279695766618,5.053417403056662
8.696340924461264,1.9244003933087273,8.166813869797185,5.1196887621848575
8.715584928394351,1.7662136120663805,8.218010757419034,5.181673984877209
8.733247064515016,1.6127679197601732,8.269827497267805,5.239824538570977
8.749374743712618,1.4644701511534246,8.322225742653515,5.294460081740633
8.764019445224152,1.3217952820540904,8.375170343470922,5.345749103851832
8.777237398044694,1.1852983056054693,8.42862783450944,5.39369153162631
8.789090381100749,1.0556227896930082,8.482564749825704,5.43810631116354
8.79964660899768,0.9335026244471236,8.53694581293734,5.478628251143752
8.808981635242151,0.8197527414500205,8.591732095448778,5.514719490030586
8.817179162656652,0.7152444757905758,8.646879290349084,5.545701245959538
8.824331607414559,0.6208623285578573,8.702336302808678,5.570810233616045
8.830540230700137,0.5374417009347334,8.758044405144839,5.589280552989444
8.835914647709485,0.4656918088167903,8.813937210674734,5.600445805716504
8.840571565797653,0.4061136538949536,8.869941668731899,5.60384870632657
8.844632702336602,0.35892773803563927,8.925980155795164,5.599339032194037
8.848221979716959,0.3240276783486623,8.981973546117105,5.587138721542765
8.851462256500445,0.3009722127911033,9.037844933332533,5.567857698100787
8.854471978628357,0.2890196068887482,9.09352351031354,5.542455142751272
8.857362174697245,0.2871980423368396,9.148948061741052,5.5121546240009
8.860234155120613,0.29439728125843284,9.204069607981062,5.478332291721448
8.863178127933198,0.3094637908188559,9.258852930898277,5.442401237839683
8.866272765841387,0.3312839735897398,9.313276943276673,5.405711692605418
8.869585605577285,0.3588461445459006,9.367334060202728,5.3694787314640635
8.873174067022743,0.39127852897018167,9.421028847517368,5.334740479848799
8.877086852312445,0.4278656399746191,9.474376252315857,5.302343279197616
8.881365508712191,0.4680481038481779,9.527399685107833,5.272946936448519
8.886045989750674,0.5114116172754596,9.580129154472317,5.247042579606903
8.891160105923428,0.5576700171655786,9.632599580268385,5.224976719390833
8.896736806095083,0.6066461858009279,9.684849347462293,5.20697685287389
8.902803267953091,0.6582532235388253,9.736919115991032,5.1931756623397725
8.90938580018848,0.7124772585245305,9.78885087261443,5.1836322385986575
8.916510572773724,0.7693625009963175,9.840687195000417,5.17834971599917
8.924204197783688,0.8289986617530491,9.892470692160408,5.1772892966308595
8.932494184401218,0.8915105759704619,9.944243585126717,5.180380957455039
8.941409290160923,0.9570497382924983,9.996047394701268,5.1875312684441255
8.950979787543847,1.0257874087949572,10.047922707385709,5.198628775141795
8.961237661631797,1.0979089532489936,10.099908995137127,5.213547366293682
8.972216751164288,1.1736091098092947,10.152044468800064,5.2321479887950435
8.983952842262381,1.253087912599777,10.204365948688014,5.2542790072157155
8.99648372138838,1.3365470423018162,10.256908738760172,5.279775443814551
9.009849191811398,1.4241864107437934,10.309706493198318,5.308457282066858
9.024091055918836,1.5162008192197491,10.362791066018987,5.340126974060783
9.039253064111033,1.612776558864142,10.416192335759595,5.374566259854563
9.055380829699676,1.714087846677288,10.46993799835814,5.411532384505012
9.072521708166448,1.820293013881933,10.52405332220319,5.450753785234594
9.090724638305268,1.931530385460449,10.578560860055537,5.491925316365011
9.110039942159872,2.0479138122157288,10.633480113219187,5.5347030825637
9.13051908028203,2.169527840644469,10.688827144044824,5.578698961058478
9.152214358688473,2.296422532249151,10.744614133655409,5.6234749102178485
9.175178584010965,2.428607973322225,10.800848882757588,5.668537184623528
9.199464663744187,2.5660485490437677,10.857534254603824,5.713330604621328
9.225125149234625,2.708657091832907,10.914667560650036,5.757233060137456
9.252211720152953,2.8562890526392244,10.97223989125141,5.79955046265501
9.280774610679346,3.008736883993085,11.03023539587796,5.8395123934998745
9.310861979519277,3.1657248632342903,11.088630519812959,5.876268728276501
9.34251922815162,3.3269046208508555,11.147393207095725,5.908887543221909
9.375788274360128,3.4918516692094985,11.206482082527943,5.936354625885134
9.410706791052222,3.660063247790749,11.265845628786794,5.957574916324286
9.44730742353013,3.8309578090837495,11.325421377950036,5.9713761927363995
9.485617001620968,4.003876461840834,11.3851351398774,5.976515284713243
9.525655766239376,4.178086663827878,11.444900292724533,5.971687047050005
9.567436632877655,4.352788414508914,11.504617163195034,5.955536257736838
9.610964517022744,4.527123141149971,11.564172525772403,5.9266725176174795
9.656235748434243,4.700185403382086,11.623439250948577,5.883688129693957
9.703237602468064,4.871037466505827,11.682276132245516,5.825178827131833
9.751947977133122,5.038726718360989,11.740527920516834,5.749767103746047
9.802335244316732,5.202305833061139,11.798025591554294,5.6561277797486476
9.854358302647343,5.360855519393314,11.854586869351781,5.543015305586343
9.907966857841275,5.513509630468811,11.910017022407645,5.409292160046073
9.963101954145964,5.659482348297822,11.964109944008106,5.253957523975302
10.019696777628942,5.798097083160036,12.016649519247858,5.076175195457143
10.077677748460543,5.928816633449406,12.06741127120243,4.875299447457662
10.136965914795036,6.0512740319616345,12.116164265677005,4.650897216491124
10.197478655114653,6.165303364468114,12.162673237841917,4.402764669329494
10.259131688759334,6.270969706771094,12.206700884535211,4.13093586419996
10.321841385827044,6.368597227220056,12.24801024317721,3.8356809639998715
10.385527358099244,6.458794500733009,12.286367052817209,3.5174913448948852
10.450115303106575,6.542476246263898,12.321541966266157,3.17704904234333
10.515540065569214,6.620881098558116,12.35331245668959,2.8151783265604875
10.581748876554794,6.695585704128853,12.381464239955195,2.432777782919372
10.648704733596082,6.768516403518159,12.405792017784389,2.0307319959201715
10.716389897631263,6.841960997182841,12.42609933774359,1.6098026252118336
10.784809507603091,6.918584520439397,12.442197363995708,1.1704990890960083
10.853995352807486,7.00145447379536,12.453902354886669,0.7129290016975283
10.924009897545439,7.094082444523872,12.461031644903644,0.23662779641757148
10.994950721990678,7.200490332606971,12.46339792286782,-0.25963430862860165
11.066955625316748,7.325310080759155,12.460801579781535,-0.778071109939479
11.140208726124339,7.4739249247239,12.45302086868214,-1.322127673460821
11.214947975371578,7.65265511520075,12.439799591947532,-1.8967524668341464
11.291474526523585,7.8689750199764275,12.420832067279191,-2.5086684471196348
11.370164276723349,8.131704232565513,12.395745382807995,-3.1665537226116887
11.451481319049003,8.450999869881738,12.364079845581879,-3.8808766872239606
11.53599131774782,8.837687342446772,12.325271078709639,-4.662716749431987
11.624368191172287,9.300773157326088,12.278643911215319,-5.519918194627125
11.717375922745548,9.840488556256213,12.223444729269048,-6.446819044490244
11.81578080830811,10.431861194398788,12.158976538824145,-7.4005167692297045
11.920099420252098,10.994411157974849,12.084971371131848,-8.257621626343607
12.030043531831847,11.365308641699079,12.002395154868411,-8.776504299974993
12.143696618248837,11.35611300064335,11.91463011186866,-8.679217326761758
12.25725774825527,10.943657890047767,11.827837938601043,-7.925261567122318
12.366694327155749,10.334100862252898,11.74858532292982,-6.806445820213057
12.470035335778277,9.741037336334141,11.68052086472769,-5.632745496097003
12.56744570914162,9.252852274180514,11.62419340976672,-4.539359709446943
12.659974231883425,8.878001321970846,11.578799812672251,-3.546964768770219
12.748754245103132,8.59975813770675,11.54333016498455,-2.6387241527222045
12.8347518264802,8.398259520387919,11.516942923457327,-1.7923263991384828
12.91873442168408,8.25617749383694,11.499019659465942,-0.988927099962231
13.00129619662245,8.159252195361507,11.48913038846632,-0.214618447548671
13.082888718576065,8.095621392664304,11.486984203990833,0.5400042328158654
13.163844932502707,8.055062195283199,11.492384246318991,1.280573760934582
13.244395554455538,8.028405548924626,11.505189983928338,2.0096030434575622
13.324679609944784,8.007152472506997,11.525286014362914,2.7270223035572885
13.404751134669855,7.983266901084998,11.552556237398488,3.430644598024939
13.484583803680705,7.949111349135098,11.586862683378737,4.1166055644658925
13.564074917172055,7.8974918577621676,11.628028739023396,4.779806345778544
13.643049835749677,7.821779508345203,11.67582680248118,5.414368827766619
13.721267630833129,7.716076812262134,11.729970490758847,6.014095980653705
13.79842839895575,7.57539968261683,11.790111450565384,6.572919961896874
13.874182395781919,7.395849945160141,11.855840650184353,7.085317315632577
13.94814089523352,7.17475876277834,11.92669382334068,7.546672744266505
14.019888482861303,6.910786535044205,12.002160550783344,7.953577834450667
14.088996348211746,6.603968621187143,12.081696329127851,8.304055963944169
14.155036034423617,6.255698483525277,12.164736888767292,8.597707727654708
14.217593019258869,5.868641637658791,12.25071396604384,8.83577275649991
14.276279435635457,5.446576841080974,12.339071693608838,9.02110540963255
