th1 (rad),w1 (rad/s),th2 (rad),w2 (rad/s),a1 (rad/s^2),a2 (rad/s^2)
1.1894184912321435,-2.8835828506774583,1.8563827676340863,-2.2576321011089524,-2.6104360196276213,-12.495759243536765
1.1605826627253688,-2.9096872108737344,1.8338064466229969,-2.38258969354432,-2.094688428848016,-13.104141866233515
1.1314857906166316,-2.9306340951622145,1.8099805496875536,-2.5136311122066552,-1.5528608044216783,-13.702482165777178
1.1021794496650095,-2.9461627032064315,1.784844238565487,-2.650655933864427,-0.9840435259313532,-14.28865166085861
1.0727178226329452,-2.956003138465745,1.7583376792268428,-2.793542450473013,-0.3875161904299028,-14.860676458790559
1.043157791248288,-2.959878300370044,1.7304022547221127,-2.9421492150609185,0.23717217940962873,-15.416761146739459
1.0135590082445876,-2.957506578575948,1.7009807625715037,-3.096316826528313,0.8901108695054417,-15.955305986134675
0.983983942458828,-2.9486054698808934,1.6700175943062205,-3.25586988638966,1.5709212114696924,-16.474912384028695
0.9544978877600191,-2.9328962577661963,1.637458895442324,-3.420619010229947,2.2786332823557762,-16.974369424395114
0.9251689251823572,-2.9101099249426388,1.6032527053400245,-3.590362704473898,3.0115409563157143,-17.45261142204431
0.8960678259329308,-2.8799945153794817,1.5673490782952855,-3.764888818694341,3.767028523997822,-17.908632859795706
0.867267880779136,-2.8423242301395035,1.529700190108342,-3.9439751472922984,4.54135917994107,-18.341342513712988
0.8388446384777409,-2.796910638340093,1.490260438635419,-4.127388572429428,5.329411909230033,-18.749332901901802
0.81087553209434,-2.7436165192477926,1.4489865529111248,-4.314881901448446,6.1243486714039586,-19.13053434190373
0.7834393669018621,-2.682373032533753,1.4058377338966404,-4.506187244867483,6.917188515276026,-19.481715065439104
0.7566156365765245,-2.613201147380993,1.3607758614479655,-4.701004395521874,7.696260109460167,-19.797780813253052
0.7304836251027146,-2.5362385462863912,1.3137658174927467,-4.898982203654405,8.446500879477332,-20.07082113789913
0.7051212396398506,-2.451773537491618,1.2647759954562026,-5.099690415033396,9.148573041179823,-20.288849602279974
0.6806035042649344,-2.36028780707982,1.2137790913058686,-5.302578911056195,9.777780895779163,-20.434199517924636
0.6570006261941362,-2.2625099981220282,1.1607533021953067,-5.506920906235441,10.302811122269794,-20.48158057255657
0.6343755262129159,-2.1594818868993304,1.1056840931329524,-5.711736711961007,10.684396207620201,-20.395898369006723
0.6127807073439226,-2.0526379248231286,1.0485667260133422,-5.915695695651074,10.874144835253691,-20.13012186730699
0.5922543280956913,-1.9438964764705917,0.9894097690568315,-6.116996914324144,10.814017193227748,-19.623789320543278
0.5728153633309854,-1.8357563045383143,0.9282397999135901,-6.313234807529577,10.437254783836785,-18.803186263984696
0.5544578002856022,-1.7313837566999464,0.8651074518382943,-6.501266670169424,9.671948545692752,-17.58474468390894
0.5371439627186028,-1.6346642712430188,0.8000947851366,-6.6771141170085135,8.448656214465124,-15.883557753693857
0.5207973200061726,-1.5501777090983675,0.733323643966515,-6.8359496945454525,6.7131642676355225,-13.628559390315713
0.505295542915189,-1.4830460664220122,0.6649641470210604,-6.972235288448609,4.444076961347651,-10.78414038455584
0.49046508225096885,-1.4386052968085357,0.5952417941365743,-7.080076692294168,1.6720641540166332,-7.374290245189799
0.4760790292828835,-1.4218846552683693,0.5244410272136326,-7.153819594746066,-1.5060197519493732,-3.5006256466733725
0.4618601827301998,-1.436944852787863,0.4529028312661719,-7.1888258512128,-4.926951289766509,0.6569886927069761
0.44749073420232116,-1.486214365685528,0.38101457275404393,-7.182255964285731,-8.380864962804955,4.864828284606855
0.4326285905454659,-1.5700230153135775,0.3091920131111866,-7.1336076814396625,-11.648277636847556,8.881113082149009
0.4169283603923301,-1.686505791682053,0.23785593629678997,-7.044796550618172,-14.541906382750911,12.506919019425192
0.4000633024755096,-1.831924855509562,0.16740797079060826,-6.91972736042392,-16.937254270104184,15.621733000765266
0.381744053920414,-2.0012973982106037,0.09821069718636906,-6.763510030416267,-18.782211979283996,18.191826758122527
0.36173107993830794,-2.1891195180034435,0.030575596882206388,-6.581591762835042,-20.087035040771916,20.25418862376323
0.33983988475827354,-2.3899898684111625,-0.03524032074614403,-6.379049876597409,-20.90377927589808,21.88838932408501
0.3159399860741619,-2.599027661170143,-0.09903081951211812,-6.160165983356559,-21.30498048856869,23.189047878725603
0.28994970946246046,-2.81207746605583,-0.1606324793456837,-5.928275504569303,-21.36744666126583,24.24603501237044
0.26182893480190217,-3.0257519326684883,-0.21991523439137672,-5.685815154445598,-21.162622118412713,25.13373092841349
0.23157141547521728,-3.2373781538526156,-0.2767733859358327,-5.434477845161464,-20.75234242846189,25.907370495528138
0.19919763393669113,-3.4449015781372347,-0.33111816438744734,-5.175404140206182,-20.188011511479623,26.603694443237075
0.16474861815531877,-3.646781693252031,-0.38287220578950915,-4.909367195773811,-19.511488097144806,27.24361610627273
0.12828080122279845,-3.841896574223479,-0.43196587774724726,-4.6369310347110835,-18.756538489770854,27.83543547333695
0.08986183548056365,-4.029461959121187,-0.4783351880943581,-4.358576679977714,-17.950223433084933,28.377818761527774
0.04956721588935177,-4.2089641934520365,-0.5219209548941353,-4.0747984923624365,-17.113932215757405,28.862201489930094
0.007477573954831403,-4.38010351560961,-0.5626689398177597,-3.7861764774631355,-16.263973168691525,29.27450830024487
-0.0363234612012647,-4.542743247296525,-0.600530704592391,-3.4934313944606865,-15.411725015690314,29.59618914784252
-0.08175089367422995,-4.696860497453429,-0.6354650185369979,-3.197469502982261,-14.56339259287105,29.804612453962864
-0.12871949864876425,-4.842494423382139,-0.6674397135668205,-2.8994233784426324,-13.719425707152045,29.87287544726998
-0.17714444288258566,-4.97968868045366,-0.6964339473512469,-2.6006946239699325,-12.873674901219843,29.76912090031771
-0.22694132968712227,-5.108425429465858,-0.7224408935909462,-2.3030034149667555,-12.012392470730124,29.4555129919569
-0.27802558398178084,-5.228549354173159,-0.7454709277406137,-2.0084482850471863,-11.113261086957442,28.887148137111186
-0.3303110775235124,-5.339681965042733,-0.7655554105910856,-1.7195768036760746,-10.144765302780764,28.0113833978745
-0.3837078971739397,-5.441129618070541,-0.7827511786278463,-1.4394629696973296,-9.066423681615694,26.768366067826946
-0.4381191933546451,-5.531793854886698,-0.7971458083248195,-1.17177930901906,-7.830650078925751,25.093906982132232
-0.49343713190351207,-5.610100355675955,-0.8088636014150101,-0.9208402391977377,-6.387216319388938,22.926113528556318
-0.5495381354602716,-5.673972518869845,-0.8180720038069875,-0.6915791039121746,-4.691223952055841,20.21706304789394
-0.60627786064897,-5.720884758390404,-0.8249877948461093,-0.4894084734332352,-2.714805283201774,16.94974363865588
-0.663486708232874,-5.748032811222421,-0.8298818795804417,-0.31991103704667634,-0.4611298186791819,13.158049403940355
-0.7209670363450983,-5.7526441094092124,-0.8330809899509084,-0.18833054300727278,2.023185291585488,8.94399652620579
-0.7784934774391904,-5.732412256493357,-0.8349642953809812,-0.09889057774521488,4.643315105208888,4.483233586166002
-0.835817600004124,-5.685979105441269,-0.8359532011584333,-0.05405824188355486,7.264805637503393,0.010550696820443682
-0.8926773910585366,-5.613331049066235,-0.8364937835772689,-0.05395273491535042,9.736591160019476,-4.216090169320516
-0.948810701549199,-5.515965137466041,-0.8370333109264224,-0.09611363660855558,11.92208824327965,-7.9634693650659045
-1.0039703529238595,-5.396744255033244,-0.8379944472925079,-0.17574833025921463,13.726636220487649,-11.065488907105994
-1.057937795474192,-5.259477892828368,-0.8397519305951001,-0.28640321933027457,15.110954408578575,-13.444528459787438
-1.1105325744024757,-5.108368348742582,-0.8426159627884029,-0.420848503928149,16.087788135775824,-15.107317919646489
-1.1616162578899014,-4.9474904673848235,-0.8468244478276844,-0.5719216831246139,16.706799150367846,-16.122606871432406
-1.2110911625637497,-4.780422475881145,-0.8525436646589305,-0.733147751838938,17.035964721271725,-16.59288079636527
-1.2588953873225612,-4.610062828668427,-0.8598751421773199,-0.8990765598025907,17.145966235403034,-16.62995662174054
-1.3049960156092455,-4.4386031663143966,-0.8688659077753458,-1.065376126019996,17.100273405550947,-16.338795314552698
-1.3493820472723894,-4.267600432258887,-0.8795196690355458,-1.228764079165523,16.950626899547284,-15.809374379221085
-1.3920580515949783,-4.098094163263414,-0.891807309827201,-1.386857822957734,16.73628963277752,-15.11437291011869
-1.4330389932276124,-3.9307312669356387,-0.9056758880567783,-1.5380015520589208,16.485356199276204,-14.310190384081723
-1.4723463058969688,-3.7658777049428767,-0.9210559035773676,-1.681103455899738,16.216868654310282,-13.439427555982716
-1.5100050829463976,-3.603709018399774,-0.9378669381363649,-1.815497731459565,15.943006442047787,-12.53369537158824
-1.5460421731303953,-3.444278953979296,-0.9560219154509606,-1.9408346851754474,15.671006497388323,-11.616187560575566
-1.5804849626701882,-3.287568889005413,-0.9754302623027151,-2.056996560781203,15.40470328653514,-10.703806415688012
-1.6133606515602423,-3.1335218561400615,-0.9960002279105271,-2.164034624938083,15.145696590237343,-9.80881753273426
-1.644695870121643,-2.9820648902376883,-1.017640574159908,-2.2621228002654257,14.89420254940302,-8.940090606548319
-1.6745165190240199,-2.833122864743658,-1.0402618021625623,-2.3515237063309087,14.649654475307972,-8.104007887495568
-1.7028477476714565,-2.6866263199905784,-1.0637770392258714,-2.4325637852058644,14.411114571443242,-7.305119698337077
-1.7297140108713622,-2.542515174276146,-1.08810267707793,-2.5056149821892353,14.177546847962981,-6.546613999777205
-1.7551391626141237,-2.400739705796516,-1.1131588268998225,-2.571081122187007,13.947990190036668,-5.8306524535439275
-1.7791465596720888,-2.2612598038961496,-1.1388696381216925,-2.6293876467224466,13.721660740216716,-5.158612198096751
-1.8017591577110503,-2.1240431964939823,-1.165163514588917,-2.680973768703414,13.49800496082942,-4.531261732198079
-1.82299958967599,-1.989063146885688,-1.1919732522759512,-2.7262863860253947,13.276718819383383,-3.9488909560844565
-1.842890221144847,-1.8562959586918542,-1.219236116136205,-2.765775295586239,13.0577441480542,-3.4114092095815347
-1.8614531807317656,-1.725718517211312,-1.2468938690920675,-2.7998893876820543,12.841250009230697,-2.9184206344247046
-1.8787103659038786,-1.597306017119005,-1.274892762968888,-2.829073594026301,12.627604545866017,-2.4692829655698896
-1.8946834260750687,-1.4710299716603448,-1.303183498909151,-2.853766423682,12.417341068457201,-2.063153584447902
-1.9093937257916722,-1.3468565609757728,-1.331721163145971,-2.874397959526479,12.211120852879343,-1.699025081850398
-1.92286229140143,-1.2247453524469794,-1.360465142741236,-2.891388210344983,12.00969416900786,-1.3757514818064176
-1.9351097449258998,-1.1046484107569008,-1.3893790248446858,-2.905145725163047,11.81386034237646,-1.0920655276160987
-1.9461562290334689,-0.9865098073331362,-1.4184304820963163,-2.916066380439208,11.624427113175505,-0.8465869286232065
-1.9560213271068003,-0.8702655362013811,-1.4475911459007083,-2.92453224972544,11.44216916491359,-0.6378211489921178
-1.964723982468814,-0.7558438445522453,-1.4768364683979627,-2.9309104612153614,11.26778543410577,-0.4641481561348911
-1.9722824209143366,-0.6431659902111876,-1.5061455730101163,-2.9355519427767103,11.101854684105415,-0.3238005325742046
-1.9787140808164485,-0.5321474433701334,-1.5355010924378834,-2.9387899481024524,10.944788848114213,-0.2148305130982125
-1.9840355552501499,-0.4226995548889913,-1.564888991918908,-2.9409382532334347,10.796783851284932,-0.13506588633741473
-1.9882625507990397,-0.314731716376142,-1.5942983744512422,-2.9422889120968088,10.657768056583219,-0.08205536660049509
-1.9914098679628012,-0.2081540358103098,-1.6237212635722102,-2.943109465762814,10.527349200780236,-0.05300508528613326
-1.9934914083209043,-0.10288054380250744,-1.6531523582298384,-2.9436395166156752,10.404761753578908,-0.044709362633235335
-1.9945202137589293,0.0011670737332816483,-1.6825887533959951,-2.9440866102420076,10.288818085232387,-0.05348096948809305
-1.9945085430215965,0.10405525458560552,-1.7120296194984153,-2.9446214199368885,10.177868659222344,-0.07508867985301397
-1.9934679904757404,0.20583394117782897,-1.7414758336977842,-2.9453723067354187,10.069778576714482,-0.10471292375460502
-1.991409651063962,0.30653172694497377,-1.7709295567651384,-2.946419435972965,9.961929937255059,-0.13693343934845403
-1.9883443337945124,0.40615102631752437,-1.800393751124868,-2.9477887703664494,9.85126118223451,-0.16576535590300304
-1.9842828235313372,0.5046636381398695,-1.8298716388285325,-2.9494464239254796,9.73435514200782,-0.1847611220877861
-1.9792361871499384,0.6020071895599477,-1.8593661030677873,-2.9512940351463577,9.607585984789996,-0.18719381570143187
-1.973216115254339,0.6980830494078476,-1.8888790434192508,-2.953165973303372,9.467330676275916,-0.1663312173010069
-1.9662352847602607,0.7927563561706068,-1.9184107031522846,-2.954829285476382,9.310242187615787,-0.11579854613512326
-1.9583077211985547,0.8858587780467647,-1.9479589960070485,-2.955987270937733,9.133569597335551,-0.030010952716768097
-1.949449133418087,0.9771944740201203,-1.9775188687164258,-2.9562873804649006,8.935495811399003,0.09536340226170253
-1.9396771886778859,1.0665494321341102,-2.0070817425210747,-2.9553337464422835,8.715449923195584,0.26296839080716033
-1.9290116943565447,1.1537039313660662,-2.0366350799854978,-2.952704062534212,8.474342681470981,0.47342444142075146
-1.917474655042884,1.238447358180776,-2.06616212061084,-2.9479698181200042,8.214674778722427,0.7251631278928659
-1.9050901814610763,1.3205941059680002,-2.09564181879204,-2.9407181868410754,7.940481649892617,1.0144839767049354
-1.8918842404013962,1.3999989224669265,-2.125049000660451,-2.9305733470740263,7.657104409554783,1.3358504360155754
-1.877884251176727,1.4765699665624743,-2.154354734131191,-2.9172148427138707,7.370809087971604,1.6823972260863824
-1.8631185515111024,1.5502780574421904,-2.1835268825583296,-2.900390870453007,7.088306650263566,2.0465791620454477
-1.8476157709366805,1.621161123944826,-2.21253079126286,-2.879925078832552,6.816245300683785,2.4208646310812756
-1.8314041596972321,1.689323576951664,-2.2413300420511852,-2.8557164325217395,6.560748636847472,2.798373167394336
-1.8145109239277155,1.7549310633201387,-2.269887206376403,-2.827732700847796,6.327058488512737,3.173375961050879
-1.796961613294514,1.818201648205266,-2.298164533384881,-2.795998941237287,6.119315402563535,3.5416130258328256
-1.7787795968124613,1.8793948022309015,-2.326124522797254,-2.760582810978959,5.9404811389846275,3.9004196239325597
-1.7599856487901524,1.9387996136207477,-2.3537303509070435,-2.7215786147396335,5.792383907821289,4.24868683493478
-1.7405976526539448,1.9967234526989606,-2.38094613705444,-2.6790917463902857,5.675852865406813,4.586700689657067
-1.7206304181269552,2.0534819813530287,-2.4077370545183427,-2.633224739493715,5.590904229907224,4.91591014066222
-1.700095598313425,2.109391023652101,-2.4340693019132797,-2.5840656380870928,5.536945060019517,5.238669288774614
-1.6790016880769039,2.1647604742522963,-2.459909958294151,-2.5316789451993467,5.512968855715194,5.55798836139717
-1.657354083334381,2.219890162809448,-2.4852267477461445,-2.476099061585375,5.5177264923498335,5.877315289287284
-1.6351551817062864,2.2750674277329463,-2.5099877383619984,-2.417325908692502,5.549864378452868,6.200358361082715
-1.6124045074289568,2.330566071517475,-2.5341609974489234,-2.355322325081675,5.608028044382213,6.530951827630727
-1.589098846713782,2.3866463519612973,-2.55771422069974,-2.290012806805368,5.690933416710972,6.872960759215695
-1.565232383194169,2.443555686128407,-2.580614348767794,-2.221283199213211,5.79741012586474,7.2302184984266935
-1.540796826332885,2.5015297873870543,-2.602827180759926,-2.148981014228944,5.9264218531728154,7.606488990983968
-1.5157815284590146,2.5607940059187824,-2.6243169909022157,-2.072916124319104,6.077068470752821,8.005446408183078
-1.4901735883998268,2.6215646906263106,-2.6450461521454067,-1.9928616602372733,6.248573987447734,8.430665226341974
-1.4639579414935637,2.684050430500788,-2.6649747687477796,-1.9085550079738536,6.4402633847118995,8.885614902835899
-1.4371174371885558,2.748453064347907,-2.6840603188275183,-1.8196988589454945,6.65153049357418,9.373654243539185
-1.4096329065450768,2.814968369283649,-2.702257307416973,-1.7259623165101028,6.881798228822045,9.898021370711634
-1.3814832228522402,2.883786351571869,-2.719516930582074,-1.6269821028029865,7.130471805455682,10.461815832983744
-1.3526453593365215,2.955091069626426,-2.735786751610104,-1.5223639444731492,7.39688503040232,11.067969860630432
-1.3230944486402572,3.029059919930449,-2.7510103910548356,-1.4116842458668448,7.680239391088406,11.71920610055761
-1.2928038494409526,3.105862313841333,-2.765127233513504,-1.2944921848612687,7.9795354512373695,12.417979424856387
-1.2617452263025393,3.1856576683537066,-2.778072155362117,-1.1703123906127049,8.293496017198752,13.166400664082524
-1.2298886496190022,3.268592628525694,-2.7897752792682438,-1.0386483839718796,8.620480666849863,13.966140449505538
-1.1972027233337452,3.3547974351941927,-2.8001617631079627,-0.8989869794768243,8.958391557267577,14.81831184201725
-1.1636547489818032,3.4443813507668684,-2.809151632902731,-0.7508038610566518,9.304570972481342,15.723331168269015
-1.1292109354741344,3.537427060491682,-2.8166596715132974,-0.5935705493739616,9.655691865490374,16.68075756589636
-1.0938366648692177,3.6339839791465858,-2.822595377007037,-0.42676297371499794,10.007643709851099,17.689113239526247
-1.057496825077752,3.7340604162450965,-2.826863006744187,-0.24987184131973547,10.355417308840458,18.745688404580992
-1.020156220915301,3.837614589333501,-2.8293617251573844,-0.06241495727392554,10.692993786477965,19.846337359554923
-0.981780075021966,3.9445445271982806,-2.8299858747301236,0.13604841632162368,11.01324472860878,20.98527502119203
-0.9423346297499832,4.0546769744843685,-2.8286253905669074,0.34590116653354397,11.307852213098275,22.15488642072229
-0.9017878600051394,4.167755496615351,-2.825166378901572,0.5674500307407668,11.567259047611751,23.345564802207964
-0.8601103050389859,4.283428087091469,-2.8194918785941647,0.8009056787628465,11.780660622971142,24.545596647181775
-0.8172760241680712,4.401234693321181,-2.8114828218065364,1.0463616452346642,11.93605002718293,25.741113593437664
-0.7732636772348594,4.52059519359301,-2.80101920535419,1.303772781169041,12.02032706643828,26.916131147115024
-0.7280577252989293,4.640798464257393,-2.7879814775424996,1.5729340926401911,12.019479275713325,28.05269164067102
-0.6816497406563554,4.760993257014526,-2.7722521366160975,1.8534610090469013,11.918838704369668,29.131123565093173
-0.6340398080862102,4.880181644058223,-2.7537175265256284,2.1447722446978332,11.703412344651055,30.13042106997977
-0.585237991645628,4.997215767504733,-2.73226980407865,2.446076455397631,11.358277035795556,31.028736520665337
-0.5352658339705806,5.110798537862689,-2.7078090395246734,2.7563638206042844,10.869022464772627,31.803966688759843
-0.4841578485919537,5.219488762510415,-2.6802454013186305,3.0744034874918826,10.222219818980726,32.43440132144614
-0.43196296096684955,5.321710960700222,-2.6495013664437117,3.398747500706344,9.40589023246197,32.89939390320489
-0.37874585135984734,5.415769863024842,-2.6155138914366485,3.7277414397383932,8.40994775561687,33.180010897716365
-0.3245881527295989,5.499869340581011,-2.5782364770392645,4.059541548715557,7.22659693634279,33.25961960344797
-0.2695894593237888,5.572135309944438,-2.537641061552109,4.392137744750037,5.850675000334509,33.124386711309775
