th1 (rad),w1 (rad/s),th2 (rad),w2 (rad/s)
3.6760993282813472,2.5742358585255016,2.91374258092818,1.150854013051142
3.701841686866602,2.6240742670218253,2.9252511210586913,1.1384395213485259
3.7280824295368205,2.6748071267899927,2.9366355162721764,1.1294739297213683
3.7548305008047205,2.726363910064715,2.94793025556939,1.1241891853506263
3.7820941399053676,2.7786747653027795,2.9591721474228962,1.122820737565982
3.8098808875583954,2.831670562364282,2.970400354798556,1.1256067191645027
3.8381975931820382,2.8852828149141847,2.981656421990201,1.1327871236748408
3.86705042133118,2.9394434548439246,2.9929842932269497,1.1446029888934046
3.8964448558796194,2.9940844350310987,3.0044303231158835,1.1612955921154167
3.9263857002299303,3.0491371389194417,3.0160432790370377,1.1831056566482367
3.956877071619125,3.104531578078389,3.0278743356035203,1.210272562722777
3.987922387399909,3.16019536194968,3.039977061230748,1.2430335491576174
4.019524341019405,3.2160524272773583,3.052407396722324,1.2816228854546028
4.051684865292179,3.2720215181478713,3.06522362557687,1.3262709877977434
4.084405080473657,3.328014411087198,3.0784863354548473,1.37720344706462
4.1176852245845295,3.383933883280453,3.0922583699254935,1.4346399327981372
4.151524563417334,3.4396714257711207,3.106604769253475,1.4987929344609248
4.185921277675045,3.4951047076033843,3.1215926985980844,1.5698663005195184
4.220872324751079,3.550094801493795,3.1372913616032796,1.6480535372825003
4.256373272766017,3.6044831870075424,3.1537718969761044,1.7335358332447355
4.292418104636092,3.6580885536493835,3.1711072553085518,1.826479781273244
4.328998990172586,3.710703434045437,3.1893720531212844,1.92703478062459
4.366106024513041,3.7620907067518594,3.20864240092753,2.0353301138332998
4.403726931580559,3.811980019384112,3.228995702065863,2.1514717102768524
4.4418467317744,3.860064195821487,3.2505104191686316,2.275538628998382
4.480447373732615,3.905995706165579,3.2732658054586152,2.407579318379917
4.519507330794271,3.949383294680462,3.2973415986424146,2.5476077396133276
4.559001163741075,3.9897888786241875,3.322817676038548,2.6955994745327074
4.598899052527317,4.026724848891346,3.349773670783875,2.8514879759053797
4.63916630101623,4.059651920553967,3.378288550542929,3.0151611590351237
4.67976282022177,4.087977696131927,3.4084401621332803,3.1864585763861175
4.720642597183089,4.1110561147309,3.4403047478971414,3.3651694602656193
4.761753158330398,4.128187963621686,3.4739564424997975,3.551031960241945
4.803035037966615,4.1386226226079925,3.509466762102217,3.7437339392157774
4.844421264192695,4.141561192623001,3.5469041014943747,3.9429157217232293
4.885836876118925,4.136161125386512,3.586333258711607,4.148175206607764
4.927198487372791,4.1215424179464835,3.6278150107776845,4.359075760029117
4.968413911552256,4.096795362601019,3.6714057683779755,4.575157290472123
5.009381865178266,4.060989748493854,3.7171573412826966,4.795950872175901
5.049991762663205,4.013185297637844,3.7651168500044556,5.020997225431887
5.090123615639583,3.9524429897611126,3.8153268222587746,5.249869281005059
5.129648045537194,3.8778367957348014,3.867825515068825,5.482198952292414
5.168426413494542,3.7884652123239007,3.9226475045917493,5.717708114078539
5.206311065617781,3.6834618926454654,3.9798245857325347,5.956243640779585
5.243145684544236,3.5620046279944124,4.039387022140331,6.1978161841069355
5.27876573082418,3.423322003313024,4.1013651839814,6.442642150527402
5.31299895085731,3.2666972898197235,4.165791605486675,6.6911880244294615
5.345665923755507,3.09146966366639,4.232703485730969,6.9442156698510225
5.376580620392171,2.8970338298233655,4.30214564242948,7.202826325616703
5.405550958690405,2.682840895377009,4.374173905685646,7.468499292753908
5.432379367644176,2.4484064178553058,4.448858898613185,7.743118071393136
5.456863431822729,2.1933369048804003,4.526290079327117,8.028970618609023
5.478796800871533,1.917395315339727,4.606579785513207,8.328699138425693
5.49797075402493,1.6206420721173538,4.689866776897464,8.645154422843571
5.514177174746104,1.303714970987246,4.7763183211259,8.981074032874211
5.527214324455977,0.9683543320871721,4.866129061454642,9.33844452300942
5.536897867776848,0.6183406013075283,4.959513506684736,9.717321001330294
5.543081273789924,0.2610724008980804,5.05668671669804,10.113783316519184
5.5456919977989045,-0.09001102222014445,5.157824549863231,10.516716715231997
5.544791887576703,-0.41231655094396885,5.262991717015551,10.903548762210756
5.540668722067263,-0.6716211408777737,5.372027204637659,11.236614716563523
5.5339525106584855,-0.8238194493584055,5.484393351803294,11.464851962600372
5.525714316164901,-0.825906440101029,5.599041871429297,11.53749096426577
5.517455251763891,-0.6559005533134485,5.714416781071955,11.429379117868786
5.5108962462307565,-0.32792418695986714,5.8287105722506425,11.159684368680871
5.507617004361157,0.11428274851117082,5.940307415937451,10.782307878276033
5.508759831846269,0.6201830893914497,6.048130494720212,10.355923576573934
5.514961662740183,1.1503241715171233,6.151689730485951,9.921893930031006
5.526464904455354,1.6804291936289855,6.250908669786261,9.500647270191541
5.543269196391644,2.197657695970717,6.345915142488177,9.09775973274754
5.565245773351351,2.6958139787544946,6.436892739815652,8.71075911833448
5.592203913138896,3.1720004283134986,6.524000330998996,8.333673175557362
5.62392391742203,3.6247642123695156,6.60733706275457,7.959511990494814
5.660171559545725,4.053216284246668,6.686932182659518,7.581489424910236
5.700703722388192,4.456688527047847,6.762747076908621,7.1935867955763415
5.745270607658671,4.834665312253904,6.834682944864384,6.790796449454751
5.793617260781209,5.186844720371594,6.902590909358931,6.36921022965593
5.845485707984925,5.513251611902213,6.966283011655491,5.92602551264101
5.900618224103947,5.814359878131843,7.0255432667819,5.459497067509354
5.958761822885265,6.09119981590798,7.080138237456994,4.968844087276962
6.019673821044345,6.345437250317641,7.129826678329764,4.454115972511716
6.0831281935475205,6.579417936945877,7.174367838054882,3.916021344972454
6.14892237291698,6.79617552473691,7.213528051504606,3.355729018702477
6.216884128164349,6.999404098450938,7.247085341691631,2.7746557411643593
6.286878169148858,7.193396223258773,7.274831899103274,2.174263313595762
6.358812131381446,7.382942747198053,7.296574532239232,1.555898699921181
6.432641558853426,7.573178359341268,7.312133519238444,0.9207287828084777
6.508373342446839,7.76933190282763,7.3213408070665285,0.26985395148320046
6.586066661475115,7.976294320995134,7.32403934658136,-0.395255931409882
6.665829604685067,8.197838490549024,7.320086787267261,-1.0717569800592779
6.747807989590557,8.435207865790547,7.309369217466668,-1.753457876310677
6.832160068248462,8.6846711886764,7.291834638703561,-2.4273261810011113
6.919006780135226,8.933714604977926,7.26756137689355,-3.0680584766003127
7.008343926185005,9.15640834953839,7.236880792127547,-3.6315750102325577
7.099908009680389,9.311193887720956,7.200565042025222,-4.052202133455233
7.193019948557598,9.348550385716203,7.16004302069067,-4.254303349517776
7.28650545241476,9.23447955156215,7.117499987195492,-4.1868152722735985
7.378850247930381,8.977171263026442,7.075631834472756,-3.8623395946811883
7.468621960560646,8.626542070841834,7.037008438525945,-3.3568539301677367
7.554887381269064,8.243047934958135,7.003439899224267,-2.7642888263665357
7.637317860618645,7.869959408123541,6.975797010960601,-2.1551499746464273
7.71601745469988,7.528153785603181,6.954245511214137,-1.5675376950899906
7.791298992555912,7.223320375395395,6.938570134263237,-1.01673354600182
7.863532196309866,6.953640045002678,6.928402798803219,-0.5061011428198336
7.9330685967598935,6.714449191795015,6.923341787375021,-0.033938761691583386
8.000213088677844,6.500479846029449,6.923002399758105,0.40309386407921083
8.06521788713814,6.306776517129114,6.927033338398897,0.808482335438375
8.128285652309431,6.128998958160407,6.935118161753281,1.185297946235069
8.189575641891036,5.9634685619010455,6.946971141215632,1.5360517575168522
8.249210327510047,5.8071204014090565,6.9623316587908,1.862718096194385
8.307281531524138,5.6574292274947044,6.980958839752744,2.166818481137116
8.363855823799085,5.512335841637241,7.002627024564116,2.4495192867360984
8.418979182215457,5.370182370706843,7.027122217431477,2.7117242380112234
8.472681005922526,5.229657748396881,7.054239459811589,2.954154926538386
8.524977583406494,5.089752109755083,7.083781009076972,3.177417650286784
8.575875104504044,4.949718148733847,7.11555518557984,3.3820569447098463
8.625372285991382,4.809037599849823,7.149375755026939,3.5685969393401313
8.67346266198988,4.667391375390993,7.18506172442034,3.737571912320602
8.72013657574379,4.5246323039279925,7.222437443543546,3.889547451984347
8.76538289878307,4.380759787965792,7.261332918063389,4.02513360102066
8.809190496662728,4.235895998887628,7.301584254073596,4.144991301580408
8.851549456651604,4.090263451160029,7.3430341670894,4.249833391336938
8.892452091163204,3.9441639509837687,7.3855325010027695,4.34042132172334
8.93189373067304,3.7979590073454297,7.4289367142200025,4.417558678686469
8.969873320746496,3.65205183721125,7.473112301006867,4.48208248285564
9.006393839118608,3.506871102765889,7.517933125835423,4.534853131489832
9.041462550146267,3.362856497679024,7.563281657150322,4.576743722071874
9.075091115123058,3.220446260757538,7.6090490943710405,4.6086293711171935
9.107295577730634,3.080066647036537,7.655135388082212,4.6313770161908225
9.138096244201,2.9421233349779397,7.70144915824412,4.645836068648599
9.16751747755078,2.8069946991424994,7.747907518930607,4.652830173048262
9.195587424542204,2.675026834244582,7.794435820661089,4.6531502295114295
9.222337692884649,2.546530181346119,7.840967322956204,4.647548749612559
9.24780299469811,2.4217775813817317,7.887442810452329,4.636735545710115
9.272020770511928,2.3010035655180943,7.9338101659094304,4.62137469819261
9.295030806167109,2.1844046855299144,7.980023912891356,4.602082704275545
9.316874853022409,2.072140689337673,8.026044739934111,4.5794276845220185
9.337596259915784,1.9643363556495148,8.07183901677933,4.553929507502366
9.35723962347228,1.8610838156621703,8.117378311854354,4.526060687039325
9.375850461628902,1.7624452073765586,8.162638918724747,4.496247908305175
9.393474913702667,1.6684555277622177,8.2076013978078,4.464874046702361
9.41015946898029,1.5791255684506698,8.252250138274823,4.432280555185231
9.425950724664796,1.4944448407878326,8.296572943826675,4.398770109910207
9.440895173072674,1.4143844151275973,8.340560644925777,4.364609419538617
9.45503901722395,1.3388996166526987,8.384206739121163,4.330032119131542
9.468428013390476,1.2679325354408455,8.427507060312479,4.29524168459377
9.481107338744884,1.201414321820075,8.470459477158416,4.26041431749361
9.493121481963085,1.139267249295112,8.513063620333352,4.225701762445799
9.504514154456036,1.08140653660669,8.55532063795781,4.19123402988599
9.515328219822102,1.027741928016589,8.597232978256669,4.157122005891969
9.525605639102269,0.9781790369480117,8.638804198315588,4.12345993770571
9.535387429471749,0.9326204629310728,8.680038797692646,4.090327788824534
9.54471363410106,0.890966695684487,8.720942075580892,4.05779346103857
9.553623301057904,0.8531168233683916,8.761520010191278,4.025914882699975
9.562154469291588,0.8189690647995334,8.801779159018277,3.9947419629415437
9.570344159939584,0.7884211479142724,8.841726578647693,3.96431841066555
9.578228371418726,0.7613705591256955,8.881369762754348,3.9346834150748675
9.585842077009984,0.7377146905092616,8.920716596905097,3.9058731815370744
9.593219223915076,0.7173509139494861,8.959775328720466,3.877922312933313
9.600392733054571,0.7001766133859375,8.9985545518498,3.8508650226909005
9.60739449918843,0.6860892079211528,9.037063202076709,3.824736161851281
9.614255391267642,0.6749861995261511,9.075310563695222,3.7995720392750223
9.621005253262904,0.6667652790676596,9.113306284087972,3.7754110119811535
9.627672906053581,0.6613245230186265,9.151060394207784,3.7522938222271414
9.634286151283767,0.658562710145751,9.188583332430055,3.7302636597912113
9.640871778385225,0.6583797824099136,9.225885969027967,3.7093659324452464
9.647455576209325,0.6606774671175835,9.26297962835242,3.689647735037125
9.654062350880501,0.6653600680718984,9.299876105702792,3.6711570178945814
9.66071595156122,0.6723354223881276,9.336587675881738,3.6539414680376705
9.667439305785102,0.6815160073285494,9.373127090562114,3.638047131193881
9.674254465858388,0.692820168802483,9.409507561874053,3.6235168177520167
9.681182667546413,0.7061734310918238,9.445742730051572,3.6103883502057794
9.68824440185733,0.7215098370192427,9.48184661355363,3.5986927218374327
9.695459500227523,0.7387732602537285,9.517833540772004,3.588452244943884
9.70284723283006,0.7579186276389117,9.553718063221444,3.579678770633042
9.710426419106449,0.778912989907242,9.589514850927774,3.572372060369912
9.71821554900552,0.801736384067881,9.625238571531472,3.5665183818392214
9.7262329128462,0.8263824398371817,9.660903755349864,3.5620893887298526
9.734496737244571,0.8528586950025827,9.696524649237162,3.5590413267180834
9.743025324194598,0.8811865995203327,9.732115062504343,3.5573145876615895
9.751837190189802,0.9114012041833267,9.767688208380958,3.556833612514717
9.760951202231634,0.9435505455386917,9.803256544506105,3.557507122505028
9.770386707687022,0.9776947531565642,9.838831615731156,3.559228639307995
9.780163655218587,1.0139049173354373,9.874423902124235,3.5618772396630947
9.79030270439194,1.0522617641572831,9.910042674520867,3.5653184790269115
9.800825322033514,1.0928541900991837,9.945695859311135,3.569405412935723
9.811753863934506,1.135777710129448,9.981389913440491,3.5739796437767843
9.8231116410358,1.1811328716324572,10.01712970987826,3.5788723242677936
9.834922969752125,1.2290236821297142,10.052918433120938,3.5839050564252757
9.847213206573421,1.2795560922756104,10.08875748368519,3.5888906352607517
9.860008767496177,1.3328365677739464,10.124646390037798,3.593633598873037
9.873337133173917,1.3889707754642695,10.160582726026528,3.5979305600027054
9.88722684092856,1.4480624005878178,10.196562031626554,3.601570307567955
9.90170746493444,1.5102121047748311,10.232577734702234,3.6043336794535024
9.916809585982188,1.5755166280689337,10.268621071496769,3.6059932193164217
9.932564752262877,1.644068033632088,10.304681003689932,3.606312640058059
9.949005432599199,1.7159530908084175,10.340744130090513,3.6050461247475702
9.966164963507284,1.791252790974063,10.376794591337989,3.601937502209143
9.984077491417024,1.8700419909450134,10.41281396636008,3.5967193393860364
10.002777911326474,1.952389180435888,10.44878115975394,3.5891119962609372
10.022301803130834,2.0383563728610756,10.48467227971655,3.578822691904587
10.042685366859445,2.127999122284008,10.520460506635596,3.5655446325462568
10.063965358082285,2.221366673134492,10.556115952961058,3.548956254841048
10.08617902481363,2.31850225295413,10.591605515509467,3.528720640210447
10.10936404734317,2.4194435213485006,10.626892721911572,3.5044851597660234
10.133558482556655,2.524223189870543,10.661937573509233,3.475881414500818
10.15880071445536,2.632869826929594,10.69669638765424,3.442525542928529
10.185129412724656,2.7454088579919573,10.731121643083526,3.4040189792246367
10.212583501304575,2.861863762974225,10.765161832875773,3.3599497606620936
10.241202138934318,2.9822574580473393,10.798761330482394,3.309894505856705
10.271024713514791,3.106613825663265,10.831860275540961,3.2534212180726487
10.302090851771423,3.234959321222436,10.864394487721688,3.190093114888126
10.334440444983647,3.3673245329772685,10.896295418870569,3.1194737529259036
10.36811369031342,3.503745497490246,10.927490156399827,3.0411338124707172
10.403151145288323,3.6442644681336347,10.957901494524535,2.9546600429594587
10.43959378996966,3.788929688023697,10.987448094954129,2.8596670614999646
10.477483086849897,3.937793517686485,11.016044765569129,2.75581296171482
10.516861022026763,4.090907994924826,11.043602895186277,2.642820051830611
10.557770101976011,4.248316541343576,11.070031095704584,2.520502522626531
10.600253267389448,4.410040060641096,11.09523612093085,2.3888034654904646
10.644353667995858,4.576055093888669,11.119124155585753,2.2478444152478154
10.690114218934745,4.746261034620365,11.141602599738231,2.0979914263694543
10.737576829280949,4.9204327607079055,11.162582514001926,1.9399424391973743
10.786781156888027,5.098154648723711,11.1819819383939,1.7748409796515228
10.837762703375265,5.278732282766283,11.199730348190416,1.6044203236161596
10.890550026202929,5.461080117832534,11.215774551426577,1.4311788537005021
10.945160827381255,5.643588258296231,11.230086339963583,1.258579458756215
11.001596709964216,5.823981086824416,11.242672134551144,1.0912510004581966
11.05983652083246,5.999196084861099,11.253584644555726,0.9351462476711785
11.119828481681072,6.165331870882262,11.262936107032438,0.7975799160236523
11.181481800389895,6.317733589852928,11.270911906192675,0.6870426838330869
11.244659136288425,6.451285696292402,11.277782333031006,0.612685603761767
11.309171993251349,6.56094459340672,11.283909189068623,0.5834272088492336
11.374781439185416,6.64245321227813,11.289743461157116,0.6067724980385003
11.441205971308197,6.693059951853466,11.2958111861375,0.6876142869830101
11.508136570826732,6.711989063482102,11.30268732900733,0.8274043523112093
11.575256461461553,6.700460474786672,11.310961372530443,1.024011865181321
11.64226106620942,6.66123795796309,11.321201491182256,1.272320511441821
11.70887344578905,6.597886460550621,11.333924696296675,1.5653109444927547
11.774852310394557,6.514008712698003,11.349577805741603,1.895230530049858
11.839992397521538,6.412672187714896,11.368530111042102,2.254527150774615
11.904119119398686,6.296105179461864,11.391075382549849,2.6364136967642233
11.967080171193304,6.165629938027805,11.41743951951749,3.0350957814145936
12.028736470573582,6.021752380153094,11.447790477331637,3.445773006755192
12.088953994375114,5.8643299095460515,11.482248207399188,3.8645270367019684
12.147597293470575,5.692762663400552,11.520893477766208,4.288177916116369
12.20452492010458,5.506178379406025,11.563775256927372,4.714153909903043
12.259586703898641,5.303598928278063,11.610916796026402,5.140392558291553
12.312622693181423,5.084087058718462,11.662320721609317,5.565273190949717
12.363463563768608,4.8468775512615485,11.717973453518814,5.987570952027349
12.411932339281224,4.591500465910343,11.777849163039088,6.406416026764952
12.457847343940328,4.31790756236152,11.841913323306738,6.821236478192723
12.501026419563942,4.026617670335955,11.910125688088664,7.231656918201654
12.541292596267303,3.7189035690100045,11.98244225727068,7.637316830483439
12.578481631957402,3.397051637766668,12.058815425575515,8.037561428045635
12.612452148335068,3.0647338651187024,12.139191039855971,8.430946727819554
12.643099486986255,2.72753240649648,12.223500507134167,8.814497809101145
12.67037481105122,2.393631905621846,12.311645485225178,9.182687830332048
12.694311130107439,2.0746090247070983,12.403472363528499,9.526212183105786
12.71505722035451,1.7860518026979066,12.498734485359556,9.830886565988935
12.732917738381488,1.5474130802361932,12.597043351019446,10.077433664432773
12.74839186918385,1.380190395145188,12.697817687663774,10.243353139217314
12.762193773135301,1.3037298820660248,12.800251219055946,10.307834130462469
12.775231071955961,1.3293248547286958,12.903329560360572,10.25889906759814
12.788524320503248,1.455449831383512,13.005918551036553,10.099149413036864
12.803078818817083,1.667563355184919,13.106910045166922,9.845757519973171
12.819754452368931,1.9430240889186483,13.205367620366653,9.524163527729158
12.839184693258117,2.2578476866761528,13.300609255643945,9.15981168426378
12.86176317012488,2.5915584028990213,13.392207372486583,8.772641568966412
12.88767875415387,2.928945224330609,13.479933788176247,8.375598084474596
12.916968206397176,3.259687823431249,13.563689769020993,7.975711786003478
12.949565084631487,3.577190650982572,13.643446886881028,7.5759756211121285
