th1 (rad),w1 (rad/s),th2 (rad),w2 (rad/s)
3.913709622586745,-2.3586883908854674,5.780048014985444,-1.4014395118679852
3.8901227386778903,-2.278387136200286,5.766033619866764,-1.3840198635535894
3.8673388673158873,-2.19914051774027,5.752193421231229,-1.361275034609946
3.8453474621384847,-2.1209970655331487,5.7385806708851295,-1.3335054628411789
3.824137491483153,-2.0440000608365647,5.725245616256718,-1.3010028720530433
3.8036974908747876,-1.9681863684930345,5.712235587536187,-1.2640493670644832
3.784015627189857,-1.8935855232742296,5.699595093865542,-1.2229166687364057
3.7650797719571147,-1.8202190432926215,5.6873659271781785,-1.1778654942876239
3.7468775815241884,-1.7480999441949185,5.675587272235302,-1.1291450823213565
3.7293965820822392,-1.6772324288369105,5.664295821412089,-1.0769928575145773
3.71262425779387,-1.6076117284240448,5.653525892836943,-1.02163422665124
3.6965481405096297,-1.5392240726273272,5.6433095505704305,-0.963282495436498
3.6811558997833562,-1.4720467678880422,5.633676725616065,-0.9021388941481883
3.6664354321044756,-1.4060483649472915,5.624655336674583,-0.8383926995114577
3.6523749484550025,-1.3411888985224305,5.616271409679468,-0.7722214400839984
3.6389630594697784,-1.2774201839540897,5.608549195278628,-0.7037911727897287
3.6261888576302375,-1.2146861575244352,5.601511283550731,-0.6332568189304663
3.614041996054993,-1.1529232489676027,5.595178715361426,-0.5607625489460946
3.602512763565317,-1.0920607764326207,5.589571089871965,-0.48644220630642854
3.591592155800991,-1.032021355800635,5.584706667808901,-0.4104197621383836
3.5812719422429846,-0.9727213177912801,5.580602470187517,-0.33280979346818
3.5715447290650717,-0.9140711277124691,5.577274372252836,-0.2537179792488525
3.562404017787947,-0.855975804013087,5.574737192460347,-0.17324160961614735
3.5538442597478164,-0.7983353329919324,5.5730047763641855,-0.09147010504657996
3.545860906417897,-0.7410450781042628,5.57209007531372,-0.00848554326195533
3.5384504556368546,-0.6839961832966656,5.572005219881101,0.0756368071779162
3.5316104938038877,-0.6270759706998357,5.57276158795288,0.16082794663731
3.5253397340968893,-0.5701683338255408,5.574369867419253,0.24702459663761667
3.519638050758634,-0.5131541281564459,5.576840113385629,0.33416864284338393
3.5145065094770693,-0.4559115616923495,5.580181799814063,0.4222065663456812
3.5099473938601458,-0.39831658862888475,5.584403865477519,0.5110888601489787
3.5059642279738568,-0.3402433098978626,5.589514754079008,0.6007694272332226
3.502561794874878,-0.2815643847925237,5.595522448351341,0.6912049561370913
3.4997461510269527,-0.22215145833331942,5.602434497912712,0.7823542696985664
3.4975246364436194,-0.1618756093942655,5.610258040609697,0.874177642404271
3.4959058803496768,-0.10060782489641938,5.61899981703374,0.9666360817515169
3.4948998021007127,-0.03821950556954701,5.6286661778512554,1.0596905691315421
3.4945176070450175,0.025416991132730715,5.639263083542571,1.1533012560168594
3.4947717769563447,0.09042776542763163,5.65079609610274,1.2474266117005801
3.495676054610621,0.1569367415790624,5.663270362219746,1.3420225195139155
3.4972454220264115,0.22506498132339942,5.6766905874148845,1.4370413193641185
3.4994960718396455,0.29492994003359263,5.691061000608526,1.5324307956133234
3.5024453712399812,0.36664466218572145,5.706385308564659,1.6281331107816992
3.5061118178618385,0.440316913857253,5.722666639672476,1.7240836873243455
3.510514987000411,0.5160482514707003,5.73990747654572,1.8202100418111353
3.515675469515118,0.5939330278233457,5.7581095769638315,1.916430578231362
3.521614799793351,0.6740573386254607,5.777273882746145,2.0126533498333967
3.528355373179606,0.7564979153023651,5.7974004162444785,2.108774801854811
3.5359203523326292,0.8413209726745623,5.818488164263027,2.2046785106345363
3.544333562059375,0.9285810232624013,5.840534949369372,2.300233937826831
3.553619372291999,1.018319673281173,5.863537288747641,2.395295221620618
3.5638025690248107,1.1105644187746013,5.887490240963847,2.489700029829827
3.5749082132125567,1.2053274636125284,5.912387241262145,2.583268502241567
3.586961487848682,1.3026045840422908,5.938219926284561,2.675802311431519
3.599987533689105,1.402374066882795,5.964977949398876,2.7670838720914754
3.614011274357933,1.5045957500034914,5.992648788119791,2.8568757284577155
3.629057231857968,1.609210194137545,6.021217545404368,2.94492014738159
3.6451493337993432,1.716138014043525,6.050666746878184,3.030938940680394
3.6623107139397786,1.82527939428949,6.0809761362849875,3.114633534453529
3.6805635078826735,1.93651381029192,6.112122471629522,3.1956852949653096
3.699928645985593,2.049699968611918,6.144079324579176,3.273756110558726
3.720425645671712,2.164675971954202,6.1768168856847625,3.3484892171521556
3.742072405391254,2.2812597040801084,6.210301777856284,3.41951024169855
3.7648850024320555,2.399249418401383,6.244496880273269,3.4864284243279493
3.7888774966160694,2.5184245020671834,6.279361164516549,3.5488379667839722
3.814061741636741,2.638546375821315,6.314849544184388,3.606319443473981
3.840447205394954,2.7593594799183854,6.350912738619128,3.65844120343402
3.8680408001941378,2.880592289218716,6.387497150653468,3.704760688314052
3.896846723086325,3.001958297568609,6.424544757536609,3.744825594652892
3.9268663060620113,3.123156914013825,6.461993013483138,3.7781748196244114
3.9580978752021494,3.2438742224367756,6.499774761679382,3.804339149192446
3.990536617426517,3.363783572727526,6.537818153171306,3.8228416768645634
4.024174453153792,3.4825459960833314,6.576046569939952,3.8331979800509464
4.058999913114626,3.5998104694748103,6.6143785497404615,3.834916128758759
4.094998017809374,3.715214094122045,6.652727711028049,3.8274966564792456
4.132150158750594,3.8283822987141267,6.6910026775928415,3.810432683173742
4.170433981737736,3.9389292280350277,6.729107004424579,3.783210441648479
4.209823274018086,4.046458528715712,6.766939108841064,3.7453105164941594
4.250287859305243,4.150564792135149,6.804392214006006,3.6962101529426308
4.291793507226594,4.25083595508948,6.841354315535432,3.6353870237738364
4.334301866777489,4.346856985661078,6.87770818577317,3.562324846653326
4.3777704366340995,4.438215187601256,6.913331434239703,3.4765212116571846
4.422152588510112,4.524507433555481,6.948096646356275,3.377497898359606
4.467397662845667,4.605349577514791,6.9818716253398705,3.264813823503847
4.513451158620815,4.680388192849181,7.014519763574909,3.138080556366424
4.560255040549307,4.749314629731412,7.045900569138573,2.996980067250107
4.607748186846621,4.811881185219034,7.075870369811074,2.8412840416412863
4.655866998698811,4.867918938819108,7.1042832102274875,2.670873717209863
4.7045461880870025,4.91735654406587,7.130991947399586,2.485758816683853
4.753719753527661,4.9602390118572215,7.155849535566425,2.2860938057827047
4.803322143646233,4.996745313932689,7.1787104736242515,2.0721894632003086
4.85328959678556,5.027203521544897,7.199432368256255,1.8445176747174832
4.903561632001009,5.052102220991696,7.21787754500343,1.6037075127749236
4.954082654210926,5.072097149109946,7.233914620131179,1.3505310679541656
5.004803625702025,5.08801238065196,7.247419930810721,1.0858781501679826
5.055683749508545,5.100835957056104,7.258278712312401,0.8107198134249276
5.106692109079106,5.111710519965636,7.26638591044665,0.5260615657708716
5.157809214278763,5.12192022274984,7.271646526104359,0.23288795537675788
5.2090284165062615,5.132875846797527,7.273975405658127,-0.06789918497757624
5.260357174974237,5.146100563308304,7.273296413808351,-0.37554633514391694
5.31181818060732,5.16321910341978,7.269540950456912,-0.6895154637762716
5.363450371641518,5.185953223271496,7.262645795819149,-1.0095512219117635
5.415309903874233,5.216126318144924,7.252550283600032,-1.3357476972491669
5.467471167055682,5.255679930714535,7.23919280662754,-1.6686156675959063
5.520027966362827,5.306704805219767,7.222506649951581,-2.0091528347643486
5.573095014415024,5.371489129585672,7.202415121603937,-2.3589210474828657
5.626809905710881,5.4525866646978045,7.178825911129108,-2.720135816525653
5.681335772357859,5.55290737514942,7.151624552963852,-3.095774089525117
5.736864846109354,5.675832315284853,7.120666812068601,-3.4897053839811516
5.793623169262203,5.825351297502294,7.085769758228789,-3.906846803335687
5.851876682237226,6.006212480913766,7.046701290195432,-4.353328970522908
5.911938807046363,6.224048549467684,7.003168000490203,-4.836625145424768
5.97417929254104,6.485383857144148,6.954801749035956,-5.365510837059975
6.039033131112482,6.797283621850639,6.901146640665356,-5.949520132754363
6.107005967330988,7.166078886879053,6.841651439337812,-6.597106281810795
6.178666756199778,7.593907365826571,6.775680376519704,-7.310742566533546
6.254605829858044,8.070600770451186,6.7025729508543685,-8.075505592713501
6.335311837562556,8.557560109996679,6.621817894927234,-8.836442292880353
6.420887438662523,8.965202747821431,6.53345347199843,-9.466978565011363
6.510539466140737,9.15046357756061,6.438783686348317,-9.765621797249679
6.602044101916343,8.993988774769907,6.34112746837582,-9.564706568317142
6.691983989664042,8.531217307156343,6.245480402692649,-8.91459960772115
6.777296162735605,7.9345895345648945,6.1563344066154375,-8.05848774316889
6.856642058081254,7.35276247644489,6.075749529183748,-7.206579439837237
6.930169682845703,6.846873480273182,6.003683734785376,-6.44651290849494
6.998638417648435,6.424861800952797,5.939218605700427,-5.791187201203346
7.062887035657963,6.07645006826198,5.881306733688394,-5.2276529980247695
7.123651536340582,5.788293053952307,5.829030203708146,-4.738359129750951
7.181534466880105,5.548558853901346,5.781646612410636,-4.307649016531206
7.237020055419118,5.3477560270419024,5.738570122245324,-3.923001299124671
7.290497615689538,5.178488747735033,5.699340109254077,-3.574756532017681
7.342282503166889,5.035007977887306,5.6635925439339,-3.2555447452756496
7.392632582945762,4.9128016048055425,5.631037096481144,-2.9597566011743752
7.441760598993818,4.808271714519563,5.6014395304694,-2.683127997627502
7.489843316139013,4.718492852180798,5.574608250493125,-2.4224309911490134
7.537028244660821,4.641034108598783,5.550383940581635,-2.1752475594843186
7.5834385857468085,4.573829015087679,5.528631464986792,-1.9398035745124902
7.629176875897685,4.515080898502968,5.509233429241667,-1.714844965224401
7.674327684882715,4.46319480071592,5.492084979589423,-1.499542589199427
7.718959632889874,4.416729699066778,5.477089553697429,-1.2934159722245453
7.763126929880541,4.3743665909906735,5.464155393975183,-1.0962688581778632
7.806870595790448,4.334889183722756,5.453192705393405,-0.9081316600460538
7.850219487627675,4.297174623371806,5.444111388792944,-0.7292076247310568
7.893191233861393,4.260192051532176,5.436819312545634,-0.5598209558471069
7.935793154376715,4.223006918049621,5.431221102987163,-0.40036634387789166
7.978023223557211,4.184789016840604,5.427217439548384,-0.25126033718372487
8.019871113725618,4.144822243640544,5.424704836176547,-0.11289571933658557
8.061319336162024,4.102514175076999,5.423575878983181,0.014399503473234682
8.102344477912794,4.057403783754523,5.423719874017913,0.13039678341521405
8.14291851575034,4.0091659461514215,5.425023841852066,0.23499385400318706
8.183010175211855,3.9576118470424118,5.427373780392098,0.3282326265696246
8.22258629368228,3.902684887012665,5.4306561066577945,0.41030772385184683
8.261613142552406,3.8444521958162974,5.434759183896313,0.4815659101962024
8.300057664510568,3.7830922829340006,5.439574842998275,0.5424973269480823
8.337888587339908,3.718879671841621,5.444999816267756,0.5937199543534629
8.375077384058324,3.652167543354664,5.450937015811291,0.6359590435130658
8.41159905949187,3.583369457292452,5.457296606246421,0.6700233788397157
8.447432754064794,3.512941151540978,5.4639968400348184,0.6967801626889147
8.482562165580203,3.441363266017657,5.470964641661707,0.7171301021761416
8.51697579824038,3.369125641975277,5.478135942683469,0.7319839765971449
8.550667054660133,3.2967136369688617,5.48545578244944,0.7422416239684579
8.583634191029821,3.2245966975418034,5.492878198689125,0.7487739496284055
8.61588015800524,3.1532192612470658,5.500365938185409,0.7524082586046333
8.64741235061771,3.082993924749739,5.507890020771455,0.7539169638047053
8.678242289865208,3.0142967167876966,5.5154291904095025,0.7540095304852161
8.708385257033084,2.947464250774819,5.522969285714355,0.7533273825349369
8.737859899540833,2.8827924966035607,5.530502559539705,0.7524414116452237
8.76668782450687,2.820536898730294,5.538026973656157,0.7518516878302649
8.794893193494172,2.7609135720711864,5.54554549053446,0.7519889597923574
8.822502329214883,2.704101323459427,5.5530653801323835,0.7532175476070677
8.849543342449477,2.6502442701778506,5.560597555608454,0.7558392605317941
8.876045785151256,2.5994548550510417,5.5681559482137715,0.7600980131396711
8.902040333701766,2.551817087234408,5.575756928345168,0.7661848584878505
8.92755850457411,2.507389867330408,5.5834187769300465,0.7742432038855203
8.952632403247414,2.4662102834995148,5.591161208968901,0.7843740203108422
8.977294506082409,2.4282967909568556,5.59900494917201,0.7966408987797635
9.001577473991977,2.3936522101380775,5.606971358159808,0.8110748448357491
9.025513996093359,2.362266498628985,5.615082106608166,0.8276787352020681
9.049136661079649,2.3341192686351966,5.623358893960186,0.8464313883333806
9.072477853766001,2.3091820354239347,5.63182320784352,0.8672912232467315
9.09556967412024,2.287420193010448,5.640496120075987,0.8901994989439265
9.118443876050344,2.2687947216663433,5.649398115065426,0.9150831404335534
9.141131823267008,2.253263637914748,5.658548946469762,0.9418571673696562
9.163664459646155,2.2407832018795704,5.667967518143459,0.9704267482162204
9.186072291664951,2.231308899499253,5.677671785625621,1.0006889071798681
9.208385380659944,2.2247962185057197,5.68767867469742,1.0325339134470266
9.230633342845001,2.2212012374842165,5.69800401383189,1.0658463829824671
9.252845355219844,2.2204810470132412,5.708662477661715,1.1005061226985386
9.275050165689976,2.222594021043792,5.7196675388887,1.1363887455307713
9.297276105900414,2.227499955486953,5.731031426344008,1.1733660831372656
9.319551105455284,2.2351600895789625,5.74276508717538,1.2113064208022974
9.341902706351075,2.2455370240948387,5.754878151383403,1.2500745768456933
9.364358076592023,2.2585945489717982,5.76737889715186,1.2895318465538426
9.38694402208174,2.2742973914475386,5.780274215617399,1.3295358284563499
9.409686995996216,2.2926108944646346,5.793569573901962,1.3699401487474014
9.432613104940863,2.313500633876454,5.807268975389436,1.410594097844771
9.455748111279627,2.336931981938122,5.821374916367884,1.4513421915282028
9.479117431099008,2.3628696236975704,5.8358883382831666,1.4920236678277305
9.502746127335984,2.3912770322319066,5.850808574961444,1.5324719298592966
9.526658897658303,2.4221159082165835,5.866133294260036,1.572513944143596
9.550880056740468,2.4553455890823024,5.881858433701472,1.6119696036065203
9.57543351263129,2.4909224330213715,5.897978129737537,1.6506510644577774
9.600342736961505,2.5287991833675965,5.914484640382115,1.6883620664909147
9.62563072879518,2.568924319410287,5.931368261047024,1.7248972470565775
9.651319971989283,2.6112414005347664,5.94861723351759,1.7600414600450742
9.67743238599463,2.655688411731952,5.9662176481180405,1.793569112686417
9.703989270111949,2.7021971200119523,5.984153339244904,1.8252435348439489
9.731011241312068,2.750692453113863,6.002405774593344,1.8548163977412362
9.758518165843206,2.8010919141445174,6.020953938570756,1.882027201707191
9.786529084984652,2.8533050484131155,6.039774210587828,1.906602855516631
9.815062135468784,2.9072329817531455,6.058840239142994,1.9282573731781996
9.844134465286315,2.9627680530142944,6.078122812874776,1.946691717473803
9.873762145816457,3.0197935671130964,6.097589730049514,1.9615938230257424
9.903960081487588,3.0781836989623073,6.117205668279771,1.972638834935606
9.934741918477211,3.1378035826178348,6.136932056629127,1.9794896017989643
9.96611995430339,3.1985096238931208,6.156726952647117,1.9817974637560685
9.998105050542321,3.2601500782319297,6.176544927284677,1.979203376694248
10.030706551324641,3.3225659384669903,6.19633696105162,1.971339412172432
10.06393221070931,3.385592178816905,6.216050355173344,1.957830668396929
10.09778813249748,3.449059401616657,6.235628661857313,1.9382976198726138
10.132278726513645,3.51279593132508,6.25501163805604,1.9123589213871222
10.167406685826895,3.5766303957879755,6.274135227269911,1.8796346649953273
10.203172989784775,3.640394827091766,6.292931573919864,1.8397500660223487
10.239576938055693,3.703928303282239,6.311329074580088,1.792339525405212
10.276616221088515,3.7670811376344955,6.32925246983414,1.737050980936403
10.31428703246486,3.8297196042697164,6.346622979643504,1.673550419671067
10.352584228507556,3.8917311684014,6.363358483840215,1.6015263790795358
10.39150154019157,3.95303016759499,6.379373747631011,1.5206942173699471
10.431031841867519,4.013563869004669,6.39458068980471,1.43079988641213
10.471167480557565,4.073318809113732,6.408888688668831,1.3316228971257074
10.511900668648702,4.132327310126454,6.422204917640088,1.222978130667754
10.553223941749966,4.190674064324127,6.434434698946766,1.1047161227990423
10.595130682393208,4.24850268804117,6.445481860174756,0.9767214362727188
10.63761570927362,4.306022173896729,6.455249074537483,0.8389087384347125
10.680675931012587,4.363513216464252,6.46363816192183,0.6912162177819066
10.724311063177229,4.421334454785365,6.47055032409965,0.5335960005410245
10.768524407725083,4.479928766164998,6.4758862841050595,0.36600125973585296
10.813323695386734,4.53982985973719,6.479546296702418,0.1883697346980054
10.858721993984105,4.601669554994069,6.481429994049399,0.0006033855044810521
10.904738689534046,4.666186289442683,6.481436027904444,-0.19745612095387508
10.951400552428472,4.734235581095424,6.479461466694905,-0.4060564751220801
10.998742908239427,4.806803377106027,6.475400901943684,-0.6255688661696797
11.046810942010486,4.885023451984925,6.469145213281987,-0.8565279519407892
11.095661176530335,4.970200278758075,6.460579933762579,-1.0996787165341066
11.145363179317915,5.063839078091668,6.449583146597238,-1.3560316519966102
11.196001570098831,5.167685025353811,6.436022830077272,-1.6269280944085533
11.247678420352369,5.283773779242377,6.419753549133187,-1.9141178147706894
11.300516158144791,5.414495372729517,6.40061237098548,-2.2198507805366865
11.354661111872087,5.562672568098494,6.378413863180113,-2.5469836125961303
11.410287837553073,5.731651859089523,6.352944027054152,-2.899096986573022
11.467604356143967,5.925397795225311,6.3239530571884215,-3.280609348471389
11.52685833409622,6.14856342053634,6.291146963703707,-3.696846644924481
11.588343968301583,6.406468702089893,6.254178497254463,-4.153969464661145
11.652408655322482,6.704827926695626,6.212638802607851,-4.658530174272176
11.719456934589438,7.048872495873437,6.16605350086513,-5.21615805029734
11.789945659548172,7.441128063352172,6.113891920362156,-5.828325324364352
11.864356940181693,7.876458424884634,6.055608667118513,-6.48524106563601
11.94312152443054,8.332444565670647,5.990756256462153,-7.152168783575143
12.026445970087247,8.754991990163864,5.919234568626401,-7.749073217269588
12.113995889988885,9.04961491574469,5.8417438364537055,-8.138449897276265
12.204492039146333,9.109607087075364,5.760359337480943,-8.165522317554645
12.295588110017086,8.89801169403945,5.678704114305397,-7.7747409932351
12.38456822695748,8.4977459066163,5.600956704373046,-7.081529612483525
12.469545686023643,8.039795837426233,5.530141408248211,-6.271471512766734
12.549943644397906,7.612333313514301,5.467426693120544,-5.471397503038714
12.62606697753305,7.248530552132597,5.412712718090156,-4.73097038564185
12.698552283054376,6.95165503870362,5.3654030142337374,-4.057360472378578
12.768068833441411,6.714298397090081,5.3248294095099515,-3.4422361461222173
12.835211817412313,6.5268816804302086,5.2904070480487295,-2.8738931697584205
12.900480634216615,6.380512487283229,5.261668116351145,-2.341474425060232
