th1 (rad),w1 (rad/s),th2 (rad),w2 (rad/s),a1 (rad/s^2),a2 (rad/s^2)
2.972143094959004,1.1568781247798015,5.923342955537364,-2.64602290333815,1.119339092517744,4.2966754018629505
2.9837118762068022,1.1680715157049788,5.896882726503982,-2.6030561493195203,1.6629197846158361,5.003079132627102
2.995392591363852,1.1847007135511372,5.8708521650107865,-2.553025357993249,2.143575177149778,5.6263130684014016
3.007239598499363,1.206136465322635,5.845321911430854,-2.496762227309235,2.5594978423362784,6.162975877608551
3.0193009631525896,1.2317314437459979,5.820354289157761,-2.4351324685331495,2.911461532506808,6.613078538828839
3.0316182775900495,1.260846059071066,5.79600296447243,-2.369001683144861,3.202351298894602,6.979426587719421
3.04422673818076,1.292869572060012,5.772312947640981,-2.2992074172676666,3.4366399709637596,7.26693635113832
3.0571554339013605,1.3272359717696496,5.749320873468305,-2.2265380537562836,3.619871288897463,7.4819621844542095
3.070427793619057,1.3634346846586243,5.727055492930742,-2.1517184319117413,3.7581929691271783,7.631689545837747
3.0840621404656434,1.401016614349896,5.705538308611624,-2.075401536453364,3.8579652556354005,7.723625939192114
3.0980723066091422,1.43959626690625,5.68478429324709,-1.9981652770614426,3.9254551242053846,7.765202151179638
3.112468269278205,1.478850818148304,5.664802640476476,-1.9205132555496462,3.9666147726896415,7.763481627052717
3.1272567774596878,1.5185169658752005,5.6455975079209795,-1.842878439279119,3.986935611843712,7.7249665314151175
3.14244194711844,1.5583863219936376,5.627168723528189,-1.7656287739649679,3.991365146646315,7.655484306517906
3.1580258103383763,1.5982999734601007,5.609512435788539,-1.6890739308997889,3.984273030095055,7.560137229253058
3.1740088100729773,1.6381427037610512,5.592621696479541,-1.6134725586072582,3.969453257833991,7.4432983982353615
3.190390237110588,1.6778372363393912,5.576486970893469,-1.5390395746249046,3.950151161357775,7.3086397525933045
3.2071686094739817,1.717338747952969,5.56109657514722,-1.4659531770989715,3.9291059587180266,7.159180392213482
3.2243419969535116,1.7566298075401492,5.54643704337623,-1.3943613731768367,3.9086017436924347,6.997346148385391
3.2419082950289133,1.7957158249770735,5.532493429644461,-1.3243879116929829,3.890521712441148,6.825033766694038
3.259865453278684,1.834621042101485,5.519249550527531,-1.2561375740260425,3.876402037248052,6.6436750848641415
3.278211663699699,1.8733850624739656,5.506688174787271,-1.1897008231774011,3.8674830758209966,6.454298189688971
3.2969455143244386,1.9120598932321755,5.494791166555498,-1.1251578412805114,3.8647565735204146,6.257583748220895
3.31606611325676,1.9507074589673796,5.483539588142692,-1.0625820037983025,3.8690082187326857,6.05391558500815
3.335573187846434,1.9893975411547065,5.472913768104709,-1.002042847948221,3.8808553993243216,5.8434251833676605
3.3554671632579813,2.0282060951479495,5.462893339625227,-0.9436085961145445,3.9007803298330055,5.626030185846162
3.3757492242094607,2.0672138984462793,5.453457253664081,-0.8873482942560829,3.9291589177679436,5.4014672105741495
3.3964213631939235,2.106505487623959,5.44458377072152,-0.8333336221503413,3.9662858484297536,5.169319429858151
3.417486418070163,2.1461683461082566,5.436250434500017,-0.7816404278517598,4.012396418734542,4.92903940919377
3.4389481015312455,2.186292310295602,5.428434030221499,-0.7323500337598221,4.067685662602145,4.679967704535353
3.4608110246342014,2.2269691669216236,5.421110529883901,-0.6855503567144686,4.132325298917832,4.421347681715797
3.4830807163034176,2.268292419910802,5.414255026316757,-0.6413368798973107,4.206479008866084,4.152336967396581
3.5057636405025256,2.310357209999463,5.407841657517784,-0.5998135102233448,4.290316520186797,3.8720158746179205
3.5288672126025205,2.353260375201331,5.40184352241555,-0.5610933514771657,4.384026946790592,3.5793930735343165
3.5523998163545336,2.397100644669237,5.396232588900778,-0.5252994207418225,4.4878318066235705,3.27340870260744
3.576370822801226,2.441978962735473,5.39097959469336,-0.49256533371574807,4.601998120932857,2.9529350391367584
3.6007906124285807,2.4879989439448016,5.386053941356202,-0.4630359833243805,4.726851985601791,2.616774771216598
3.6256706018680287,2.5352674638008197,5.3814235815229585,-0.43686823561221455,4.86279300094044,2.2636568360306413
3.651023276506037,2.583895393810224,5.377054899166836,-0.41423166725190813,5.010309950846148,1.8922297115204108
3.676862230444139,2.6339984933186855,5.372912582494317,-0.39530937013670403,5.1699981359579805,1.5010519695736984
3.703202215377326,2.6856984746782655,5.36895948879295,-0.38029885044096706,5.342578788417204,1.0885798189968452
3.7300592001241086,2.7391242625624375,5.365156500288541,-0.36941305225099863,5.528921027797055,0.653151286490464
3.757450442749733,2.794413472840408,5.3614623697660315,-0.36288153938609397,5.730066857615543,0.19296660595088835
3.785394577478137,2.8517141414165637,5.357833554372171,-0.36095187332658507,5.9472597471790305,-0.2939356844903131
3.8139117188923026,2.911186738888354,5.354224035638905,-0.3638912301714882,6.181977389507185,-0.8097074931465402
3.8430235862811863,2.9730065127834258,5.35058512333719,-0.3719883051029536,6.435969263787962,-1.3567253514809523
3.8727536514090204,3.0373662054213053,5.34686524028616,-0.38555555861776314,6.711299644141776,-1.937630558623286
3.9031273134632336,3.104479201862723,5.343009684699982,-0.404931864203996,7.010396657428135,-2.555375693679376
3.934172105481861,3.1745831684370045,5.338960366057942,-0.43048562114078975,7.336107853407723,-3.2132775723742624
3.965917937166231,3.2479442469710817,5.3346555098465345,-0.4626183968645324,7.691762429469777,-3.9150760933124165
3.998397379635942,3.3248618712657794,5.330029325877889,-0.5017691577976565,8.081239612643738,-4.66499727207511
4.0316459983485995,3.4056742673922167,5.325011634299912,-0.5484191305184076,8.509041514992681,-5.467816756045501
4.0657027410225215,3.4907646825421437,5.319527442994728,-0.6030972980788626,8.98036666316695,-6.328916685469822
4.100610387847943,3.5805683491738134,5.3134964700139395,-0.6663864649335608,9.50117672384981,-7.254322988725286
4.1364160713396805,3.6755801164123114,5.306832605364604,-0.7389296948208136,10.078242649792994,-8.250700545392633
4.173171872503803,3.7763625429102414,5.299443308416396,-0.8214367002747399,10.719145812449197,-9.32526761454098
4.210935497932906,3.8835540010347334,5.291228941413649,-0.9146893764201497,11.432191802050104,-10.485564421187952
4.249771037943253,3.997875919055234,5.282082047649447,-1.0195450206320291,12.226164813284864,-11.738967230945864
4.289749797133806,4.120137567188083,5.271886597443126,-1.1369346929414879,13.1098015025933,-13.091768217965482
4.330951172805687,4.251235582214016,5.260517250513711,-1.2678523751211426,14.090783599155978,-14.547527159040687
4.373463528627827,4.392143418205576,5.2478387267625,-1.4133276467115494,15.173922332631742,-16.10422129699988
4.417384962809883,4.543882641531893,5.233705450295385,-1.5743698596815483,16.358015612573794,-17.749448495111306
4.462823789225202,4.707462797657631,5.217961751698569,-1.7518643446326614,17.63058788012025,-19.452560141600397
4.509898417201778,4.883768676458834,5.200443108252243,-1.9463899460486653,18.959398339900034,-21.15215527681894
4.558736103966366,5.073362659857834,5.180979208791756,-2.157911498816855,20.279378196173,-22.737080332767032
4.609469730564944,5.2761564418195634,5.159400093803588,-2.385282302144525,21.47401291248008,-24.01964524885711
4.66223129498314,5.490896570944364,5.135547270782142,-2.625478754633096,22.352301511617917,-24.70287688592723
4.717140260692584,5.714419586060544,5.109292483235811,-2.8725075234923687,22.628551301457744,-24.352487261272138
4.774284456553189,5.940705099075121,5.080567408000888,-3.11603239610509,21.92500069565669,-22.40250216140226
4.83369150754394,6.1599551060316875,5.049407084039837,-3.340057417719113,19.834554146562223,-18.248161705649757
4.895291058604257,6.35830064749731,5.016006509862645,-3.5225390347756105,16.083378846733872,-11.4830147596642
4.95887406507923,6.519134435964649,4.980781119514889,-3.6373691823722525,10.776111028206067,-2.255335761556836
5.024065409438876,6.626895546246709,4.944407427691166,-3.659922539987821,4.570237993786814,8.476197119277858
5.090334364901343,6.672597926184578,4.907808202291288,-3.5751605687950425,-1.4565494989297687,19.127489536289108
5.157060344163189,6.65803243119528,4.872056596603337,-3.3838856734321516,-6.275431875523801,28.161329893881263
5.2236406684751415,6.595278112440042,4.838217739869016,-3.102272374493339,-9.363560250572128,34.75217062827835
5.289593449599542,6.50164250993432,4.807195016124083,-2.754750668210556,-10.788756361719308,38.92348981845222
5.354609874698885,6.393754946317127,4.779647509441977,-2.3655157700260334,-10.966782950432156,41.21203722454904
5.418547424162056,6.284087116812806,4.755992351741717,-1.953395397780543,-10.378410472280331,42.264726049411436
5.481388295330184,6.180303012090003,4.736458397763911,-1.5307481372864284,-9.414785738945612,42.61224536011426
5.543191325451084,6.086155154700547,4.721150916391047,-1.104625683685286,-8.342843408807592,42.61291670424858
5.6040528769980895,6.002726720612471,4.710104659554195,-0.6784965166428001,-7.3268137878338315,42.47838408185419
5.664080144204214,5.929458582734132,4.703319694387766,-0.2537126758242582,-6.46133727220437,42.31813191294643
5.723374730031556,5.8648452100120885,4.700782567629524,0.16946864330520606,-5.798687999406055,42.17737913134523
5.7820231821316765,5.806858330018028,4.702477254062576,0.5912424346186584,-5.366995296623427,42.063332866252956
5.840091765431857,5.753188377051794,4.708389678408763,1.011875763281188,-5.181168441400524,41.9618312669013
5.897623649202375,5.701376692637789,4.718508436041575,1.4314940759502008,-5.248912572977022,41.847545591897806
5.954637416128753,5.6488875669080185,4.732823376801077,1.849969531869179,-5.573709574226662,41.69027561584468
6.011126291797833,5.593150471165752,4.751323072119769,2.266872288027626,-6.156010914699688,41.45901400678047
6.0670577965094905,5.531590362018755,4.773991795000045,2.681462428095431,-6.993424044866692,41.124787306610685
6.122373700129678,5.461656121570088,4.800806419280999,3.092710301161538,-8.080379606667055,40.662835750854846
6.176990261345379,5.380852325503417,4.831733522292614,3.4993386586700863,-9.407594158452229,40.05441500827778
6.230798784600413,5.286776383918895,4.866726908879315,3.899882808752864,-10.96154494130318,39.288333292499246
6.283666548439602,5.177160934505863,4.905725736966843,4.292766141677856,-12.724115742995473,38.36223793596523
6.335438157784661,5.049919777075908,4.948653398383622,4.6763885210375085,-14.672534547572724,37.283612665638806
6.38593735555542,4.9031944316001805,4.995417283593997,5.0492246476938965,-16.779691325966986,36.07042687726547
6.434969299871422,4.735397518340511,5.045909530070936,5.409928916466551,-19.01489070599271,34.75138319835348
6.482323275054827,4.545248611280583,5.100008819235601,5.757442748450086,-21.34505604420416,33.365734070130905
6.527775761167633,4.331798050838541,5.157583246720102,6.091100089151395,-23.736358267153005,31.96267685471339
6.571093741676019,4.0944344681670115,5.218494247611616,6.410726857698529,-26.156196616115597,30.600383874529122
6.612038086357689,3.8328725020058556,5.282601516188602,6.71673069644382,-28.575412179273364,29.34477034295924
6.650366811377747,3.547118380213122,5.34976882315304,7.010178399873412,-30.970571328602706,28.268137461683082
6.685837995179878,3.237412666927095,5.419870607151774,7.2928597744902435,-33.32611369389175,27.447833024455175
6.718212121849149,2.9041515299881775,5.492799204896676,7.567338104734795,-35.6361078638899,26.965021878399458
6.747253637149031,2.5477904513492784,5.568472585944024,7.83698832351879,-37.90526932763036,26.90351042247491
6.772731541662524,2.1687377580729748,5.646842469179211,8.106023427743539,-40.14870717673378,27.348243262851906
6.794418919243253,1.767250686305637,5.727902703456647,8.379505860372058,-42.3894539659299,28.382429378182458
6.81209142610631,1.343356146646338,5.811697762060367,8.663330154153883,-44.65195602815442,30.080946663697567
6.8255249875727735,0.8968365863647938,5.898331063601907,8.964139620790858,-46.947912827618914,32.49511144024985
6.834493353436422,0.42735745808860465,5.987972459809815,9.289090735193357,-49.24739505014321,35.619011541980825
6.838766928017308,-0.06511649241282746,6.080863367161749,9.645280850613165,-51.422056291472686,39.31891441499463
6.83811576309318,-0.5793370553275543,6.1773161756678805,10.038469994763112,-53.1385224686745,43.19452953817229
6.832322392539904,-1.1107222800142993,6.277700875615512,10.470415290144835,-53.675666793061815,46.33311691189582
6.821215169739761,-1.6474789479449174,6.382405028516961,10.933746459263794,-51.672672357048086,46.9594892117986
6.804740380260312,-2.1642056715153983,6.491742493109599,11.40334135138178,-44.9819252921821,42.20958686615208
6.783098323545158,-2.6140249244372193,6.605775906623417,11.8254372200433,-31.219347592141446,28.828299278353217
6.756958074300785,-2.926218400358634,6.72403027882385,12.113720212826832,-9.865086712779824,5.959943541515756
6.727695890297198,-3.024869267486432,6.845167480952118,12.17331964824199,14.984986733259792,-21.176160246237885
6.697447197622334,-2.875019400153834,6.966900677434538,11.96155804577961,35.753371631599784,-42.85408447147778
6.668697003620796,-2.5174856838378363,7.086516257892334,11.533017201064832,47.56604429106984,-53.09866733325686
6.643522146782417,-2.041825240927138,7.201846429902982,11.002030527732263,51.29726869099353,-53.50503239794413
6.623103894373146,-1.5288525540172027,7.311866735180305,10.466980203752822,50.37600361396832,-48.77240794936775
6.6078153688329735,-1.0250925178775194,7.416536537217834,9.979256124259145,47.55613972208903,-42.47127190538075
6.597564443654198,-0.5495311206566291,7.516329098460425,9.554543405205337,44.28095260652299,-36.35646968445912
6.592069132447632,-0.10672159459139924,7.611874532512479,9.190978708360745,41.13772181279856,-31.060790450652323
6.5910019165017175,0.3046556235365864,7.703784319596086,8.880370803854222,38.30220560076364,-26.708910713985585
6.594048472737083,0.6876776795442228,7.792588027634628,8.613281696714365,35.78183600509643,-23.236565794339754
6.6009252495325255,1.045496039595187,7.878720844601772,8.380916038770968,33.52570983450205,-20.52658746173085
6.611380209928478,1.3807531379402076,7.962530004989482,8.175650164153659,31.46985334657347,-18.459794676593965
6.6251877413078795,1.6954516714059422,8.044286506631018,7.991052217387719,29.55438202103829,-16.93077396950772
6.642142258021939,1.990995491616325,8.124197028804895,7.821744477692642,27.729124691664587,-15.850353408509317
6.662052212938102,2.268286738532971,8.202414473581822,7.663240943607549,25.95473317839645,-15.143635816401007
6.684735080323431,2.5278340703169357,8.279046883017898,7.511804585443539,24.202144005369863,-14.747021846180218
6.7100134210266,2.7698555103706344,8.354164928872333,7.364334366981737,22.451514482756735,-14.605456574707455
6.737711976130306,2.994370655198202,8.42780827254215,7.2182798012346625,20.691040176912292,-14.670268357327929
6.767655682682288,3.201281056967325,8.499991070554497,7.071577117661383,18.915778933253645,-14.897639497066182
6.7996684932519615,3.3904388462998614,8.570706841731111,6.922600722690722,17.12650615217784,-15.24763076818085
6.83357288171496,3.5617039078216397,8.639932848958018,6.7701244150089135,15.32859997407293,-15.683646302356719
6.869189920793176,3.714989907562369,8.707634093108108,6.613287951985346,13.530957261495635,-16.172221137654265
6.9063398198688,3.850299480177325,8.773766972627962,6.451565740608803,11.744951469974733,-16.68302188853171
6.944842814670574,3.9677489948770726,8.838282630034051,6.284735521723486,9.983452745517654,-17.188964789407596
6.984520304619345,4.067583522332249,8.901129985251286,6.11284587382941,8.259935323020299,-17.66637229878298
7.025196139842667,4.150182875562453,8.96225844398958,5.93618215084158,6.587696762126052,-18.09510812056094
7.066697968598292,4.2160598431837135,9.021620265497996,5.75523106963597,4.979208517171336,-18.458649548923308
7.108858567030129,4.265851928355427,9.079172576194356,5.570644574146737,3.4456093435573587,-18.74407403609315
7.151517086313683,4.300308021791,9.134879021935824,5.383203833785806,1.9963438695796762,-18.94195250330326
7.194520166531594,4.320271460486797,9.18871106027368,5.1937843087527735,0.638939909366752,-19.046154216972898
7.237722881136461,4.326660859580465,9.240648903361208,5.003322766583045,-0.6210890725243475,-19.05357660311588
7.280989489732266,4.320449968855222,9.290682131027038,4.812787000551886,-1.780234873983492,-18.96381826626588
7.324193989420818,4.302647620115387,9.338810001032558,4.623148817889227,-2.836899951850819,-18.778815222775386
7.367220465621973,4.274278620596879,9.38504148921145,4.435360665661473,-3.7912388660818763,-18.50245970320542
7.409963251827941,4.23636623193606,9.429395095868063,4.2503360686294185,-4.644956143125893,-18.140218640977068
7.452326914147301,4.189916670504801,9.471898456554358,4.068933882219648,-5.401078633930688,-17.698765885730747
7.494226080852349,4.135905884165495,9.512587795376554,3.8919462233623405,-6.063717555445961,-17.18563884271081
7.535585139694004,4.075268708611035,9.551507257610178,3.7200898349352323,-6.637832341929054,-16.608927041118562
7.576337826780114,4.008890385191744,9.58870815595953,3.5540005645240464,-7.129005485792566,-15.976997301353435
7.616426730632032,3.9376003303338187,9.62424816160477,3.394230591510512,-7.543234893550828,-15.298257797969963
7.65580273393537,3.8621679813983105,9.658190467519875,3.241248013530812,-7.886748004597964,-14.580961409713828
7.694424413749353,3.783300501352331,9.690602947655183,3.095438399433674,-8.165840038966863,-13.833047270965423
7.732257418762876,3.7016421009626623,9.72155733164952,2.9571079267240195,-8.386737236392136,-13.062018333382271
7.769273839772502,3.617774728598741,9.75112841091676,2.8264877433901967,-8.555484785562813,-12.274851955202115
7.8054515870584895,3.532219880743113,9.779393288350661,2.7037392238381757,-8.677858275713564,-11.477940008589448
7.84077378586592,3.4454412979859774,9.806430680589044,2.588959823752281,-8.75929688940936,-10.677054691227285
7.87522819884578,3.3578483290918837,9.832320278826566,2.4821892768400082,-8.804856155460975,-9.877336112375623
7.9088066821366985,3.269799767537274,9.857142171594967,2.383415915716252,-8.819177858010482,-9.0832977650109
7.941504679812072,3.181607988957169,9.88097633075213,2.292582938066143,-8.806474618910205,-8.298846165278214
7.973320759701643,3.093543242768067,9.903902160132791,2.209594476413361,-8.77052670538222,-7.527311209785491
8.004256192129324,3.0058379757142446,9.925998104896925,2.134321364315506,-8.714688735977022,-6.7714841423152645
8.034314571886465,2.9186910883544743,9.94734131854008,2.0666065228923536,-8.641904140097592,-6.033660407741993
8.06350148277001,2.8322720469534985,9.968007383769002,2.0062699188149336,-8.55472544777651,-5.315685078110167
8.091824203239545,2.7467247924757334,9.988070082957151,1.9531130680338318,-8.455338728151323,-4.618998943078347
8.119291451164303,2.6621714051942202,10.00760121363749,1.9069230786030482,-8.34559074174685,-3.9446837473961933
8.145913165216244,2.5787154977767517,10.02667044442352,1.8674762411290864,-8.227017611255539,-3.2935054191608173
8.171700320194011,2.496445321664196,10.04534520683481,1.8345411869374781,-8.100874039322278,-2.665954455872899
8.196664773410653,2.4154365812709733,10.063690618704184,1.8078816423787492,-7.968162304191173,-2.0622829161181806
8.220819139223362,2.3357549582290615,10.081769435127972,1.7872588132175673,-7.829660441832173,-1.482537701532751
8.244176688805652,2.25745835381074,10.099642023260149,1.7724334362022398,-7.6859491752944304,-0.9265900075318081
8.26675127234376,2.1805988620577956,10.11736635762217,1.7631675361269217,-7.537437279083552,-0.3941609748241086
8.288557260964337,2.10522448926696,10.13499803298344,1.7592259263786807,-7.384385170013975,0.1151563091254091
