th1 (rad),w1 (rad/s),th2 (rad),w2 (rad/s),a1 (rad/s^2),a2 (rad/s^2)
4.148011487217331,0.15622353356516067,1.2352978897750941,0.09949859240117212,7.18163028290914,-2.253733680165512
4.149573722552982,0.22803983639425207,1.2362928756991058,0.076961255599517,7.201436910745409,-2.230491172041031
4.151854120916925,0.30005420550170614,1.2370624882551011,0.054656343879106686,7.2318524125059716,-2.1923984621122337
4.154854662971942,0.3723727296267659,1.2376090516938922,0.032732359257984345,7.272747705189542,-2.1397087443207
4.158578390268209,0.4451002066786613,1.237936375286472,0.011335271814777344,7.323957464039512,-2.0727680080502453
4.1630293923349955,0.5183397813190564,1.2380497280046199,-0.00939240826572511,7.385271176177714,-1.9920284215085393
4.1682127901481865,0.5921924930808335,1.2379558039219627,-0.029312692480810504,7.456421346777735,-1.8980659179629449
4.174134715078995,0.6667567065486109,1.2376626769971546,-0.04829335166043995,7.537068890852308,-1.7916019696984582
4.180802282144481,0.7421273954571339,1.2371797434805503,-0.06620937135742454,7.626785786364274,-1.673529477419419
4.188223556099052,0.8183952533207767,1.236517649766976,-0.08294466613161873,7.725035134278619,-1.544942603178528
4.19640750863226,0.8956456046635629,1.23568820310566,-0.09839409216340401,7.831148874483282,-1.4071702228921514
4.205363964678895,0.9739570934083958,1.2347042621840258,-0.11246579439232553,7.944303549041738,-1.2618124604414718
4.215103535612979,1.053400128898813,1.2335796042401026,-0.12508391899674023,8.063494690899912,-1.1107794808034135
4.225637536901967,1.1340350758078122,1.232328765050135,-0.13619171380477438,8.187510650003576,-0.9563313587627067
4.2369778876600455,1.215910182307848,1.2309668479120874,-0.14575502739240145,8.314906949768712,-0.801117401262303
4.249136989483124,1.299059251805535,1.2295092976381634,-0.15376620140502448,8.443982590359589,-0.6482127911618952
4.262127582001179,1.383499077709131,1.2279716356241133,-0.16024832931664343,8.572760070290322,-0.5011498539143956
4.275962572778271,1.4692266784120342,1.2263691523309468,-0.16525982785578738,8.698971265346227,-0.3639406554089537
4.290654839562391,1.5562163910654965,1.224716554052389,-0.16889923440987692,8.82005165484642,-0.241087064051096
4.306217003473046,1.6444169076139608,1.2230275617082902,-0.17131010505038788,8.933145680229453,-0.1375739163938165
4.322661172549186,1.7337483644162552,1.2213144606577864,-0.17268584421432603,9.035126209573525,-0.05884059544199186
4.339998656193348,1.8240996265119904,1.219587602215643,-0.17327425016874595,9.122631104722837,-0.010726263081721593
4.358239652458468,1.9153259375592189,1.2178548597139556,-0.17338151279956318,9.19211968072767,0.000615706758811681
4.37739291183406,2.0072471343664957,1.21612104458596,-0.17337535573197507,9.23995134679441,-0.031162242345936435
4.3974653831777255,2.0996466478344398,1.2143872910286402,-0.17368697815543443,9.2624878698202,-0.11244506784201812
4.41846184965607,2.192271526532642,1.2126504212470859,-0.17481142883385462,9.256219471727038,-0.2494613326567946
4.440384564921396,2.284833721249912,1.2109023069587472,-0.17730604216042256,9.217913357519818,-0.448054830138457
4.463232902133895,2.3770128548251104,1.209129246537143,-0.18178659046180712,9.144781312177768,-0.7134273733222296
4.487003030682146,2.468460667946888,1.207311380632525,-0.1889208641950294,9.03466079284638,-1.049862264588392
4.511687637361615,2.5588072758753517,1.2054221719905749,-0.19941948684091332,8.886201627330703,-1.4604419414586223
4.537275710120369,2.6476692921486586,1.2034279771221656,-0.21402390625549955,8.69904821717607,-1.9467771175098207
4.563752403041856,2.7346597743204195,1.2012877380596108,-0.23349167743059776,8.474005291384358,-2.508767943189911
4.59109900078506,2.819399827234263,1.1989528212853047,-0.2585793568624969,8.213174059404116,-3.1444197709068034
4.619292999057403,2.9015315678283042,1.1963670277166798,-0.2900235545715649,7.920045376211811,-3.8497364757623735
4.648308314735686,2.9807320215904225,1.193466792170964,-0.32852091932918864,7.599537541691313,-4.618712466675151
4.67811563495159,3.0567273970073354,1.1901815829776723,-0.37470804399594015,7.257968823915246,-5.443440180710319
4.708682908921664,3.129307085246488,1.186434502537713,-0.42914244580304334,6.9029588053443,-6.314342901530472
4.739975979774129,3.1983366732999308,1.1821430780796827,-0.49228587481834807,6.543258096408973,-7.22053345782256
4.771959346507128,3.2637692542640204,1.1772202193314991,-0.5644912093965737,6.188512496131415,-8.150288451862346
4.804597039049768,3.325654379225335,1.1715753072375334,-0.6459940939151971,5.848974698937833,-9.091616299350864
4.837853582842022,3.384144126214713,1.1651153662983815,-0.7369102569087058,5.5351833209754435,-10.032887042327681
4.871695024104169,3.4394959594244674,1.1577462637292946,-0.8372391273319826,5.257634397962073,-10.963484292742377
4.906089983698414,3.492072303404088,1.1493738724559748,-0.9468739702594063,5.026473688328672,-11.87443629195964
4.941010706732455,3.5423370402873746,1.1399051327533807,-1.0656183331790028,4.85123845279165,-12.758984958697065
4.976434077135329,3.590849424815291,1.1292489494215907,-1.1932081827659735,4.740674671084435,-13.61305919442382
5.012342571383481,3.6382561715261352,1.117316867593931,-1.3293387747102117,4.702650251518396,-14.435630955225944
5.048725133098743,3.685282674041319,1.1040234798468287,-1.4736950842624712,4.7441775871282195,-15.22894818210096
5.085577959839156,3.7327244499126015,1.089286529004204,-1.6259845660834809,4.87155110825704,-15.998655576158118
5.122905204338283,3.781439960995172,1.0730266833433693,-1.785971121845062,5.090598718933173,-16.7538303039057
5.160719603948234,3.832345948184504,1.0551669721249186,-1.953509424884119,5.407041496371638,-17.506973317721016
5.199043063430079,3.8864163631482205,1.0356318778760774,-2.128579158061329,5.826954733257171,-18.274007148107295
5.2379072270615605,3.9446859104807923,1.014346086295464,-2.311319229542402,6.357325783634379,-19.07433776849206
5.277354086166368,4.008259168317136,0.9912328940000401,-2.5020626072273227,7.0067102197070374,-19.93104228864233
5.31743667784954,4.078326270514206,0.9662122679277669,-2.701373030113746,7.785997072251774,-20.871247141706966
5.358219940554682,4.156186241236724,0.9391985376266294,-2.9100855015308156,8.709305538172185,-21.926764368390774
5.399781802967049,4.243279296618446,0.9100976826113213,-3.1293531452147234,9.795047938655104,-23.135056866475363
5.442214595933233,4.3412297760049965,0.8788041511591741,-3.360703713879477,11.067203767629767,-24.540604734893403
5.485626893693284,4.451901813681294,0.8451971140203793,-3.606109761228411,12.556850358643025,-26.196735729800373
5.530145911830097,4.577470317267725,0.8091360164080952,-3.868077118526415,14.303970613532359,-28.167941324241262
5.575920615002774,4.720510023403048,0.770455245222831,-4.149756531768827,16.359468861891347,-30.53257262682494
5.623125715236805,4.884104712021962,0.7289576799051428,-4.455082258037077,18.78708213910008,-33.385472009679276
5.671966762357024,5.071975533412963,0.684406857324772,-4.7889369781338695,21.66426580340102,-36.8392537061923
5.722686517691153,5.288618191446973,0.6365174875434333,-5.1573295151957925,25.079671159418655,-41.02091834238828
5.775572699605624,5.53941490304116,0.5849441923914753,-5.567538698619675,29.121397026535593,-46.05570457645531
5.830966848636035,5.830628873306516,0.5292688054052785,-6.028095744384228,33.842296449050544,-52.0190579211416
5.8892731373691,6.169051837797022,0.4689878479614363,-6.548286323595644,39.17122184690464,-58.81326873513472
5.950963655747071,6.560764056266068,0.40350498472547985,-7.136419010946991,44.70471587681934,-65.87715126245956
6.016571296309731,7.007811215034262,0.3321407946160099,-7.795190523571587,49.265520005178985,-71.5694288113584
6.086649408460074,7.500466415086052,0.25418888938029405,-8.510884811685171,50.143389388567364,-72.10652533816003
6.161654072610935,8.001900308971726,0.16908004126344234,-9.231950065066771,42.46841599162405,-60.68390958907274
6.2416730757006516,8.426584468887967,0.07676054061277462,-9.838789160957498,21.009620054443268,-29.993027298425062
6.3259389203895315,8.6366806694324,-0.021627350996800354,-10.138719433941748,-12.400325087142297,17.38557069988215
6.412305727083855,8.512677418560976,-0.12301454533621783,-9.964863726942927,-43.27377699041944,61.18620818552195
6.497432501269465,8.079939648656781,-0.2226631826056471,-9.353001645087707,-57.82109802120329,82.17870112501063
6.578231897756033,7.501728668444748,-0.31619319905652415,-8.5312146338376,-57.48056736738857,82.41610256272428
6.65324918444048,6.926922994770862,-0.4015053453949001,-7.707053608210357,-50.621628560234534,73.5725045446455
6.722518414388189,6.420706709168517,-0.4785758814770037,-6.971328562763902,-42.6590350186641,63.1744261962197
6.786725481479873,5.994116358981876,-0.5482891671046427,-6.339584300801705,-35.55509232252832,53.941444123236096
6.846666645069692,5.638565435756593,-0.6116850101126597,-5.800169859569344,-29.6992727621698,46.41092271163153
6.903052299427258,5.341572708134895,-0.6696867087083532,-5.336060632453028,-24.980913351286585,40.428097868607296
6.956468026508607,5.091763574622029,-0.7230473150328836,-4.931779653766956,-21.185408575793986,35.69429000024683
7.007385662254827,4.879909488864089,-0.7723651115705531,-4.574836753764488,-18.112613801108708,31.92996439849904
7.056184757143468,4.698783350853002,-0.818113479108198,-4.255537109779497,-15.602474011123915,28.909644608199834
7.103172590651998,4.542758610741763,-0.8606688502059929,-3.9664406636974987,-13.533547486818305,26.459575287054722
7.148600176759416,4.40742313587358,-0.9003332568429679,-3.7018449108269516,-11.815461646054294,24.447154977177536
7.192674408118152,4.289268519413037,-0.9373517059512375,-3.457373361055176,-10.381424952688258,22.770558413497284
7.235567093312282,4.185454269886154,-0.9719254395617892,-3.2296677769202033,-9.18219986140139,21.35047778323913
7.277421636011144,4.09363227127214,-1.0042221173309913,-3.016162999087812,-8.181557001738932,20.124020912162088
7.318357958723865,4.011816701254751,-1.0343837473218693,-2.8149227899661913,-7.352902215077199,19.04036211731657
7.358476125736413,3.9382876791039787,-1.0625329752215313,-2.6245191687930256,-6.676753511820683,18.057724694287018
7.397859002527452,3.871520143985772,-1.0887781669094616,-2.4439419218501555,-6.138808311622322,17.1413570727643
7.43657420396731,3.810132060869549,-1.1132175861279632,-2.2725283511225123,-5.7284119268828535,16.26224996504273
7.474675524576005,3.75284794160072,-1.1359428696391882,-2.109905851472085,-5.437298727568331,15.39640510683697
7.512204003992013,3.698474954325037,-1.157041928153909,-1.9559418004037155,-5.25852613111054,14.5245059033844
7.549188753535263,3.6458896930139315,-1.176601346157946,-1.8106967413698714,-5.185560323265872,13.63186141956679
7.585647650465402,3.594034089781273,-1.1947083135716448,-1.6743781271742035,-5.211502910592797,12.708504354304043
7.621587991363215,3.541919060675345,-1.211452094843387,-1.5472930836311631,-5.328469768850542,11.749327901577276
7.657007181969969,3.4886343629868395,-1.2269250256796986,-1.4297998046153904,-5.527146424951501,10.754152384752082
7.691893525599838,3.4333628987373244,-1.2412230237258526,-1.3222582807678696,-5.796547388491648,9.727625797657735
7.726227154587211,3.375397424852408,-1.2544456065335312,-1.2249820227912922,-6.123999612222774,8.678886274991351
7.759981128835736,3.31415742873018,-1.266695426761444,-1.1381931600413786,-6.495353874871871,7.620949304716261
7.7931227031230375,3.2492038899814615,-1.2780773583618579,-1.061983666994216,-6.8954053553344705,6.569824921414809
7.825614742022852,3.180249836428117,-1.2886971950318,-0.9962854177800679,-7.308480566284822,5.543413930713717
7.857417240387133,3.1071650307652687,-1.2986600492096008,-0.9408512784729307,-7.719127319865621,4.5602696916328425
7.888488890694786,3.0299737575666126,-1.30806856199433,-0.8952485815566023,-8.112832031016023,3.6383360472193966
7.918788628270452,2.9488454372564523,-1.317021047809896,-0.8588652210844083,-8.476687117350618,2.7937782059939797
7.948277082643016,2.864078566082946,-1.32560970002074,-0.8309274390244685,-8.79994075539958,2.0400111344749567
7.976917868303845,2.77607915852895,-1.3339189744109847,-0.8105273276797189,-9.07437966688477,1.387002568133783
8.004678659889134,2.6853353618601026,-1.342024247687782,-0.796657301998381,-9.294519182387942,0.8408910990087083
8.031532013507734,2.5923901700362233,-1.3499908207077658,-0.7882483910082939,-9.457599254972965,0.40392104947415364
8.057455915208097,2.4978141774864935,-1.3578733046178486,-0.7842091805135524,-9.563406522946249,0.07466147483802162
8.082434056982962,2.4021801122570308,-1.3657153964229842,-0.7834625657651721,-9.613958253099511,-0.15154871139500112
8.106455858105532,2.306040529726036,-1.373550022080636,-0.7849780528791221,-9.613092773696698,-0.28200158686065324
8.129516263402792,2.209909601989069,-1.3813998026094272,-0.7877980687477287,-9.566012923110012,-0.32594204299995533
8.151615359422683,2.114249472757969,-1.3892777832969045,-0.7910574891777283,-9.478825217649506,-0.29387913378788977
8.172757854150262,2.0194612205814737,-1.397188358188682,-0.7939962805156072,-9.35810960469869,-0.19694258561135716
8.192952466356077,1.9258801245344868,-1.4051283209938379,-0.7959657063717208,-9.210544718352216,-0.046323883544843326
8.212211267601422,1.8337746773509647,-1.4130879780575551,-0.7964289452071692,-9.042603234190512,0.14717530645555071
8.230549014374931,1.7433486450090596,-1.4210522675096269,-0.7949571921426137,-8.860322576945535,0.3734795300386413
8.247982500825023,1.6547454192396043,-1.429001839431053,-0.7912223968422273,-8.669148726648457,0.6234647259278094
8.26452995501742,1.5680539319731197,-1.4369140633994752,-0.7849877495829491,-8.473845567856229,0.8890843737771328
8.280210494337151,1.4833154762945575,-1.4447639408953048,-0.7760969058451778,-8.278459106247725,1.163413479274939
8.295043649100096,1.4005308852320804,-1.4525249099537565,-0.7644627710524283,-8.086324637376968,1.4406289877674092
8.309048957952417,1.3196676388583106,-1.4601695376642807,-0.7500564811747542,-7.9001051508387645,1.7159447090557125
8.322245634341,1.240666587349923,-1.4676701024760281,-0.732897034084197,-7.721850413997107,1.9855168723794963
8.334652300214499,1.1634480832099519,-1.47499907281687,-0.713041865360402,-7.553067871737826,2.2463336968109036
8.346286781046599,1.0879174044925737,-1.4821294914704741,-0.6905785283922931,-7.394798378502943,2.4960993927673374
8.357165955091524,1.0139694207075443,-1.489035276754397,-0.6656175344646197,-7.247691602804377,2.7331201739953315
8.367305649298599,0.9414925046795005,-1.4956914520990432,-0.6382863327246664,-7.112077563245993,2.9561973749041024
8.376720574345393,0.8703717290470406,-1.5020743154262899,-0.6087243589756254,-6.9880320962106754,3.1645307349651928
8.385424291635864,0.8004914080849339,-1.5081615590160462,-0.5770790516259734,-6.875435101764352,3.3576333451657856
8.393429205716714,0.7317370570672904,-1.513932349532306,-0.5435027181743155,-6.774021184584529,3.5352586139335007
8.400746576287387,0.6639968452214451,-1.5193673767140492,-0.5081501320349805,-6.683422838731079,3.697338837265702
8.407386544739602,0.5971626168341343,-1.524448878034399,-0.4711767436623235,-6.603206664142243,3.843934476766402
8.413358170907943,0.5311305501927118,-1.5291606454710223,-0.43273739889465945,-6.532903293801336,3.9751929891582582
8.41866947640987,0.4658015172546984,-1.533488019459969,-0.39298546900307685,-6.472031793756777,4.0913159495236915
8.423327491582416,0.40108119931713065,-1.5374178741499998,-0.3520723095078399,-6.420119307015946,4.192533217196443
8.427338303575587,0.33688000624697123,-1.5409385972450782,-0.3101469773358755,-6.376716673052221,4.279082968473366
8.430707103638056,0.27311283951644905,-1.5440400670184369,-0.2673561476511418,-6.34141068691801,4.35119653509784
8.43343823203322,0.20969873264726896,-1.5467136284949483,-0.2238441823001634,-6.313833579736741,4.409087121417069
8.435535219359693,0.14656039684990155,-1.54895207031795,-0.1797533110859927,-6.293670215075503,4.4529416127641275
8.437000823328193,0.08362369469914652,-1.55074960342881,-0.13522389495835144,-6.280663409280998,4.482914824718822
8.437837060275184,0.020817060606336535,-1.5521018423783934,-0.09039474671116321,-6.274617701584424,4.499125673032983
8.438045230881247,-0.04192911640950771,-1.553005789845505,-0.04540348998083338,-6.275401823068903,4.501654865423361
8.437625939717153,-0.10468313464019674,-1.5534598247453133,-0.0003869413265997698,-6.282950042577118,4.490543829213368
8.43657910837075,-0.16751263506596792,-1.5534636941585793,0.04451849696553391,-6.297262501591495,4.465794694198921
8.43490398202009,-0.23048526008188286,-1.553018509188924,0.08917644390752312,-6.31840458778271,4.427371250095608
8.432599129419271,-0.29366930595970997,-1.5521267447498488,0.1334501564084792,-6.346505336731712,4.375200894856893
8.429662436359674,-0.3571343593270271,-1.550792243185764,0.17720216535704814,-6.38175479160024,4.30917768654343
8.426091092766404,-0.4209519072430295,-1.5490202215321935,0.22029394222248244,-6.424400189601679,4.22916670972013
8.421881573693973,-0.4851959091390463,-1.5468172821099688,0.2625856093196837,-6.4747407805344945,4.135010069750579
8.417029614602583,-0.5499433169443912,-1.544191426016772,0.3039357100171895,-6.53312101526657,4.0265349365435235
8.41153018143314,-0.615274527097057,-1.5411520689166,0.34420105938262474,-6.5999217703620845,3.9035641741671907
8.40537743616217,-0.6812737448006778,-1.5377100583227739,0.38323670112429664,-6.67554919936542,3.765930213926704
8.398564698714162,-0.748029236794332,-1.5338776913115308,0.4208960032635637,-6.760420723229622,3.6134929537960048
8.39108440634622,-0.8156334440266282,-1.5296687312788952,0.45703093280152374,-6.854947595453206,3.4461625916673957
8.382928071905953,-0.8841829199811603,-1.52509842195088,0.4914925587181977,-6.959513407634686,3.2639284151985706
8.374086242706142,-0.9537780540575072,-1.5201834963636982,0.5241318428701834,-7.074447847684419,3.066894663587711
8.364548462165567,-1.0245225325343514,-1.5149421779349963,0.5548007895060606,-7.199994999485273,2.8553246263771896
8.354303236840224,-1.0965224825292041,-1.5093941700399356,0.5833540357698325,-7.336275498337514,2.6296941232199535
8.343338012014932,-1.1698852375125792,-1.5035606296822372,0.609650977002032,-7.483241956279418,2.390755378599186
8.331639159639806,-1.2447176570753733,-1.497464119912217,0.6335585307880238,-7.640627277325676,2.1396120182309657
8.319191983069052,-1.3211239298486301,-1.4911285346043368,0.6549546509703335,-7.807885833264315,1.8778054101784627
8.305980743770565,-1.3992027881812732,-1.4845789880946334,0.6737327050721181,-7.98412800907653,1.607411786100259
8.291988715888753,-1.4790440682720385,-1.4778416610439122,0.6898068229331207,-8.168049397194729,1.3311484363376196
8.277198275206032,-1.5607245622439858,-1.470943592814581,0.7031183072964968,-8.357856959136258,1.0524857142218123
8.261591029583593,-1.6443031318353485,-1.463912409741616,0.7136431644387149,-8.551195801260189,0.7757595721001671
8.24514799826524,-1.7298150898479503,-1.456775978097229,0.7214007601597165,-8.745081814658382,0.5062768948878996
8.22784984736676,-1.8172659079945341,-1.4495619704956317,0.7264635291085956,-8.93584724014454,0.25040308712891046
8.209677188286815,-1.9066243803959795,-1.4422973352045458,0.7289675599798847,-9.119108095007212,0.015618412728508762
8.190610944482854,-1.9978154613460517,-1.435007659604747,0.7291237441071698,-9.289764100444694,-0.1894731622225043
8.170632789869394,-2.090713102350499,-1.4277164221636753,0.7272290124849448,-9.442042933952473,-0.35520088934746513
8.14972565884589,-2.1851335316900236,-1.420444132038826,0.7236770035914701,-9.569600860278815,-0.470968784434828
8.12787432352899,-2.2808295402928116,-1.4132073620029113,0.7189673157471218,-9.665690573140397,-0.5254990514249586
8.105066028126062,-2.3774864460242155,-1.40601768884544,0.7137123252328722,-9.72340393595301,-0.5071900273575893
