th1 (rad),w1 (rad/s),th2 (rad),w2 (rad/s)
3.2143721677128423,-1.68899388433676,0.48324942663947423,2.4759341530966728
3.197482228869475,-1.7248159618793983,0.5080087681704409,2.408934538134523
3.1802340692506808,-1.7631018373939036,0.5320981135517862,2.3398214552552656
3.1626030508767418,-1.803270411844586,0.5554963281043388,2.2694496551396597
3.1445703467582957,-1.8448252621965493,0.5781908246557353,2.1985732055589104
3.1261220941363304,-1.8873549077919034,0.6001765567113244,2.1278444835087678
3.1072485450584115,-1.9305290233670516,0.6214550015464121,2.057818609165911
3.087943254824741,-1.9740920165374205,0.6420331876380712,1.9889614732441216
3.0682023346593668,-2.01785515022067,0.6619228023705124,1.921659819349079
3.04802378315716,-2.06168811830953,0.6811394005640031,1.8562321969066629
3.027406901974065,-2.1055107227580954,0.6997017225330697,1.7929399381086164
3.0063517947464837,-2.14928507733708,0.7176311219141559,1.7319976019470131
2.984858943973113,-2.1930085870433187,0.734951097933626,1.6735825579966896
2.96292885810268,-2.2367078219368293,0.7516869235135929,1.617843553102283
2.9405617798833115,-2.2804333141765905,0.7678653590446157,1.5649082231722964
2.9177574467415455,-2.324255249375055,0.7835144412763387,1.514889590040692
2.894514894247795,-2.3682599901883177,0.7986633371767456,1.4678916300193747
2.8708322943459117,-2.4125473543613456,0.8133422534769394,1.4240140252869118
2.8467068208022983,-2.45722856565155,0.8275823937298086,1.3833562188876958
2.822134535145783,-2.5024247999089626,0.8414159559186856,1.3460208943818062
2.7971102871466935,-2.5482662570391166,0.8548761648625036,1.3121169961137342
2.7716276245763023,-2.594891700523795,0.8679973348236409,1.2817623984672684
2.7456787075710642,-2.6424484182731467,0.8808149588083136,1.2550863242273238
2.719254223388333,-2.6910925710193454,0.8933658220505869,1.2322316044850194
2.6923432976781396,-2.740989906805673,0.9056881380954371,1.2133568661311773
2.6649333986100827,-2.7923168321981184,0.9178217067567489,1.1986387282876159
2.6370102302881016,-2.8452618426288567,0.929808094039625,1.1882740861964562
2.608557611861813,-2.9000273258317026,0.9416908349015897,1.1824825601205537
2.579557338603496,-2.9568317637190735,0.9535156605027952,1.1815091875338837
2.549989020966305,-3.01591236928586,0.965330752378134,1.1856274389288075
2.5198298972734468,-3.077528206056984,0.9771870267674221,1.195142640267242
2.489054615212877,-3.141963847769745,0.9891384531700945,1.2103958872961462
2.4576349767351795,-3.209533644415419,1.001242412043056,1.23176853665929
2.425539640291025,-3.2805866655633134,1.013560097409649,1.259687352621906
2.392733773635392,-3.355512389619629,1.026156970935868,1.2946303706434623
2.3591786497391958,-3.4347471923004256,1.0391032746423026,1.3371335005154634
2.3248311778161916,-3.518781648722756,1.052474609647457,1.3877978164647866
2.289643361328964,-3.608168583412171,1.066352587812105,1.447297343004492
2.253561675494842,-3.7035316511892113,1.0808255612421498,1.5163868991909342
2.21652635898295,-3.8055739588659243,1.0959894302340591,1.5959091367796034
2.178470619394291,-3.915085758585108,1.1119485216018552,1.6867991777077829
2.13931976180844,-4.032949418640266,1.128816513378933,1.7900840229170685
2.098990267622037,-4.160138478217057,1.1467173536081037,1.9068718423371018
2.0573888828398665,-4.297705254194463,1.1657860720314748,2.03832284901555
2.014411830297922,-4.4467476341956065,1.1861693005216303,2.1855879262295073
1.9699443539559658,-4.608339578657824,1.2080251797839254,2.349692425558578
1.9238609581693875,-4.783400560630487,1.2315221040395112,2.5313293468610865
1.8760269525630826,-4.972466215499298,1.2568353975081221,2.7305078577485093
1.8263022904080897,-5.175307551024354,1.2841404760856072,2.9459823865318304
1.7745492148978461,-5.390337519821261,1.3136002999509255,3.174376442634141
1.7206458396996336,-5.613765707838184,1.345344064377267,3.4089485242770525
1.6645081826212518,-5.838566755749424,1.3794335496200374,3.638099782944626
1.6061225150637575,-6.053593697988689,1.4158145474494837,3.844105067816189
1.5455865780838707,-6.243615900067569,1.4542555981276455,4.003191256259872
1.483150419083195,-6.391416220690385,1.4942875106902442,4.088594172782214
1.419236256876291,-6.482534477559075,1.5351734524180665,4.077444034961263
1.3544109121007004,-6.5111077651624,1.575947892767679,3.9592761696065137
1.2892998344490765,-6.48297072334501,1.6155406544637443,3.7406748810131165
1.2244701272156264,-6.413244327144141,1.6529474032738753,3.442028272427261
1.160337683944185,-6.3201694889861555,1.687367685998148,3.0888097080390358
1.0971359890543235,-6.219576860223906,1.7182557830785383,2.703623630562192
1.0349402204520846,-6.12245178117865,1.7452920193841603,2.302587373980894
0.973715702640298,-6.0350764446382605,1.7683178931239694,1.8953974260107134
0.9133649381939154,-5.960236797683484,1.7872718673840764,1.4869696575746136
0.8537625702170806,-5.89847091805439,1.8021415639598226,1.07919706285769
0.7947778610365367,-5.848993742479217,1.8129335345883995,0.6722878996659847
0.7362879236117446,-5.810282599356114,1.8196564135850593,0.2656442459328762
0.6781850976181835,-5.780413674650278,1.822312856044388,-0.14160382009240058
0.6203809608716807,-5.757240948595247,1.820896817843464,-0.5502868986161302
0.5628085513857283,-5.738483984186948,1.8153939488573025,-0.9610195368165515
0.5054237115438588,-5.721767050622947,1.805783753489137,-1.3741026736919295
0.4482060410376293,-5.70463533460803,1.7920427267522177,-1.7894732820104202
0.39115968769154896,-5.684563530362976,1.7741479939321134,-2.206684016655883
0.3343140523879192,-5.658965828651298,1.7520811537655545,-2.6249044255762195
0.27772439410140626,-5.625212543215947,1.7258321095097924,-3.0429401740391944
0.2214722686692468,-5.58065619381863,1.6954027077694005,-3.4592692309897566
0.1656657067310605,-5.5226681340250225,1.660810015459503,-3.8720949588076583
0.1104390253908103,-5.448685395795442,1.6220890658714264,-4.279416073311819
0.05595217143285588,-5.3562661408182155,1.5792949051383083,-4.6791128430695075
0.002389510024673719,-5.243150901724958,1.5325037767076133,-5.069047922259211
-0.05004199899257586,-5.107325685200572,1.481813297485021,-5.4471790630072645
-0.10111525584458159,-4.947082064876746,1.4273415068549484,-5.811679818937754
-0.15058607649334904,-4.761068716701824,1.3692247086655709,-6.16106341385842
-0.1981967636603673,-4.548328557260321,1.3076140745269866,-6.494304384391467
-0.24368004923297049,-4.30831584171303,1.242671030683072,-6.810952573617047
-0.28676320765010077,-4.040888334902886,1.1745615049469014,-7.1112346791694465
-0.32717209099912964,-3.74627100065383,1.1034491581552068,-7.396139900873093
-0.3646348010056679,-3.424989500533185,1.029487759146476,-7.667488237803338
-0.3988846960109998,-3.0777740327896037,0.9528128767684425,-7.927982441667698
-0.42966243633889584,-2.70543655563676,0.8735330523517655,-8.181247110716733
-0.4567168018952634,-2.3087272584734495,0.7917205812445982,-8.431860149142018
-0.4798040744799979,-1.8881797391470965,0.707401979753178,-8.685381509269675
-0.49868587187146884,-1.4439601535056128,0.6205481646604812,-8.94837936198283
-0.5131254734065249,-0.9757470555537638,0.531064371040653,-9.228439814573498
-0.5228829439620626,-0.4826931949232797,0.438779972894918,-9.534113067021943
-0.5277098759112954,0.03642636333365862,0.34343884222469856,-9.87467566641139
-0.5273456122779587,0.5826633338088814,0.24469208556058464,-10.259433345722087
-0.5215189789398699,1.1555014670898847,0.14209775210336378,-10.69597608278002
-0.5099639642689711,1.7497753047795568,0.03513799127556359,-11.18623003500205
-0.4924662112211755,2.349539596623505,-0.0767243090744569,-11.718391106551241
-0.46897081525494044,2.917661511997038,-0.19390822013996933,-12.252901964900673
-0.43979420013497006,3.383717624294323,-0.3164372397889761,-12.70567528235558
-0.4059570238920268,3.6455535230359484,-0.44349399261253186,-12.949113651223689
-0.3695014886616673,3.6130662945884726,-0.5729851291247687,-12.86961018400525
-0.3333708257157826,3.2846893114146805,-0.7016812309648213,-12.468497773704579
-0.3005239326016358,2.761641197700926,-0.826366208701867,-11.878422235638087
-0.27290752062462653,2.166045890034213,-0.9451504310582479,-11.252933114126506
-0.2512470617242844,1.5746416801871943,-1.057679762199513,-10.681547680398628
-0.23550064492241246,1.0182319536986877,-1.1644952390034993,-10.193191847309508
-0.2253183253854256,0.5032579588859958,-1.2664271574765944,-9.78658135517429
-0.22028574579656562,0.026915917944555334,-1.3642929710283374,-9.45022185390333
-0.22001658661712006,-0.41594674226559525,-1.4587951895673705,-9.170974356773113
-0.22417605403977603,-0.8302737440135044,-1.5505049331351017,-8.936902362078051
-0.23247879147991107,-1.2200390933589436,-1.6398739567558822,-8.737895296505943
-0.2446791824135005,-1.5881471280777868,-1.7272529097209417,-8.565560361974786
-0.2605606536942784,-1.9365482558972142,-1.8129085133406895,-8.412936353047023
-0.2799261362532505,-2.266408075293218,-1.8970378768711598,-8.274213774245991
-0.3025902170061827,-2.5782756175843886,-1.9797800146136197,-8.1445110638839
-0.32837297318202663,-2.872235703443991,-2.061225125252459,-8.01971086001521
-0.35709533021646656,-3.1480434854324786,-2.141422233852611,-7.896346431617037
-0.38857576507079133,-3.405242653105301,-2.2203856981687813,-7.771525680286663
-0.42262819160184434,-3.6432688545035874,-2.298100954971648,-7.642880960506744
-0.45906088014688023,-3.861539079508761,-2.374529764576715,-7.508534786548545
-0.49767627094196787,-4.05952698394146,-2.4496151124422005,-7.367073484970237
-0.5382715407813825,-4.236823727646593,-2.523285847291903,-7.217522800224053
-0.5806397780578484,-4.393183911872802,-2.5954610752941436,-7.05932131229885
-0.6245716171765764,-4.528556562924614,-2.666054288417132,-6.892289236579824
-0.6698571828058225,-4.643101692091568,-2.73497718078293,-6.716591683513868
-0.7162881997267382,-4.737193618679079,-2.802143097618069,-6.532696686442262
-0.763660135913529,-4.811412838047329,-2.8674700644824913,-6.341329202006159
-0.8117742642940022,-4.866528649308305,-2.930883356502553,-6.143422825218522
-0.8604395507870852,-4.903474974248209,-2.9923175847547383,-5.940071159734229
-0.9094743005295673,-4.923321794243085,-3.051718296352081,-5.732480700448112
-0.9587075184719982,-4.927244437807384,-3.1090431033565618,-5.521926802261785
-1.007979962850072,-4.9164926236011555,-3.1642623713791798,-5.309713914655188
-1.0571448890860837,-4.892360765158671,-3.2173595105257315,-5.097140836712948
-1.1060684967376704,-4.856160631480744,-3.268330918892861,-4.8854713522213125
-1.154630103052478,-4.809197075342332,-3.3171856324150744,-4.675910276606697
-1.2027220738059012,-4.752747215427216,-3.3639447351811413,-4.469584702090318
-1.2502495459601735,-4.688043200489607,-3.4086405822020445,-4.267530062859363
-1.2971299779650696,-4.616258493116393,-3.451315882830638,-4.070680546231206
-1.3432925628962336,-4.538497479374184,-3.49202268829295,-3.8798633321907
-1.3886775376899754,-4.45578812733463,-3.530821321614857,-3.6957961358513165
-1.4332354189633216,-4.369077370451636,-3.5677792829733703,-3.519087541629232
-1.476926192667838,-4.279228870711807,-3.6029701583896627,-3.3502396443545157
-1.5197184813749562,-4.187022813301059,-3.6364725548332077,-3.1896525450211985
-1.5615887095079668,-4.093157393391062,-3.6683690802834197,-3.037630284179933
-1.6025202834418775,-3.9982516726039963,-3.698745383125219,-2.8943878328091044
-1.6425028001679174,-3.9028495051817322,-3.72768926145331,-2.760058798553231
-1.6815312952197348,-3.807424260142003,-3.7552898494388423,-2.6347035444617837
-1.7196055378211548,-3.7123840944897935,-3.78163688488346,-2.518317457624305
-1.7567293787660527,-3.618077562819806,-3.806820059459703,-2.410839145890713
-1.7929101543942507,-3.5247993794357635,-3.83092845091861,-2.312158381396171
-1.8281581481886084,-3.4327961795194697,-3.854050034732572,-2.222123648895515
-1.862486109983803,-3.342272155077526,-3.876271271221527,-2.1405491939330785
-1.8959088315345782,-3.253394468663432,-3.8976767631608578,-2.0672214997128577
-1.9284427762212126,-3.1662983726593126,-3.9183489781579866,-2.001905151479625
-1.9601057599478058,-3.0810919838241904,-3.938368029672783,-1.944348072821627
-1.9909166797860476,-2.9978606816753492,-3.957811510400999,-1.8942861393774417
-2.020895286602801,-2.9166711150340334,-3.9767543717947738,-1.8514471920363567
-2.0500619977531414,-2.8375748138455656,-3.995268843715137,-1.8155544841258695
-2.078437745891597,-2.760611413393551,-4.013424388556396,-1.7863296056883928
-2.1060438600255327,-2.6858115055573752,-4.03128768461328,-1.7634949332570664
-2.1329019750811065,-2.6131991371409997,-4.048922633945851,-1.7467756560815735
-2.1590339664525167,-2.542793978870791,-4.066390390506666,-1.7359014300613653
-2.1844619062412245,-2.474613190753269,-4.08374940480728,-1.7306077092172683
-2.2092080381487573,-2.4086730104082212,-4.1010554818994525,-1.7306368018246272
-2.2332947682528395,-2.344990091022457,-4.118361849917699,-1.7357386947331839
-2.256744669163064,-2.283582614939424,-4.135719236865031,-1.7456716852383136
-2.2795804953124583,-2.224471207804845,-4.1531759537174135,-1.7602028554104279
-2.3018252073905066,-2.167679676784672,-4.170777982271518,-1.7791084192423696
-2.323502004158353,-2.1132355947801287,-4.188569066463941,-1.802173968495925
-2.3446343601061543,-2.0611707508755264,-4.206590806148901,-1.8291946388324052
-2.3652460676149096,-2.0115214855317927,-4.224882752537225,-1.859975213777004
-2.3853612824702277,-1.9643289273246256,-4.243482504674994,-1.8943301803418082
-2.405004571743474,-1.9196391463460714,-4.262425806478412,-1.9320837467445056
-2.4242009632069346,-1.8775032377541305,-4.281746643945858,-1.973069829617978
-2.442975995584476,-1.8379773473689762,-4.301477342242038,-2.017132015405651
-2.4613557690581658,-1.8011226496718744,-4.321648662396094,-2.064123498264452
-2.4793669955548845,-1.7670052870547737,-4.3422898973787385,-2.113906994730138
-2.4970370484254323,-1.7356962776829892,-4.36342896732604,-2.1663546336124035
-2.514394011202262,-1.7072713978575451,-4.385092513662164,-2.221347818050187
-2.5314667251808376,-1.6818110432846933,-4.407305991842666,-2.2787770553400004
-2.5482848356136847,-1.6594000721659703,-4.430093762396066,-2.3385417490204077
-2.5648788363353443,-1.640127631502672,-4.45347917988627,-2.4005499467231255
-2.581280112650371,-1.6240869664559199,-4.477484679353501,-2.4647180364565604
-2.59752098231493,-1.6113752110125636,-4.502131859718067,-2.53097038324459
-2.6136347344250557,-1.6020931565766396,-4.5274415635505125,-2.5992388973798652
-2.629655665990822,-1.596344993438857,-4.553433952524311,-2.6694625249500774
-2.6456191159252107,-1.5942380183808218,-4.580128577773812,-2.7415866507476254
-2.661561496109019,-1.5958822999609785,-4.607544444281288,-2.815562403176986
-2.6775203191086288,-1.6013902913280083,-4.635700068313058,-2.8913458503394054
-2.693534222021909,-1.6108763787467615,-4.664613526816452,-2.9688970761239557
-2.7096429858093765,-1.6244563524454998,-4.6943024975776915,-3.0481791249053103
-2.7258875493338315,-1.6422467849592628,-4.724784288826744,-3.129156803397224
-2.7423100171834243,-1.6643643009272364,-4.756075856860717,-3.211795328411929
-2.7589536601926965,-1.6909247213962348,-4.788193810144836,-3.2960588098265724
-2.7758629074066588,-1.7220420652038502,-4.8211543982431015,-3.3819085590785196
-2.7930833280586973,-1.7578273901032666,-4.854973483833887,-3.469301215145149
-2.81066160195973,-1.7983874571114213,-4.889666495985338,-3.5581866823753066
-2.8286454765308444,-1.8438232033005924,-4.925248362809091,-3.648505877910914
-2.8470837085638503,-1.8942280111172056,-4.9617334215882005,-3.7401882909596678
-2.8660259886750223,-1.9496857665183251,-4.9991353044977975,-3.833149362041896
-2.8855228463402054,-2.0102687039812563,-5.037466798118216,-3.927287697703881
-2.905625533380018,-2.076035043957992,-5.076739675095255,-4.0224821451878885
-2.926385883819598,-2.1470264377569297,-5.116964496547134,-4.118588762218847
-2.9478561481971677,-2.223265246196358,-5.158150384169323,-4.215437729333741
-2.970088800659131,-2.304751691614125,-5.20030476146266,-4.312830265802013
-2.993136317575272,-2.391460937680623,-5.24343306412068,-4.4105356247079275
-3.0170509269520784,-2.483340167457057,-5.287538420367759,-4.508288257468821
-3.041884328626649,-2.5803057464904566,-5.332621302942447,-4.605785251921861
-3.0676873860915537,-2.6822405733379564,-5.378679155461666,-4.702684159776426
-3.094509791824933,-2.7889917333224297,-5.42570599705943,-4.798601337037084
-3.1223997091581572,-2.9003685807807207,-5.473692010429801,-4.893110923038417
-3.1514033949659646,-3.0161413785787734,-5.522623119660185,-4.985744577953174
-3.181564808751752,-3.1360406191479164,-5.572480565439717,-5.075992083060394
-3.212925214943231,-3.259757136785853,-5.623240486270321,-5.163302881047228
-3.2455227863110894,-3.3869430949271315,-5.674873515080793,-5.247088594192649
-3.279392217260361,-3.517213893746195,-5.7273444010227195,-5.3267265065056115
-3.3145643561978226,-3.6501509931549783,-5.7806116660877755,-5.401563933216169
-3.3510658661293724,-3.78530558577113,-5.834627305419938,-5.470923330560696
-3.388918921987084,-3.922202987169213,-5.889336538725544,-5.5341079254575405
-3.428140951858776,-4.060347541743385,-5.94467761798012,-5.59040757500715
-3.46874442727621,-4.199227778294554,-6.000581693730192,-5.639104507637549
-3.5107367050591556,-4.338321497446929,-6.056972738806567,-5.679478559663069
-3.554119920033625,-4.477100440875237,-6.1137675244031975,-5.710811511317269
-3.5988909244423772,-4.6150341871378435,-6.17087563951637,-5.732390152042421
-3.6450412663137555,-4.751592946213934,-6.228199541036794,-5.743507770918542
-3.692557195775895,-4.886248987943435,-6.28563461874598,-5.743463876694773
-3.7414196856553295,-5.018476539069337,-6.343069257512927,-5.73156210181228
-3.7916044510460227,-5.147750117274197,-6.40038487853105,-5.707106431707343
-3.843081952218765,-5.273541433700476,-6.4574559428481235,-5.669396117234
-3.89581736655577,-5.395315181041106,-6.514149904020464,-5.617719864370395
-3.949770518366181,-5.512524223805601,-6.570327102664168,-5.5513501392514115
-4.004895760604237,-5.62460491074023,-6.625840604056682,-5.469538663162204
-4.061141809711639,-5.730973424700495,-6.680535990688305,-5.371514382984241
-4.118451543958644,-5.831024257776406,-6.734251134518147,-5.256485363916688
-4.1767617865364075,-5.924132029916483,-6.786815988157314,-5.1236461317883215
-4.236003106835573,-6.009657932134037,-6.838052449475197,-4.972191951215569
-4.2960996861569125,-6.086962037482027,-6.887774368987353,-4.801341312864978
-4.356969306531733,-6.155422544205773,-6.9357877821160026,-4.610367461269338
-4.418523531973791,-6.214462652668943,-6.981891456728696,-4.398639069492432
-4.48066815850048,-6.263585193763653,-7.0258778474236205,-4.165669122617871
-4.543304010438116,-6.302414305932519,-7.0675345386498,-3.91116971580049
-4.606328153497441,-6.33074242704118,-7.106646235807805,-3.63510888434436
-4.669635577767853,-6.348579716429225,-7.142997324651248,-3.3377639424295724
-4.733121374932145,-6.3562019205324285,-7.176374964075544,-3.0197644034717204
-4.796683394137469,-6.354191886108316,-7.206572608110261,-2.6821167658669918
-4.860225312998552,-6.3434696917443425,-7.233393775768931,-2.3262036669295014
-4.923660009915996,-6.325306964324664,-7.256655812438226,-1.9537514268260994
-4.986913079559242,-6.301322501619401,-7.276193326706487,-1.5667628705780288
-5.049926304575436,-6.273458752327613,-7.291860955412267,-1.1674162198936862
-5.112660892098712,-6.243941678030575,-7.303535117611204,-0.7579351024666423
-5.175100308879018,-6.21522950356095,-7.3111144686358704,-0.34043839498318956
-5.237252603914627,-6.189958257971944,-7.314518852585702,0.08321924716493745
-5.2991521864943465,-6.1708933513462005,-7.313686660114053,0.5116053705298544
-5.360861120007809,-6.160896550756664,-7.308570606408755,0.9438577964829624
-5.422470085515376,-6.162916799026709,-7.299132028443925,1.3798186892560929
-5.484099253505643,-6.180011844041131,-7.285333841551364,1.8201559902171343
