th1 (rad),w1 (rad/s),th2 (rad),w2 (rad/s),a1 (rad/s^2),a2 (rad/s^2)
3.821543951477761,1.5036242328047689,0.8267935773495129,2.2647785588096436,4.667551757459067,-2.262362199793501
3.836580193805809,1.5502997503793596,0.8494413629376093,2.2421549368117084,4.759344831331565,-2.2865008359164234
3.8520831913096023,1.5978931986926752,0.8718629123057264,2.219289928452544,4.866444574436081,-2.288724444736767
3.868062123296529,1.646557644437036,0.8940558115902518,2.1964026840051765,4.988195591861129,-2.2697171615807648
3.8845276997408993,1.6964396003556472,0.9160198384303035,2.1737055123893687,5.123917811804291,-2.2302080661395114
3.9014920957444557,1.7476787784736902,0.9377568935541972,2.1514034317279735,5.272912457931075,-2.170967299076487
3.9189688835291925,1.800407903053001,0.9592709278714769,2.1296937587372087,5.434465143090762,-2.0928061618906737
3.9369729625597225,1.8547525544839085,0.980567865458849,2.1087656971183018,5.607846092415684,-1.9965811935898472
3.9555204881045616,1.9108310154080654,1.001655522430032,2.0887998851824032,5.7923075265636115,-1.883202201255475
3.9746287982586423,1.9687540906737016,1.022543521281856,2.0699678631698486,5.987078247497947,-1.7536442170349822
3.9943163391653793,2.028624873148681,1.0432431999135545,2.0524314209994987,6.191355473320983,-1.6089633563975827
4.014602587896866,2.090538427881891,1.0637675141235494,2.0363417874355227,6.404293968928698,-1.450316556410845
4.035507972175685,2.154581367571178,1.0841309319979047,2.021838621871414,6.624992519282511,-1.2789851729950217
4.057053785851396,2.220831292764003,1.1043493182166189,2.009048770141464,6.852477795502949,-1.096402407107413
4.0792620987790364,2.289356070719032,1.1244398059180334,1.9980847460703897,7.085685674374225,-0.904184505909506
4.102155659486227,2.3602129274627743,1.1444206533787373,1.9890429010112947,7.323440092819397,-0.7041656401964594
4.125757788760855,2.4334473283909683,1.1643110823888503,1.98200124460933,7.56442955413554,-0.49843628738603185
4.1500922620447644,2.5090916239323238,1.1841310948349435,1.9770168817354696,7.807181456047602,-0.28938484342600546
4.175183178284088,2.5871634384927997,1.203901263652298,1.9741230333012096,8.050034485870174,-0.07974203992629177
4.201054812669016,2.6676637833515016,1.22364249398531,1.9733256129019467,8.291109429346042,0.1273724528671634
4.227731450502531,2.750574877644962,1.2433757501143297,1.9745993374306183,8.52827887132522,0.3284021087193362
4.25523719927898,2.8358576663582142,1.263121743488636,1.9778833585178117,8.759136432801094,0.5193055013749324
4.283595775942563,2.9234490306862253,1.282900577073814,1.983076413531561,8.980966394537852,0.6955097093898881
4.312830266249425,3.013258694631604,1.3027313412091297,1.99003151062546,9.190714807340482,0.8518672114393842
4.342962853195741,3.1051658427050084,1.3226316563153844,1.998550182739854,9.384963487723704,0.9826188631516541
4.374014511622791,3.1990154775822455,1.3426171581427828,2.0083763713713707,9.559908649998498,1.08136618194874
4.406004666398614,3.2946145640822304,1.3627009218564965,2.019190033190858,9.711346335803206,1.1410568864954116
4.438950812039436,3.3917280274402626,1.3828928221884051,2.030600602055812,9.834667272826207,1.1539884347615197
4.472868092313838,3.490074700168525,1.4031988282089634,2.042140486403427,9.924864326248144,1.111835162658503
4.507768839315523,3.589323343431006,1.4236202330729977,2.053258838030012,9.976556294522917,1.0057055128262864
4.543662072749833,3.6890889063762353,1.4441528214532977,2.063315893158275,9.984032431528906,0.8262367082847587
4.580552961813596,3.7889292306915245,1.4647859803848804,2.0715782602411226,9.941322720147141,0.5637349849171623
4.618442254120511,3.888342457892996,1.4855017629872915,2.077215610090294,9.842299523008993,0.2083700219152602
4.657325678699441,3.9867654531230863,1.5062739190881944,2.079299310309447,9.68081670132734,-0.24956768950426753
4.697193333230672,4.0835736201363595,1.527066912191289,2.076803633414404,9.450892474842485,-0.8193383920756464
4.738029069432035,4.178082544884784,1.547834948525433,2.0686102494936476,9.14694197560869,-1.509347031819657
4.779809894880883,4.269551964640871,1.5685210510203695,2.053516779175451,8.76406432000079,-2.326656350280721
4.822505414527292,4.357192607840879,1.589056218812124,2.030250215672644,8.298386691926373,-3.2764210871158017
4.866077340605701,4.440176474760143,1.6093587209688505,1.9974860048014857,7.747463932585848,-4.361253258579471
4.910479105353303,4.517651114086002,1.6293335810168654,1.953873472215691,7.110726000246473,-5.580539645810065
4.9556556164941625,4.588758374088466,1.6488723157390224,1.8980680757575903,6.3899570502862915,-6.929747177857139
5.001543200235047,4.652657944591329,1.6678529964965982,1.8287706039790188,5.589778767917364,-8.399769397133726
5.048069779680961,4.7085557322705025,1.6861407025363884,1.7447729100076816,4.718097540514721,-9.976386201340775
5.095155337003666,4.755736707675649,1.7035884316364651,1.6450090479942738,3.78646156862821,-11.639926713542305
5.142712704080423,4.793601323361932,1.7200385221164078,1.5286097808588508,2.8102627160637055,-13.365236974626802
5.190648717314042,4.8217039505225685,1.7353246199249963,1.3949574111125829,1.8087125666220258,-15.122054323900231
5.238865756819268,4.839791076188789,1.749274194036122,1.2437368678735805,0.8045272598019133,-16.87587253205642
5.287263667581156,4.8478363487868075,1.7617115627148578,1.0749781425530163,-0.17672468014021273,-18.589341063086287
5.3357420310690244,4.846069101985405,1.772461344140388,0.8890847319221534,-1.1076210616810327,-20.224177310477767
5.384202722088879,4.834992891368595,1.7813521914596095,0.6868429588173758,-1.9601898368131558,-21.743487881288146
5.432552651002565,4.815390993000463,1.7882206210477833,0.4694080800044943,-2.7074179314431386,-23.114307548252075
5.480706560932569,4.7883168136860315,1.7929147018478282,0.23826500452197355,-3.3248109582032894,-24.31009263072108
5.52858972906943,4.755068704103999,1.795297351893048,-0.004835921785237257,-3.7918149501821965,-25.312871609782007
5.57614041611047,4.717150554602177,1.7952489926751956,-0.25796463788305735,-4.092908700155271,-26.114776664152394
5.623311921656492,4.676221467600624,1.792669346296365,-0.5191124045245813,-4.218210600273028,-26.71875953773368
5.670074136332498,4.634039361597893,1.7874782222511192,-0.786299999901918,-4.163512128509935,-27.138420757642024
5.7164145299484765,4.592404240312794,1.7796152222521,-1.0576842074783381,-3.929736082882552,-27.3970250460563
5.762338572351604,4.553106879483968,1.7690383801773166,-1.3316544579389011,-3.5219003127053248,-27.52590395855054
5.807869641146444,4.517887876356915,1.7557218355979276,-1.6069134975244066,-2.9477273015506453,-27.562530724202507
5.853048519910013,4.488410603341409,1.7396527006226836,-1.8825388047664315,-2.2160644774714875,-27.54857784016695
5.897932625943427,4.466249958566694,1.7208273125750193,-2.158024583168101,-1.3352682453531846,-27.528238693497272
5.942595125529094,4.452897276113162,1.6992470667433384,-2.433306970103074,-0.31166460880142466,-27.547027791948867
5.987124098290225,4.449780630025147,1.6749139970423077,-2.7087772480225625,0.8518557711600517,-27.65119349428096
6.031621904590477,4.458299187736748,1.647826224562082,-2.985289182965372,2.157106452273206,-27.887803430338064
6.076204896467845,4.47987025225948,1.6179733327324284,-3.264167217268753,3.6117829954690426,-28.305508761882656
6.121003598990439,4.515988082214171,1.585331660559741,-3.5472223048875793,5.230624019565715,-28.955960555059956
6.166163479812581,4.568294322409828,1.5498594375108652,-3.836781910438179,7.036634708258409,-29.895828478493474
6.211846423036679,4.6386606694924115,1.5114916184064835,-4.135740195223113,9.062418025878394,-31.189330166138728
6.258233029731603,4.7292848497511955,1.4701342164542524,-4.4476334968845,11.351551170002574,-32.911058835944345
6.305525878229115,4.842800361451221,1.4256578814854073,-4.776744085243944,13.959678020955149,-35.14856882032966
6.353953881843627,4.982397141660773,1.3778904406329677,-5.128229773447241,16.95436270899718,-38.00335919875514
6.403777853260235,5.151940768750745,1.3266081428984953,-5.508263365434792,20.41130664458885,-41.58694382967036
6.455297260947742,5.356053835196633,1.2715255092441473,-5.924132803731496,24.401242179228486,-46.004175677003055
6.508857799299709,5.600066256988918,1.2122841812068323,-6.384174560501526,28.95446504066992,-51.30580597185843
6.564858461869598,5.8896109073956175,1.148442435601817,-6.897232620220111,33.974292343630424,-57.37041711755182
6.623754570943554,6.229353830831922,1.079470109399616,-7.470936791395629,39.041142240475175,-63.63443889603085
6.686048109251873,6.6197652532366735,1.0047607414856596,-8.107281180355937,43.01175111913924,-68.53646374249385
6.7522457617842395,7.049882764428066,0.9236879296821002,-8.792645817780876,43.360436212846295,-68.5998406346414
6.82274458942852,7.483487126556529,0.8357614715042915,-9.47864422412729,35.701224739978215,-57.762804689125645
6.897579460694086,7.840499373956312,0.7409750292630186,-10.056272271018546,15.482020448182354,-29.733826159045414
6.975984454433649,7.995319578438135,0.6404123065528331,-10.353610532609,-15.583811018878778,13.053980507260603
7.055937650218031,7.839481468249347,0.5368762012267431,-10.223070727536394,-44.75366175512269,52.86448103835023
7.134332464900524,7.3919448506981205,0.43464549395137914,-9.694425917152891,-59.470022943669484,72.36495209856801
7.208251913407505,6.7972446212614255,0.3377012347798502,-8.970776396167212,-60.33231917543598,72.57796567395553
7.2762243596201195,6.193921429507066,0.24799347081817807,-8.244996739427656,-54.71103214125966,63.82167107139439
7.33816357391519,5.646811108094469,0.1655435034239015,-7.606780028713712,-47.76137367242589,53.234361076537304
7.394631684996135,5.16919737137021,0.08947570313676438,-7.0744364179483386,-41.49767952750291,43.569407823479686
7.446323658709837,4.754220576095181,0.01873133895728099,-6.638742339713541,-36.39027949774573,35.445846027029226
7.49386586447079,4.390317781117723,-0.04765608443985442,-6.284283879443249,-32.38224026107397,28.76276506480954
7.537769042281967,4.066495378506984,-0.11049892323428691,-5.996656228795154,-29.289682210160198,23.251290973010764
7.578433996067037,3.7735985564053816,-0.17046548552223845,-5.764143319065046,-26.92935962815952,18.64857014671435
7.616169981631091,3.504304960123786,-0.2281069187128889,-5.577657617597903,-25.150108422512208,14.739758333737731
7.651213031232329,3.252803875898664,-0.28388349488886794,-5.430260034260526,-23.834398902457735,11.359579132763935
7.683741069991315,3.0144598868740866,-0.3381860952314732,-5.3166642429328865,-22.892220148880753,8.38392860698114
7.7138856688600566,2.785537685385279,-0.39135273766080203,-5.232824956863075,-22.254158902612005,5.7208291205611825
7.741741045713909,2.562996096359159,-0.4436809872294328,-5.175616665657463,-21.865467740074834,3.303106883643298
7.767371006677501,2.3443414189584106,-0.4954371538860074,-5.14258559682103,-21.681345574282172,1.0830380773621016
7.790814420867085,2.127527963215589,-0.5468630098542177,-5.131755216047409,-21.663236660916905,-0.9713579946220481
7.812089700499241,1.9108955966064198,-0.5981805620146917,-5.14146879599363,-21.775904617669088,-2.8787876075776486
7.831198656465305,1.6931365504297289,-0.649595249974628,-5.1702566720694065,-21.985095756619558,-4.64628738479361
7.848130021969602,1.4732855928635333,-0.7012978166953221,-5.216719545917343,-22.255689434785133,-6.270295261699989
7.8628628778982375,1.250728698515682,-0.7534650121544956,-5.279422498534343,-22.550318489284667,-7.737494230254287
7.875370164883394,1.0252255136228354,-0.806259237139839,-5.3567974408368855,-22.828522745115258,-9.025733124246866
7.885622420019622,0.7969402861716828,-0.859827211548208,-5.447054772079354,-23.046566277462762,-10.105335123915426
7.893591822881339,0.5664746233970551,-0.9142977592690015,-5.548108123318508,-23.158092007672092,-10.941098077537305
7.89925656911531,0.3348937033203342,-0.9697788405021865,-5.657519104093882,-23.115785099698723,-11.495241682560092
7.902605506148513,0.10373585232334695,-1.0263540315431254,-5.772471520919483,-22.874144395167185,-11.731432465681715
7.903642864671746,-0.12500559162832492,-1.0840787467523203,-5.8897858455763,-22.39329788513191,-11.61979416590719
7.902392808755463,-0.34893857047964405,-1.1429766052080832,-6.0059837872353725,-21.643543397552737,-11.142492002934096
7.898903423050667,-0.5653740044551714,-1.203036443080437,-6.117408707264714,-20.609988295727344,-10.299117239181767
7.893249683006116,-0.7714738874124448,-1.2642105301530842,-6.220399879656531,-19.296391931272105,-9.110805940867497
7.885534944131991,-0.9644378067251659,-1.3264145289496494,-6.311507939065206,-17.72720966527325,-7.62195458622938
7.875890566064739,-1.1417099033778983,-1.3895296083403015,-6.3877274849275,-15.947014863868901,-5.898673500355305
7.86447346703096,-1.3011800520165875,-1.4534068831895766,-6.446714219931053,-14.016969662263868,-4.023764524474302
7.851461666510794,-1.4413497486392262,-1.5178740253888872,-6.486951865175796,-12.008721085365677,-2.088868197752215
7.837048169024402,-1.561436959492883,-1.5827435440406452,-6.507840547153318,-9.996782599505318,-0.1852008772630137
7.821433799429473,-1.6614047854879361,-1.6478219495121784,-6.509692555925948,-8.050858120229849,1.6053168542239855
7.804819751574593,-1.7419133666902347,-1.712918875071438,-6.493639387383708,-6.229518445471424,3.216910266341213
7.78740061790769,-1.8042085511449488,-1.777855268945275,-6.461470284720296,-4.5761849143420905,4.603787208441007
7.76935853239624,-1.8499704002883697,-1.842469971792478,-6.4154324126358855,-3.1177153231325008,5.740800159390816
7.750858828393357,-1.8811475535196946,-1.9066242959188369,-6.358024411041978,-1.865276791134404,6.621484365895451
7.732047352858159,-1.8998003214310386,-1.9702045400292567,-6.291809567383023,-0.8168092602937598,7.254418997693788
7.713049349643849,-1.907968414033976,-2.033122635703087,-6.219265377406085,0.03972043880681395,7.658909942328986
7.693969665503509,-1.9075712096459079,-2.095315289477148,-6.142676277982795,0.7229623302509606,7.860798765123821
7.67489395340705,-1.9003415863433983,-2.156742052256976,-6.064068290331557,1.2551941497721235,7.8889040785986975
7.655890537543616,-1.887789644845677,-2.2173827351602915,-5.98517924954557,1.6599390183339922,7.772315087022948
7.6370126410951595,-1.8711902546623371,-2.277234527655747,-5.90745609867534,1.9602474618753518,7.538544733375806
7.618300738548536,-1.8515877800435836,-2.3363090886425004,-5.832070651341581,2.1775855065815426,7.212425696477103
7.5997848607481,-1.8298119249777682,-2.3946297951559163,-5.7599463943768106,2.331214602726032,6.815581745787169
7.581486741498322,-1.806499778950508,-2.4522292590996844,-5.6917905769189385,2.43793571268528,6.366304966453909
7.563421743708817,-1.782120421823655,-2.5091471648688737,-5.628127527254399,2.512081148513964,5.879693140335249
7.5456005394905805,-1.7569996103385155,-2.565428440141418,-5.569330595851047,2.565659842049328,5.367934573335641
7.528030543387195,-1.7313430119180222,-2.621121746099928,-5.51565125011769,2.608585892702829,4.840660119684885
7.510717113268015,-1.705257152990994,-2.676278258601105,-5.4672446489208415,2.6489418617072427,4.305309474271163
7.493664541738105,-1.6787677343739216,-2.7309507050903132,-5.42419155417813,2.693245584967404,3.7674796592233375
7.476876864394366,-1.6518352785242476,-2.7851926206320945,-5.3865167575858965,2.746702091626952,3.231238420582723
7.460358511609123,-1.624368257607978,-2.8390577882079535,-5.354204373380069,2.813431134381042,2.6993950814722445
7.444114829033044,-1.5962339462641677,-2.8925998319417543,-5.327210422565347,2.8966666989740455,2.173727508597709
7.428152489570402,-1.5672672792744273,-2.945871936167408,-5.30547314747937,2.9989284822796987,1.6551673405021288
7.412479816777657,-1.5372779944516304,-2.9989266676422015,-5.288921474074349,3.122167396767881,1.1439473703247678
7.397107036833141,-1.5060563204839517,-3.051815882382945,-5.277482000371101,3.2678882009789767,0.6397156131220126
7.382046473628302,-1.4733774384741618,-3.104590702386656,-5.271084844239882,3.4372527521078533,0.14162056287830332
7.36731269924356,-1.4390049109530834,-3.1573015508290547,-5.2696686386110985,3.6311673910886966,-0.3516282481485789
7.352922650134029,-1.4026932370421963,-3.209998237215166,-5.273184921092584,3.850357776835819,-0.8417208486942013
7.338895717763607,-1.364189659273838,-3.2627300864260915,-5.281602129579526,4.095434194859992,-1.3307256898604287
7.325253821170868,-1.3232353173252382,-3.315546107721887,-5.29490938647813,4.366950042356416,-1.8210845201451487
7.312021467997615,-1.2795658169016741,-3.368495201586668,-5.313120231679582,4.665455872787055,-2.315621645912118
7.299225809828599,-1.2329112581738035,-3.421626403903464,-5.336276448138703,4.991551082694907,-2.8175665248591604
7.286896697246861,-1.1829957473468544,-3.474989168384851,-5.364452113387294,5.345935040968257,-3.330589161257481
7.275066739773393,-1.129536396937172,-3.5286336895187236,-5.3977580049998695,5.729459180850051,-3.8588482260403234
7.263771375804021,-1.0722418051286713,-3.5826112695687224,-5.4363464872602725,6.143181266246279,-4.407052188219972
7.253048957752735,-1.0108099924662084,-3.636974734441325,-5.480417009142472,6.588422651989667,-4.9805339684584595
7.2429408578280725,-0.9449257659463117,-3.69177890453275,-5.530222348827056,7.066828792225392,-5.585339619420779
7.23349160016861,-0.8742574780240578,-3.7470811280210206,-5.586075745021264,7.580432362063616,-6.228331134426861
7.224749025388369,-0.7984531544034217,-3.8029418854712334,-5.648359056365533,8.131716895438725,-6.917302391304645
7.216764493844335,-0.7171359854490345,-3.8594254760348887,-5.71753208027858,8.7236763888709,-7.661104938187791
7.209593133989844,-0.6298992215603254,-3.9166007968376744,-5.7941431296604575,9.359862173997266,-8.469775932025573
7.203294141774241,-0.5363005998203527,-3.974542228134279,-5.878840888980713,10.044401336017991,-9.354652512584792
7.197931135776037,-0.4358565864601728,-4.033330637024086,-5.972387414106561,10.781959046528938,-10.328442589814072
7.193572569911435,-0.3280369959948834,-4.0930545111651515,-6.075671840004702,11.57759699903436,-11.405196898547043
7.190292199951486,-0.21226102600453978,-4.153811229565198,-6.1897238089901725,12.436445973668656,-12.60008347015914
7.188169589691441,-0.08789656626785322,-4.2157084676551,-6.315724643691764,13.363052881484277,-13.928790255028092
7.187290624028762,0.045733962546989554,-4.278865714092017,-6.455012546242045,14.360165845435075,-15.406252715729293
7.187747963654232,0.1893356210013403,-4.343415839554438,-6.609075073399338,15.42656041751991,-17.04418598016069
7.189641319864245,0.3436012251765394,-4.409506590288431,-6.779516933200945,16.553250315180538,-18.846543989982173
7.193077332116011,0.5091337283283448,-4.47730175962044,-6.967982373100766,17.71702472147375,-20.801466818788676
7.198168669399294,0.6863039755430823,-4.546981583351448,-7.175997041288653,18.869690430943866,-22.867471182600664
7.205031709154725,0.875000879852521,-4.618741553764334,-7.40467175311466,19.920772455358847,-24.95070471853877
7.213781717953251,1.0742086044061094,-4.6927882712954805,-7.6541788003000475,20.711251952347116,-26.869685672381273
7.224523803997312,1.2813211239295805,-4.769330059298481,-7.9228756570238605,20.977792018884973,-28.30622945388242
7.237337015236608,1.4910990441184302,-4.84855881586872,-8.205937951562685,20.314672838834856,-28.75148426793864
7.252248005677792,1.6942457725067788,-4.930618195384347,-8.49345279424207,18.16094789693749,-27.483337758513315
7.26919046340286,1.8758552514761537,-5.015552723326768,-8.768286171827205,13.8764487696905,-23.660817913722553
7.287949015917621,2.014619739173059,-5.10323558504504,-9.004894350964431,6.996170707787159,-16.657434339951987
7.308095213309352,2.0845814462509304,-5.193284528554684,-9.17146869436395,-2.3269792922243697,-6.648645107237751
7.328941027771862,2.0613116533286866,-5.284999215498323,-9.237955145436327,-12.963030246762171,4.913616080209173
