th1 (rad),w1 (rad/s),th2 (rad),w2 (rad/s)
0.22756182203475103,0.2807075617123149,3.722380991569637,0.10837108539193599
0.23036889765187418,0.2864665782995179,3.723464702423556,0.1678180796278217
0.23323356343486937,0.29181354074005256,3.725142883219834,0.22698036930051105
0.23615169884226989,0.2967471521519115,3.7274126869128392,0.2859036126165052
0.239119170363789,0.3012670764197007,3.7302717230390043,0.34463421860674326
0.242131841127986,0.30537356281719563,3.7337180652250717,0.4032189707965066
0.24518557675615796,0.3090670696387784,3.7377502549330366,0.4617046492472848
0.24827624745254573,0.31234788698113714,3.742367301425509,0.5201376513843368
0.2513997263223571,0.3152157588561977,3.7475686779393524,0.5785636120776749
0.25455188391091904,0.3176695049319228,3.7533543140601293,0.6370270235932097
0.25772857896023826,0.3197066423904658,3.7597245842960616,0.6955708562772247
0.2609256453841429,0.32132300866334423,3.7666802928588337,0.7542361811825087
0.26413887547077636,0.3225123861496626,3.7742226546706585,0.813061796288128
0.267363999332273,0.3232661304431029,3.78235327263354,0.8720838585047459
0.270596660636704,0.3235728040813273,3.7910741112185873,0.9313355242887273
0.2738323886775173,0.3234178183796876,3.8003874664614745,0.990846602402805
0.2770665668613142,0.3227830865083077,3.8102959324855026,1.0506432231465401
0.2802943977263973,0.3216466916021864,3.8208023647169678,1.1107475292190592
0.28351086464241915,0.31998257433766303,3.8319098400091582,1.1711773942468808
0.2867106903857958,0.3177602450398989,3.843621613951627,1.2319461758822874
0.28988829283619477,0.3149445259738432,3.85594107571045,1.2930625112173806
0.2930377380959332,0.31149532997884344,3.868871700822624,1.3545301630241158
0.29615269139572165,0.30736748199277464,3.8824170024528653,1.4163479259737457
0.2992263662156494,0.30251059022916127,3.896580481712603,1.4785096024580795
0.302251472117941,0.29686897377128885,3.911365577737184,1.5410040578747453
0.3052201618556539,0.29038165308109143,3.9267756183159315,1.6038153651940295
0.3081239783864648,0.2829824093401381,3.942813771967872,1.6669230482438988
0.3109538024798662,0.2745999176033751,3.959483002450311,1.7303024323880116
0.31369980165589995,0.2651579574210072,3.9767860267741915,1.7939251100967186
0.31635138123011003,0.254575702851395,3.9947252778751587,1.8577595273085157
0.318897138258624,0.24276809164749746,4.013302873148244,1.9217716944570007
0.321324819175099,0.22964627087235479,4.032520590092814,1.9859260236311265
0.3236212818838225,0.21511811333118736,4.052379850329125,2.0501862906101804
0.32577246301713436,0.19908879607068547,4.072881713235226,2.1145167175677524
0.3277633509778412,0.18146142888730157,4.094026880410904,2.1788831692015376
0.32957796526671423,0.16213771742576502,4.115815712102919,2.2432544520780358
0.3311993424409719,0.14101864217378215,4.1382482566237,2.3076037042665187
0.3326095288627097,0.11800513161536966,4.1613242936663655,2.3719098600736928
0.3337895801788634,0.09299870513895617,4.185043392267103,2.4361591730823897
0.334719567230253,0.0659020591398984,4.209404983997927,2.500346779939794
0.335378587821652,0.03661956821754121,4.234408451797325,2.5644782876083
0.33574478350382736,0.005057672513695724,4.260053234673408,2.628571368228489
0.33579536022896433,-0.028874877907073555,4.286338948355692,2.6926573484513243
0.3355066114498936,-0.0652669502113169,4.313265521840206,2.756782784131626
0.3348539419477804,-0.10420515496567304,4.340833349681522,2.8210110166465903
0.33381189039812365,-0.14577419729736707,4.369043459847988,2.8854237137793537
0.33235414842515,-0.19005747733053008,4.3978976969857815,2.950122406025505
0.3304535736518447,-0.2371379625782717,4.427398921046037,3.0152300382629016
0.328082194026062,-0.2870993537732482,4.457551221428666,3.0808925669017175
0.3252112004883295,-0.34002756518204175,4.4883601470976835,3.1472806438626595
0.3218109248365091,-0.39601254114565065,4.51983295353631,3.2145914410334813
0.31785079942505257,-0.45515043280626194,4.551978867946645,3.2830506823256633
0.31329929509698995,-0.5175461631087687,4.584809374769902,3.352914965296726
0.3081238334659023,-0.5833164145887972,4.618338524422869,3.4244744708423105
0.3022906693200143,-0.6525930835473992,4.652583269131292,3.4980561781466326
0.2957647384845403,-0.725527256304624,4.687563830912759,3.574027723478099
0.28850946592149407,-0.8022937785918438,4.7233041081475395,3.6528020661729736
0.2804865281355756,-0.8830965079176352,4.759832128809269,3.734843153889005
0.27165556305639926,-0.9681743607676814,4.797180560348159,3.820672812343464
0.26197381944872244,-1.0578082910434154,4.835387288471594,3.910879122094247
0.2513957365382883,-1.15232936135585,4.874496079692537,4.006126584988915
0.23987244292472978,-1.2521280906886312,4.914557345542426,4.10716842156239
0.22735116201784347,-1.3576652725494953,4.95562902975805,4.21486136865415
0.2137745092923485,-1.4694844416354906,4.997777643444592,4.3301833448675815
0.1990796648759936,-1.588226095101436,5.041079476893268,4.454254283003361
0.18319740392497924,-1.714643592248001,5.085622019723301,4.588360222033773
0.16605096800249924,-1.849620262563846,5.131505621943639,4.73398027194673
0.1475547653768608,-1.9941864589882563,5.1788454246631055,4.8928150604269485
0.12761290078697823,-2.1495337544479507,5.227773575267375,5.066813269777236
0.10611756324249873,-2.3170205574858245,5.278441707965148,5.258189001674177
0.08294735766764048,-2.4981579542375085,5.33102359798189,5.469415360641092
0.0579657781252654,-2.6945544890755206,5.385717751588301,5.703165932648891
0.03102023323451019,-2.9077803032668608,5.442749410914789,5.962150751405272
0.0019424302018415836,-3.139078950280913,5.502370918428842,6.248748963138174
-0.029448359300967546,-3.3888023043858766,5.564858408060224,6.564266655438921
-0.06333638234482632,-3.655368073167316,5.630501074614613,6.907541375815461
-0.09989006307649947,-3.9334674899771134,5.6995764883727675,7.272510771231061
-0.1392247379762706,-4.211309056688421,5.772301596085078,7.644434927692924
-0.18133782854315483,-4.467233589492717,5.848745945362007,7.995210609407762
-0.226010164438082,-4.6676990383941295,5.928698051456085,8.280509539458196
-0.2726871548220233,-4.771347474812686,6.011503146850667,8.445235350588769
-0.3204006295701502,-4.743913662413082,6.095955500356554,8.443871280500344
-0.367839766194281,-4.5788878078214665,6.1803942131615575,8.268666882773221
-0.4136286442724957,-4.304812004420393,6.26308088198929,7.959295366561083
-0.4566767643166996,-3.9687264554745543,6.342673835654901,7.579811269972986
-0.49636402887144515,-3.6127665965772513,6.4184719483546315,7.18666225854435
-0.5324916948372177,-3.2633995560838,6.490338570940075,6.814416890444058
-0.5651256903980557,-2.933061850775588,6.558482739844516,6.478455447430949
-0.5944563089058116,-2.6255612183002364,6.6232672943188255,6.182582624323135
-0.6207119210888139,-2.340432929074268,6.6850931205620565,5.925026270774745
-0.6441162503795566,-2.075475621793279,6.744343383269804,5.7018632058484116
-0.6648710065974893,-1.8280097630935852,6.801362015328288,5.508677685352666
-0.6831511042284252,-1.5954343555255353,6.856448792181815,5.341265155925373
-0.6991054477836806,-1.3754395550595973,6.909861443741068,5.195877016942679
-0.7128598433342765,-1.1660626237318248,6.961820213910495,5.069262341561109
-0.7245204695715948,-0.9656780292325049,7.012512837326106,4.9586285983278025
-0.7341772498639199,-0.7729636031082241,7.062099123309384,4.861576564438845
-0.7419068858950021,-0.5868611764092639,7.110714888953773,4.7760329834010165
-0.7477754976590947,-0.406539162440019,7.158475218787783,4.70019004794786
-0.7518408892834949,-0.231359595595319,7.205477119267261,4.632454399044157
-0.7541544852394481,-0.06084998340994144,7.2518016632577025,4.571405665428317
-0.7547629850735474,0.10532052453084645,7.297515719911986,4.5157635789904855
-0.753709779828239,0.2673614126770687,7.342673355701891,4.464362440005354
-0.7510361657014683,0.42537829150467565,7.387316980101944,4.4161317379164915
-0.7467823827864215,0.5793882818849712,7.431478297481108,4.370081863209381
-0.7409884999675718,0.7293338396346687,7.475179116113202,4.325293990796235
-0.733695161571225,0.875095435573702,7.518432056021164,4.280913343713805
-0.724944207215488,1.0165033830183208,7.561241189458302,4.236145149651187
-0.7147791733853048,1.1533489956127252,7.603602640954814,4.19025268389434
-0.7032456834291776,1.285395166028559,7.6455051677937576,4.142556856631602
-0.690391731768892,1.412386381504502,7.686930736360074,4.092436857048329
-0.676267867953847,1.5340581361540426,7.727855104930557,4.0393314174843855
-0.6609272865923066,1.6501456627057984,7.768248419105401,3.9827403129796846
-0.6444258299652487,1.7603918875052622,7.808075822235198,3.9222257678426065
-0.626821911090196,1.8645545110087343,7.847298079913624,3.85741350256614
-0.6081763659801087,1.9624121294826782,7.885872214939285,3.787993220766687
-0.5885522446852819,2.05376933908731,7.923752147146952,3.7137184045574982
-0.5680145512944088,2.138460797125087,7.960889331192527,3.634405354528479
-0.546629943323158,2.216354252709143,7.997233384737811,3.549931473404724
-0.5244664007960665,2.28735259619053,8.032732699471858,3.4602328467064076
-0.5015928748341613,2.3513950095453375,8.067335027938922,3.36530121618809
-0.4780789247387079,2.4084573255380817,8.100988040100804,3.265180470425784
-0.45399435148332706,2.458551719884668,8.133639844805062,3.1599627908949994
-0.4294088342844804,2.5017258670495086,8.165239472714012,3.0497845918570428
-0.4043915756139853,2.5380616870729082,8.195737318632583,2.9348223801825766
-0.37901095874325624,2.5676737992446843,8.225085542434408,2.8152886396685908
-0.3533342207508094,2.590707780527643,8.253238428831095,2.6914278167949752
-0.327427142945533,2.607338304797198,8.280152706999045,2.5635124547438957
-0.301353759897561,2.6177672157045273,8.305787831546484,2.4318394932065006
-0.2751760877405158,2.6222215636254598,8.330106226478549,2.296726725881983
-0.24895387210426118,2.6209516176883256,8.353073493737368,2.158509387798718
-0.22274435592737793,2.61422884873563,8.374658587615356,2.017536832017147
-0.19660206744002162,2.6023438691456313,8.394833955935527,1.8741692504390306
-0.1705786287485653,2.585604311017524,8.413575648439917,1.7287743960921838
-0.14472258563839005,2.564332625065606,8.43086339240084,1.5817242734474104
-0.11907925938773399,2.5388637879726286,8.446680635135314,1.433391777584041
-0.09369062150800771,2.509542914868649,8.461014552911154,1.2841472805210605
-0.06859519235932121,2.476722784750666,8.473856025716364,1.1343551817694266
-0.04382796451181455,2.440761298666541,8.485199577534058,0.9843704581526748
-0.019420351525149142,2.4020189020146168,8.495043282115585,0.8345352633963103
0.004599837494997025,2.3608560121698563,8.503388634749548,0.6851756394550492
0.02820839761669559,2.3176304998977195,8.510240391144098,0.536598408039165
0.05138470261567278,2.2726952770328293,8.51560637522449,0.38908831184313075
0.07411165538600108,2.2263960434032026,8.519497258342922,0.24290547062369328
0.09637561582003311,2.1790692430394905,8.521926313049159,0.09828320805464053
0.11816630825042801,2.131040273696521,8.522909145129706,-0.04457370787227391
0.13947671098739323,2.0826219852479153,8.522463408050983,-0.18549038403187304
0.16030293083987238,2.034113492368605,8.520608504210665,-0.3243226713879196
0.18064406576355843,1.9857993159379623,8.517365277496786,-0.46095759213195087
0.20050205892293804,1.9379488566025234,8.512755701575466,-0.5953133489663138
0.21988154748896327,1.8908161936648906,8.506802568085803,-0.7273389550720653
0.23878970942561217,1.8446401935019403,8.499529178535083,-0.8570135349008279
0.25723611136063157,1.7996449044727034,8.490959043186074,-0.984345354435296
0.2752325604053586,1.7560402099816994,8.481115589641721,-1.1093706448836576
0.2927929625051756,1.714022708070979,8.470021883192885,-1.2321522860625287
0.3099331895858854,1.6737767845286704,8.45770036033226,-1.3527784153235791
0.3266709574311721,1.6354758468122297,8.444172576179023,-1.4713610252570073
0.34302571589929437,1.5992836877985586,8.429458965926452,-1.5880346090851372
0.35901855277727995,1.5653559511496287,8.4135786198356,-1.7029549071658265
0.3746721122887762,1.5338416735573805,8.396549070763943,-1.8162978018316722
0.39001052902435,1.5048848829355057,8.378386092745625,-1.9282584012797828
0.40505937785370505,1.4786262353879436,8.359103508732828,-2.039050346657349
0.41984564020758447,1.4552046771271303,8.338713005266253,-2.1489053699678826
0.4343976869788558,1.4347591200341037,8.317223951566575,-2.258073123877512
0.4487452781791968,1.4174301207775906,8.2946432203278,-2.3668212976347975
0.4629195793869727,1.4033615527477776,8.270975007351451,-2.4754360255557852
0.4769531949144505,1.3927022567123035,8.246220647095893,-2.584222584921083
0.4908802174815735,1.385607648934452,8.220378421246682,-2.6935063672201536
0.504736293970918,1.3822412528604535,8.19344335757448,-2.8036340882571817
0.5185587064995225,1.3827760999604404,8.165407016691908,-2.914975175420861
0.5323864674991269,1.387395913308642,8.136257264937699,-3.027923229542399
0.5462604266322133,1.3962959386994627,8.105978032642275,-3.1428973969893796
0.560223386019208,1.4096832146640226,8.074549058672382,-3.260343394252845
0.5743202181658482,1.4277759631252886,8.041945624729854,-3.3807337864618825
0.5885979777971011,1.4508016197567044,8.008138286865234,-3.504566909808345
0.6031059939946681,1.4789927831284078,7.973092617767151,-3.6323635121782445
0.6178959218259522,1.5125800102590266,7.9367689826453685,-3.7646597186536948
0.6330217219285424,1.5517798768024655,7.899122385458831,-3.9019942434982346
0.6485395206965671,1.596775993615084,7.860102443023849,-4.044886783161218
0.6645072806327179,1.6476896616083143,7.819653575192237,-4.1938031386032195
0.680984177248801,1.7045355016471178,7.777715543806204,-4.349100747897648
0.6980295322652722,1.7671557354027194,7.734224536327228,-4.510945971167605
0.7157010896192993,1.8351250389457407,7.689115076615552,-4.679191938465667
0.7340523400087567,1.907616737633615,7.642323157230895,-4.853203963793716
0.7531285073850928,1.983222210067946,7.593791117592958,-5.0316206700148625
0.7729607294857723,2.0597220488212944,7.543474910892809,-5.212047596029033
0.7935579499739853,2.1338254300045953,7.491354434932519,-5.390703928167646
0.8148962042740313,2.200930511076757,7.4374473956508425,-5.562092157859128
0.8369055093847989,2.2550171362628677,7.381826474072251,-5.718840145562998
0.8594556807474276,2.288849627755799,7.324638072616621,-5.851956300928824
0.8823441770249856,2.294688880003054,7.266118509607333,-5.951768683872238
0.9052910658250161,2.2655945208459403,7.2066008227686105,-6.009657586739153
0.9279470110334754,2.197076483630108,7.146504246901219,-6.020252349491833
0.9499177758697765,2.0884596411024376,7.086301723406301,-5.983225114250412
0.9708023722808009,1.9432257152975152,7.026469472263797,-5.90368664922132
0.990234629433776,1.768065771719962,6.967432605771584,-5.790840808004543
1.0079152871509756,1.5711230382637613,6.909524197691538,-5.655574107477913
1.0236265175336132,1.3602744554640191,6.852968456616759,-5.508143875903588
1.0372292620882535,1.1420445902421423,6.7978870178577235,-5.3567594003276655
1.048649707990675,0.9212416815108592,6.744319423854447,-5.207154063799304
1.0578621248057836,0.7010851806651411,6.692247883216454,-5.062815582057824
1.064872976612435,0.4835466360685654,6.6416197273958755,-4.92548828284353
1.0697084429731205,0.2697167323782257,6.59236484456744,-4.795693931092256
1.0724056102969028,0.06011304386414312,6.544407905256517,-4.673159739453927
1.0730067407355444,-0.14509230048968733,6.497676307861978,-4.5571303640493
1.0715558177306475,-0.3459165988622106,6.452105004221485,-4.446579293928071
1.0680966517420254,-0.5424653349933017,6.407639211282204,-4.340345170406041
1.0626719983920925,-0.734869567381028,6.364235759578143,-4.237216536748875
1.0553233027182822,-0.9232493442777636,6.3218635942106545,-4.135982997281483
1.0460908092755046,-1.1076941979356545,6.28050376423784,-4.035465349525518
1.035013867296148,-1.2882546925352247,6.240149110742585,-3.934533012419431
1.0221313203707958,-1.4649410893218897,6.20080378061839,-3.832114064055033
1.0074819094775769,-1.6377265997582733,6.162482639977839,-3.7272011727778716
0.9911046434799942,-1.8065536101868358,6.125210628250061,-3.618855374472944
0.9730391073781258,-1.9713418369217528,6.089022074505332,-3.5062087889186198
0.9533256890089084,-2.13199772443963,6.053959986616145,-3.3884668169085423
0.9320057117645121,-2.288424611235551,6.020075318447059,-3.2649100087375924
0.9091214656521566,-2.4405333114367678,5.987426218359683,-3.1348955736053536
0.8847161325377889,-2.5882528307762596,5.95607726262363,-2.997858364552184
0.8588336042300263,-2.731540976264659,5.926098678978108,-2.853311097633682
0.8315181944673797,-2.870394645041034,5.897565568001771,-2.7008435307060132
0.8028142480169694,-3.0048595991256146,5.870557132694711,-2.540120326505244
0.7727656520257132,-3.135039554907287,5.845155929429659,-2.3708773506608494
0.7414152564766403,-3.2611044418748976,5.8214471559230505,-2.1929162043051758
0.7088042120578913,-3.383297714353517,5.799517993879999,-2.006096861145059
0.6749712349143562,-3.501942630153596,5.779457025268548,-1.8103283700347492
0.6399518086128202,-3.617447435345395,5.7613537415682,-1.6055576983461304
0.6037773342593662,-3.7303094052226737,5.745298164584739,-1.3917569347118133
0.5664742402071394,-3.841117672950672,5.731380595237621,-1.1689092544017683
0.5280630634776327,-3.950554706542334,5.719691502693603,-0.9369942997655394
0.4885575164122093,-4.059396136694723,5.710321559695948,-0.6959739823127309
0.4479635550452621,-4.168508338670567,5.70336181987282,-0.4457802403969613
0.4062784716585564,-4.278842646963416,5.698904017468851,-0.18630709903462978
0.36349004518892225,-4.391424201640557,5.697040946478505,0.0825893449542372
0.31957580317251666,-4.507331989942529,5.697866839928047,0.3610773704546266
0.27450248327309135,-4.627664357864527,5.701477613632593,0.6493136939959472
0.22822583969444607,-4.753480707261918,5.707970750572553,0.9473714165931169
0.1806910326218269,-4.885704757632134,5.7174444647384846,1.2551107859069819
0.13183398504550556,-5.024967235389021,5.729995572597554,1.5719614099494017
0.08158431269161534,-5.171356502090824,5.745715186697048,1.896571875444851
0.029870747670707097,-5.324037235517281,5.764680905451496,2.226271717858256
-0.023369624684465712,-5.480698831102733,5.786943622630079,2.5562942477255057
-0.07817661299549304,-5.636828530790799,5.812506565107334,2.878757883840815
-0.13454489830340105,-5.784910614721494,5.841294143945742,3.1815565861975283
-0.192394004450616,-5.913882156636678,5.873109709807717,3.447636515136228
-0.2515328260169828,-6.009513079014958,5.907586074959079,3.655613262309836
-0.3116279568071324,-6.05656771865247,5.9441422075821775,3.7829463602402393
-0.3721936339936571,-6.0430378567296295,5.98197167118458,3.812070060989811
-0.4326240125609534,-5.965014566440116,6.020092371794478,3.7374188849210603
-0.4922741582253546,-5.829091550714527,6.057466560643689,3.568898160417577
-0.5505650737324999,-5.650138877527853,6.093155542247865,3.328696182481809
-0.6070664625077784,-5.445871906791131,6.126442504072683,3.0434527647206644
-0.6615251815756897,-5.231847656696136,6.1568770317198895,2.7369769428303665
-0.713843658142651,-5.019109344283073,6.184246801148193,2.426727766906454
-0.7640347515854817,-4.814200601695278,6.208514078817258,2.123707945969162
-0.8121767576024345,-4.620261959391461,6.229751158276949,1.8339525647818673
-0.858379377196349,-4.438243210068996,6.248090683924768,1.5602271542843724
-0.902761809297039,-4.267841505362367,6.2636929554676115,1.303362167272383
-0.9454402243506627,-4.10811847320962,6.2767265771403356,1.0631429208820191
-0.9865214090827589,-3.957869238296873,6.287358006349156,0.8388499348430368
-1.0261001014657276,-3.8158282704087374,6.295746505697586,0.6295661859877661
-1.064258384169815,-3.6807766362873293,6.302042167557464,0.4343415190797114
-1.1010661505326882,-3.55159275217848,6.306385582748261,0.25227383720169605
