th1 (rad),w1 (rad/s),th2 (rad),w2 (rad/s)
3.845475281136951,0.4043814078662414,5.541944397418942,-2.3886103161407872
3.8495190952156135,0.5009111484377515,5.518058294257535,-2.3119634397307225
3.854528206699991,0.5948724882748703,5.494938659860227,-2.2374135442007392
3.8604769315827396,0.6864552540647866,5.47256452441822,-2.1650798267370037
3.8673414841233873,0.7758554565072442,5.4509137261508505,-2.095075543491601
3.8751000386884598,0.8632741485603201,5.429962970715934,-2.0275104206250307
3.883732780174063,0.9489165349623545,5.4096878665096835,-1.962492900929883
3.8932219455236865,1.0329913183338388,5.390062937500384,-1.900132238835697
3.903551858707025,1.1157102674403774,5.371061615112027,-1.8405404592997874
3.9147089613814288,1.19728799417151,5.352656210519029,-1.7838341978809937
3.926681841323144,1.2779419272502572,5.334817868540219,-1.7301364402979513
3.9394612605956465,1.357892472437585,5.31751650413724,-1.6795781800680891
3.9530401853200225,1.4373633508406702,5.300720722336559,-1.6323000124234703
3.967413818828429,1.5165821086684408,5.284397722212324,-1.5884536815398251
3.9825796399151137,1.5957807931643355,5.268513185396926,-1.5482035960250549
3.998537447846757,1.6751967901844187,5.2530311494366755,-1.5117283242804118
4.015289415748601,1.7550738185750956,5.237913866193871,-1.4792220762629709
4.032840153934352,1.8356630745724465,5.223121645431242,-1.4508961705589176
4.0511967846800765,1.9172245150818434,5.208612683725653,-1.426980474350538
4.0703690298308945,2.0000282607221695,5.194342878982147,-1.4077247870943648
4.090369312438116,2.0843560862134187,5.180265631111204,-1.3934001139908048
4.11121287330025,2.170502944541373,5.166331629971296,-1.384299738932953
4.132917902745664,2.258778438700409,5.152488632581966,-1.3807399532447446
4.155505687132668,2.349508105416777,5.138681233049519,-1.3830602184926584
4.179000768186835,2.4430343015135096,5.124850630864593,-1.3916224280524012
4.20343111120197,2.539716374751043,5.110934406584069,-1.4068087675375698
4.228828274949481,2.6399296421092204,5.096866318908694,-1.4290174373658302
4.255227571370574,2.7440624693372495,5.082576144535035,-1.4586551630724167
4.2826681960639466,2.852510420079436,5.067989592904311,-1.4961249439343516
4.311193300264741,2.965665989992147,5.053028343464968,-1.5418068352429242
4.340849960164663,3.0839018302075365,5.037610275112539,-1.5960286828166095
4.3716889784667385,3.2075445788631307,5.021649988284373,-1.6590226111016793
4.40376442425537,3.336835489771071,5.005059762173356,-1.7308617592355917
4.437132779153081,3.471873117769375,4.987751144581,-1.8113704793172327
4.471851510330774,3.6125327709180346,4.969637439787827,-1.900000515706517
4.507976838039954,3.75835808339524,4.950637434630762,-1.9956667537483477
4.545560418873906,3.9084233973599396,4.930680767093278,-2.096541120822417
4.584644652847506,4.061174004997251,4.909715355885054,-2.199815497223744
4.625256392897478,4.214267472500209,4.8877172009128165,-2.3014680180701523
4.667399067622481,4.364464577385762,4.864702520732115,-2.3961037902255704
4.7110437133963385,4.507648233753754,4.840741482829859,-2.4769841555324246
4.756120195733876,4.639066103218979,4.815971641274535,-2.5363837155088995
4.802510856766066,4.753865717845269,4.790607804119446,-2.5663759448098307
4.850049513944518,4.847889847680487,4.764944044671348,-2.560003116320557
4.8985284124213235,4.918538840660892,4.739344013508143,-2.5125543372276837
4.947713800827932,4.965380868028378,4.714218470135866,-2.4224922396104267
4.997367609508216,4.9902309876203175,4.689993547739761,-2.2916215701093194
5.047269919384419,4.996653006972304,4.6670773320386685,-2.1244232480620036
5.097236449454142,4.989111776941577,4.645833099558049,-1.9268704373861913
5.147127567223558,4.972117672126633,4.626564395184187,-1.7052127793246097
5.196848743944824,4.949612786746344,4.609512267390941,-1.465090330066807
5.246344871812288,4.924669533101826,4.594861364090273,-1.2110868784570046
5.2955915671433065,4.899439949632485,4.582750495305703,-0.9466424301842541
5.344585966639631,4.875250403816115,4.573284071003861,-0.6741791454446604
5.393338470677792,4.852752526206975,4.566542279549414,-0.39531481999872464
5.441865995939861,4.8320759403742555,4.5625891313494265,-0.11108540607845185
5.490186755343604,4.812958035830569,4.561478277288642,0.17786060546357485
5.53831633570191,4.794844365367305,4.563256883343278,0.471107266332063
5.586264779355583,4.776962164467532,4.567967956006599,0.7683542871940039
5.634034401000258,4.758372668904678,4.575651498878539,1.0693320927550503
5.681618127689305,4.738008236229082,4.586344819806089,1.3737421124702571
5.7289982100515955,4.714699468957768,4.600082240930792,1.6812166358066094
5.776145204741173,4.687196437143983,4.616894407288858,1.9912940046642575
5.823017169112613,4.6541870520394735,4.636807347335501,2.3034062424253716
5.869559039633008,4.614314751678001,4.659841409759754,2.616877250722991
5.915702187149788,4.566196921110086,4.686010182266984,2.9309304171934665
5.961364156360888,4.508444849732587,4.7153194864389185,3.244704903960487
6.006448604858214,4.43968548940404,4.747766535478523,3.557280077637556
6.050845459752255,4.358584794397404,4.783339336254898,3.8677075490949244
6.094431307696229,4.263871986577347,4.822016411745848,4.175050165219702
6.137070027562002,4.154363699278687,4.863766913398044,4.478427084250148
6.178613664554789,4.028986625892116,4.908551184240546,4.777063819379092
6.21890353081371,3.8867970579410835,4.956321822434337,5.07034589954442
6.257771501393122,3.7269955723205968,5.00702528142978,5.357874615082814
6.295041457116327,3.548935151547237,5.060604027580609,5.639523222882781
6.330530808631799,3.3521212296544918,5.116999259809436,5.91549199507474
6.364052020928344,3.13620258979084,5.176154179760183,6.186360586915581
6.395414046826253,2.90095275266808,5.238017785629339,6.453136295153091
6.424423574352933,2.646242582357899,5.302549148580869,6.717296703160847
6.450886000176512,2.3720064816503403,5.369722115612478,6.980824626107025
6.474606064993015,2.07820712093672,5.439530361873548,7.246231558674825
6.495388136202382,1.7648078631571424,5.511992677460297,7.516561868782208
6.513036214833954,1.4317692810240534,5.587158296148119,7.7953617578820396
6.527353907644194,1.079098907599798,5.665111913726939,8.086580940443891
6.538144896720192,0.7070059175623408,5.745977723131378,8.394344940304293
6.5452149558958155,0.31625145751413863,5.829921172534421,8.722482223464134
6.548377470470957,-0.09115138778107035,5.917145994769062,9.073601247409094
6.547465956593146,-0.5106464842526224,6.007882007243153,9.447385404071529
6.54235949175062,-0.9329404563548265,6.102355861283868,9.837660844803263
6.533030087187072,-1.3407160645034781,6.200732469731901,10.22792805003819
6.519622926542037,-1.704855921953711,6.303011750232283,10.586082771744431
6.5025743673225,-1.9829755810612006,6.408872577949728,10.862007053823353
6.482744611511888,-2.126200490393679,6.517492648487961,10.995997860948911
6.461482606607951,-2.0987735843235176,6.62745262709745,10.944264370570496
6.440494870764716,-1.9012455556087091,6.7368952708031555,10.709097753069473
6.4214824152086285,-1.5737418349791252,6.8439862483338505,10.342363535156208
6.405744996858838,-1.1727745753822962,6.947409883685412,9.91437710768007
6.394017251105015,-0.7456546583172419,7.046553654762213,9.480895723676792
6.386560704521842,-0.3214288145245597,7.14136261199898,9.072699430857412
6.383346416376597,0.085718656402347,7.232089606307555,8.701270475350459
6.38420360294062,0.47036110266590153,7.31910231106106,8.36734260634688
6.388907213967279,0.831344322936636,7.402775737124529,8.066862386689998
6.3972206571966455,1.1692721477492478,7.483444360991428,7.79418097733099
6.408913378674138,1.4852788660490521,7.561386170764738,7.543528493826389
6.4237661673346285,1.7804919063595426,7.636821455703002,7.309611229526442
6.441571086398224,2.055832744744244,7.709917567998266,7.087805310765976
6.462129413845667,2.3119744725184024,7.780795621105926,6.874180129095793
6.485249158570851,2.5493676276113595,7.849537422396884,6.665458365494364
6.5107428348469645,2.768292381990597,7.916192006051828,6.458958410225311
6.538425758666871,2.9689174656393695,7.9807815901540815,6.252536916393119
6.5681149333232645,3.151356699155643,8.043306959318013,6.044536835452242
6.599628500314821,3.315718919965751,8.103752327672535,5.83374116887014
6.6327856895144786,3.4621494188520185,8.162089739361235,5.619330882063222
6.6674071837029985,3.590862169578562,8.218283048181867,5.400845126202021
6.703315805398784,3.702162788616279,8.272291499443886,5.178142241362191
6.740337433284947,3.7964625933475293,8.324072921857509,4.951360563192332
6.778302059218422,3.87428445179883,8.373586527489431,4.720878627421113
6.81704490373641,3.9362613719730692,8.420795313763643,4.487274865964234
6.856407517456141,3.983128968858853,8.465668062423285,4.251287271058203
6.896238807144729,4.015713067453678,8.508180935133867,4.01377375521204
6.936395937819266,4.034913747333531,8.548318672685987,3.775674058495079
6.976745075292601,4.041687110600219,8.586075413270938,3.537974065904739
7.017161946398603,4.0370259685204,8.621455153929986,3.301673318115916
7.057532206083807,4.021940505471718,8.654471887111145,3.0677563536248376
7.097751611138524,3.997439807112744,8.685149450647392,2.8371683341037857
7.1377260092096515,3.964514948747061,8.71352113398843,2.6107952006504056
7.177371158697122,3.9241241443856674,8.739629085994933,2.389448406179812
7.216612400140979,3.8771802696220803,8.763523570056732,2.173854083994875
7.2553842028372,3.8245409019511327,8.78526211089668,1.9646463557017668
7.293629611856711,3.7670008774076122,8.804908574453698,1.7623643598998087
7.331299620630787,3.705287246250349,8.822532218052697,1.5674524992646752
7.36835249309329,3.6400564240848037,8.838206743045344,1.3802633571352925
7.404753057334139,3.5718932772896625,8.852009376616698,1.201062722173449
7.440471990107035,3.5013118501762075,8.864020003838432,1.0300361758536791
7.4754851086087974,3.428757432104048,8.874320365596969,0.8672967361326291
7.509772682929838,3.3546096713340026,8.882993332958295,0.7128931049777307
7.543318779643178,3.2791864641090256,8.890122264008072,0.5668181311313807
7.576110644284268,3.2027483779414165,8.895790445319387,0.4290171669321644
7.608138128063682,3.125503403470524,8.900080616988708,0.299396064638421
7.639393162098387,3.0476118663114184,8.903074577635092,0.17782862010177897
7.669869280761501,2.9691913665191447,8.90485286383611,0.06416332757749912
7.699561194426693,2.890321646807725,8.905494497111885,-0.04177064226146343
7.7284644108947695,2.811049320262455,8.90507679068927,-0.14015828874281372
7.756574904097394,2.731392413252192,8.903675207801841,-0.2311944670210447
7.783888828229916,2.651344699268219,8.90136326313163,-0.3150804024466762
7.810402275222598,2.5708798144660734,8.898212459107164,-0.392021002497878
7.836111073367259,2.4899551559533246,8.894292249082184,-0.4622229196864211
7.861010624926792,2.408515569681656,8.88967001988532,-0.525893306554098
7.885095780623609,2.326496836603857,8.88441108681978,-0.5832391938235977
7.908360748989647,2.2438289640725784,8.878578694881543,-0.6344674141095354
7.930799038630373,2.1604392849051495,8.872234020740448,-0.6797849857675804
7.952403431479425,2.076255359835206,8.865436170882772,-0.7193998642326602
7.973165985077777,1.9912076710474744,8.858242172240445,-0.7535219616977935
7.993078061788252,1.905232086090951,8.850706952623467,-0.7823643306882541
8.012130382649161,1.8182720637275736,8.842883309316585,-0.8061444037683914
8.030313103286437,1.7302805672862764,8.8348218652789,-0.8250851812676157
8.0476159089593,1.6412216479117556,8.826571013466225,-0.83941626258674
8.064028125438417,1.5510716606361628,8.818176850840358,-0.8493746252979814
8.079538842044778,1.4598200810996675,8.809683104587378,-0.8552050705244937
8.094137042855776,1.36746990023855,8.801131053882134,-0.8571602731163965
8.10781174185816,1.2740375880773125,8.79255945115097,-0.8555004004099308
8.120552117738933,1.1795526350807786,8.78400444714687,-0.8504922926157967
8.13234764408974,1.084056698997267,8.775499524220713,-0.8424082291965646
8.143188211079714,0.9876024050060523,8.767075441928748,-0.831524336507738
8.153064235129774,0.8902518653208774,8.758760198563671,-0.8181187198019434
8.161966753782982,0.7920749992975656,8.750579011365652,-0.8024694248562199
8.169887503775959,0.6931477449642816,8.74255431711709,-0.7848523488829965
8.176818981225601,0.5935502566927013,8.73470579362826,-0.7655392257126669
8.182754483792529,0.49336518109030547,8.727050401371134,-0.7447958061408646
8.187688135603432,0.39267609445887364,8.719602443309725,-0.7228803414586781
8.191614896548021,0.2915661712975959,8.712373639895139,-0.7000424580312926
8.194530558260997,0.19011713574816508,8.705373215314825,-0.6765224854666921
8.196431729618478,0.08840852822787046,8.69860799046016,-0.6525512728089463
8.197315814900756,-0.013482700584036694,8.69208247773207,-0.6283504986430826
8.197180987894916,-0.11548227530818879,8.685798972745639,-0.6041334540375349
8.196026165141834,-0.2175183848139436,8.679757638205263,-0.5801062534099677
8.193850981293695,-0.3195212124699546,8.673956575671163,-0.5564694086557604
8.190655769168995,-0.4214222564636044,8.668391881584606,-0.5334196866673893
8.186441546604359,-0.5231534965264711,8.663057684717932,-0.5111521597120667
8.181210011639093,-0.6246464678394275,8.657946163120812,-0.4898623517561948
8.174963546960699,-0.725831304447982,8.65304753960325,-0.46974838132872837
8.16770523391622,-0.8266358134666689,8.648350055789964,-0.4510130025004248
8.159438875781554,-0.9269846379153363,8.64383992576496,-0.4338654497102111
8.1501690294024,-1.0267985603602856,8.639501271267857,-0.41852299931094145
8.139901043798798,-1.1259939917115624,8.635316041274748,-0.4052121707702408
8.128641103881682,-1.2244826796061057,8.631263919567045,-0.39416950344465035
8.11639627708562,-1.3221716588669399,8.627322224532598,-0.38564186071356477
8.103174560496951,-1.4189634527552577,8.623465805925463,-0.3798862318414893
8.088984925969399,-1.5147565184803786,8.619666943607047,-0.37716902281689774
8.073837360784594,-1.6094459142791997,8.615895253378879,-0.3777648498537234
8.057742901641802,-1.7029241491379576,8.612117604880341,-0.38195487214186485
8.040713660150423,-1.795082160932882,8.608298056158922,-0.3900247223776208
8.022762838541095,-1.8858103555761487,8.604397808935147,-0.40226211295728703
8.003904734985333,-1.974999629847509,8.600375187805573,-0.4189542107950282
7.9841547386868585,-2.0625422950121166,8.596185645697624,-0.44038488302011475
7.9635293157367375,-2.148332817821515,8.591781796867423,-0.46683191821308323
7.942045987558522,-2.2322683003935655,8.587113477685293,-0.49856432285480745
7.919723304554586,-2.314248630590978,8.582127834456745,-0.5358397805212101
7.896580818248676,-2.394176249179395,8.576769436651533,-0.5789023430559248
7.872639055756882,-2.4719554981196046,8.570980413220974,-0.6279804001653158
7.847919500775686,-2.547491534413893,8.56470060921932,-0.6832849487617205
7.822444585431547,-2.6206888144551956,8.557867759731703,-0.7450081583135448
7.796237697286995,-2.691449173380572,8.550417678148568,-0.8133222057683691
7.76932320555319,-2.759669541332059,8.542284456090885,-0.888378335304949
7.741726510139869,-2.8252393529862014,8.533400672737836,-0.9703060857422836
7.713474116610007,-2.88803771787197,8.523697611880413,-1.0592126227813718
7.684593739431287,-2.947930426914575,8.5131054856526,-1.1551821146553918
7.655114435162141,-3.0047668757166996,8.501553664506046,-1.2582750979502968
7.6250667664049745,-3.058376987935333,8.488970913526543,-1.3685277946417713
7.594482996525621,-3.1085682234338345,8.475285635580125,-1.4859513608071604
7.563397314291283,-3.1551227563435247,8.460426121972054,-1.6105310708948508
7.531846086727848,-3.197794908263238,8.444320811263106,-1.7422254677040627
7.499868137645215,-3.23630892183454,8.426898556586066,-1.8809655361938442
7.46750504842687,-3.270357159855725,8.408088901224128,-2.026653987781387
7.434801476828312,-3.299598814655426,8.387822361346315,-2.179164769800646
7.401805488681758,-3.3236592110900984,8.366030713648309,-2.3383429411388454
7.3685688965708565,-3.342129783501955,8.34264728423692,-2.5040050785361
7.335147598735837,-3.3545688013912907,8.31760723345156,-2.6759403972745557
7.301601910721924,-3.3605029095247425,8.290847829478814,-2.8539127834753453
7.267996881626677,-3.3594295349678966,8.262308701644061,-3.037663941237241
7.234402586276998,-3.3508201956907517,8.231932062231689,-3.2269178544381307
7.20089438432009,-3.3341247231467293,8.199662883687308,-3.4213867479742204
7.167553137088623,-3.3087763857082297,8.165449016207566,-3.620778704005261
7.13446537323154,-3.2741978735656287,8.129241229167514,-3.8248070423930556
7.101723394495884,-3.2298080831188507,8.090993158743583,-4.033201507109325
7.069425313664695,-3.1750296271882132,8.050661143672489,-4.245721206563883
7.037675017392813,-3.1092970075267132,8.00820393160685,-4.462169127414385
7.006582047317545,-3.0320654344941484,7.963582240332706,-4.682407865425195
6.976261392972604,-2.9428203894590528,7.916758161678454,-4.906375971917705
6.9468331890780135,-2.841088233958821,7.867694401959278,-5.134103964887094
6.918422306738425,-2.7264485280880986,7.816353362310407,-5.365728541862976
6.891157821457544,-2.5985493061381937,7.762696076891777,-5.601502763229863
6.865172328396162,-2.4571274837628185,7.706681049259479,-5.84179880171353
6.840601053558534,-2.302038002581933,7.648263061242344,-6.087098048847516
6.8175806735327145,-2.1332974849255497,7.587392080753869,-6.3379606001669115
6.796247698683459,-1.951151367845033,7.5240124747522,-6.594961959564317
6.776736185005008,-1.7561780173221637,7.458062855156557,-6.8585787007482955
6.7591744048317866,-1.5494493049818658,7.389477068149074,-7.128996479077227
6.7436799117819675,-1.332773915944778,7.318187103358302,-7.405803802314868
6.73035217262252,-1.1090544934602629,7.244129065335153,-7.687526671535642
6.719261627687917,-0.8827849867901449,7.167253798619797,-7.9709624113349005
6.710433777820016,-0.6606832746686709,7.087544174506448,-8.250308275627859
6.703826945073329,-0.45236617632012777,7.0050410917501695,-8.516192663026912
6.699303283310128,-0.2707945241078169,6.919879165119901,-8.75495283760839
6.6965953380690495,-0.13195461737629838,6.832329636743816,-8.94885426981725
6.695275791895287,-0.053069063181271386,6.742841094045644,-9.078189655418711
6.694745101263474,-0.04896705685786362,6.6520591974914565,-9.12576504686518
6.694255430694896,-0.12746748437738287,6.5608015470228045,-9.082670501971217
6.692980755851122,-0.28614604169568947,6.469974842003093,-8.952239523338406
6.690119295434164,-0.5128225361389721,6.380452446769708,-8.749194231523152
6.684991070072774,-0.7896625451117185,6.292960504454477,-8.494237802986607
6.677094444621657,-1.0982529282811107,6.208018126424611,-8.20763409965871
6.666111915338846,-1.423061217629831,6.125941785428024,-7.905097533530824
6.651881303162548,-1.75260527696935,6.046890810092716,-7.596712381977841
6.634355250392854,-2.0790970007289427,5.970923686272937,-7.287758522246789
6.613564280385565,-2.397526344434871,5.898046101050469,-6.980146622171922
6.589589016941216,-2.7047626779762135,5.82824463482875,-6.673733268236877
6.562541390161454,-2.9988770710027524,5.761507302146382,-6.3672881216158155
6.532552619451426,-3.278695724615627,5.697834420930223,-6.0591288887204335
6.49976566220527,-3.543531186825611,5.637243132043019,-5.747509819823454
6.464330350337014,-3.7930329460588945,5.579768033844784,-5.4308460918690775
6.426400020876425,-4.0271116929320385,5.525459572926094,-5.1078340733921825
6.386128903947105,-4.245905654955377,5.474381232192172,-4.77750642976772
6.3436698473975515,-4.44976839612784,5.426606167894495,-4.4392461003248265
6.299172163436273,-4.639265054845459,5.382213706891247,-4.092773891742608
6.252779512887819,-4.815168969366383,5.341285967973821,-3.738119185283934
6.204627823194155,-4.978453816039561,5.303904776120982,-3.3755806231868903
6.15484328503376,-5.130278319029119,5.270148969889113,-3.005682627755588
