th1 (rad),w1 (rad/s),th2 (rad),w2 (rad/s),a1 (rad/s^2),a2 (rad/s^2)
1.4281321702824419,2.042210408274566,1.7697949476947252,3.044632894308199,-5.328834521168215,-5.983160506519948
1.4485542743651876,1.9889220630628839,1.8002412766378073,2.9848012892429994,-5.494372140514911,-5.747797533242165
1.4684434949958165,1.9339783416577347,1.8300892895302372,2.927323313910578,-5.659575991947535,-5.502270818483969
1.4877832784123939,1.8773825817382594,1.8593625226693429,2.872300605725738,-5.823258482741565,-5.248672613285129
1.5065571042297765,1.8191499969108438,1.8880855287266003,2.819813879592887,-5.984380144291774,-4.988931971621303
1.524748604198885,1.759306195467926,1.9162836675225292,2.769924559876674,-6.14203712906425,-4.724825036857922
1.5423416661535643,1.6978858241772836,1.943982913121296,2.7226763095080946,-6.295447724904454,-4.457986921792886
1.5593205243953372,1.6349313469282392,1.9712096762163769,2.6780964402901657,-6.4439384898050625,-4.189924600768566
1.5756698378646197,1.5704919620301885,1.9979906406192784,2.63619719428248,-6.586930499031311,-3.9220303191188037
1.5913747574849215,1.5046226570398753,2.024352612562103,2.596976891091292,-6.723926106075041,-3.6555950900316327
1.6064209840553203,1.437383395979125,2.0503223814730163,2.560420940190976,-6.854496546652751,-3.391821896334964
1.6207948180151115,1.3688384305125973,2.075926590874926,2.5265027212276263,-6.978270657464186,-3.1318382497675543
1.6344832023202374,1.2990557239379554,2.101191618087202,2.495184338729951,-7.094924934891777,-2.876707788047578
1.647473759559617,1.2281064745890378,2.1261434614745016,2.466417260849475,-7.204175119368494,-2.6274406153691534
1.6597548243055074,1.1560647233953527,2.1508076340829962,2.4401428546957837,-7.3057694550319106,-2.3850021193492803
1.671315471539461,1.0830070288450335,2.1752090626299543,2.416292833502291,-7.39948373809927,-2.1503200309037687
1.6821455418279112,1.0090121914640409,2.1993719909649774,2.394789633193253,-7.4851182282217135,-1.9242895363638506
1.6922356637425515,0.9341610091818238,2.2233198872969098,2.3755467378296147,-7.562496452658509,-1.7077763058008273
1.7015772738343697,0.8585360446552387,2.247075354675206,2.3584689747716063,-7.631465882066588,-1.5016173693548458
1.7101626342809222,0.7822213858345728,2.2706600444229217,2.3434528010780578,-7.691900398678465,-1.306619854386559
1.7179848481392679,0.7053023818477882,2.294094572433702,2.330386602534192,-7.743704413491835,-1.123557688949529
1.7250378719577457,0.6278653377128698,2.317398438459044,2.3191510256446968,-7.7868184209588245,-0.9531664781737361
1.7313165253348743,0.5499971535032815,2.340589948715491,2.3096193608629596,-7.821225710974524,-0.7961368646751132
1.7368164968699071,0.47178489639353627,2.363686142324121,2.3016579922162084,-7.84695989330714,-0.6531067855016651
1.7415343458338426,0.3933152974604649,2.386702722246283,2.295126924361192,-7.864112834412957,-0.5246531286356819
1.7454674988084473,0.31467416911633533,2.4096539914898947,2.289880393074835,-7.8728425666312685,-0.41128336336594495
1.7486142404996106,0.23594574345002264,2.432552795420643,2.2857675594411755,-7.873380710582661,-0.3134277628711557
1.7509736979341108,0.15721193634419603,2.4554104710150546,2.2826332818124637,-7.866038957733026,-0.2314328473257314
1.7525458172975528,0.07855154676686577,2.4782368038331795,2.2803189533392065,-7.851214194349541,-0.16555664723488292
1.7533313327652214,3.9404823370350894e-05,2.5010399933665717,2.2786633868668575,-7.829391910938854,-0.11596631815777003
1.753331726813455,-0.07825451428601819,2.5238266272352403,2.27750372368528,-7.8011476304683525,-0.0827385318429792
1.7525491816705947,-0.15626599059070173,2.5466016644720932,2.2766763383668502,-7.767146199180637,-0.0658629312997426
1.7509865217646876,-0.2339374525825081,2.569368427855762,2.276017709053853,-7.728138908092661,-0.06524877816761633
1.7486471472388625,-0.3112188416634347,2.5921286049463004,2.275365221272177,-7.68495854200673,-0.08073475221781916
1.7455349588222282,-0.38806842708350203,2.6148822571590222,2.2745578737499987,-7.638512575921658,-0.11210169848777753
1.7416542745513932,-0.4644535528427186,2.6376278358965224,2.273436856765121,-7.58977484631628,-0.15908797070670777
1.737009739022966,-0.5403513013058814,2.6603622044641737,2.271845977058054,-7.539776108526182,-0.22140690178271585
1.7316062260099072,-0.6157490623911432,2.683080664234754,2.269631908040227,-7.489593945359522,-0.2987658515309257
1.7254487353859957,-0.6906450018447384,2.7057769833151566,2.2666442495249175,-7.4403425131698535,-0.39088624287113494
1.7185422853675483,-0.7650484269764369,2.7284434258104056,2.2627353870962064,-7.3931625999211965,-0.4975240004502641
1.7108918010977838,-0.8389800529756489,2.751070779681368,2.257760147091704,-7.3492124283217715,-0.618489846034894
1.7025020005680274,-0.9124721772588666,2.773648381152285,2.251575248631355,-7.309659571114274,-0.7536689757459227
1.6933772787954386,-0.9855687729700093,2.7961641336385985,2.244038558873896,-7.275674261769314,-0.9030397356913324
1.6835215910657386,-1.0583255155877025,2.8186045192273377,2.2350081615169826,-7.248424289304734,-1.06669101414807
1.6729383359098615,-1.13080975848075,2.8409546008425073,2.2243412513755016,-7.22907156753087,-1.2448381695578816
1.661630238325054,-1.2031004741560587,2.8631980133562625,2.211892869679923,-7.218770372374003,-1.4378374045982993
1.6495992335834935,-1.2752881778797986,2.8853169420530618,2.19751449563394,-7.218667150126717,-1.6461985693800805
1.6368463518046954,-1.3474748493810658,2.907292087009401,2.181052509940139,-7.229901716731726,-1.870596425116008
1.6233716033108847,-1.419773866548383,2.929102612108802,2.162346545688979,-7.253609593867318,-2.1118804188522944
1.6091738646454008,-1.4923099624870562,2.950726077565692,2.1412277415004564,-7.29092516029237,-2.371083006936862
1.5942507650205302,-1.5652192140899799,2.9721383549806966,2.1175169114310877,-7.342985233809421,-2.6494265176819147
1.5785985728796303,-1.6386490664280742,2.9933135240950075,2.0910226462542685,-7.410932636396923,-2.948328460488184
1.5622120822153496,-1.7127583927920433,3.01422375055755,2.0615393616493867,-7.495919227889491,-3.269405067840284
1.5450844982874292,-1.7877175850709381,3.034839144174044,2.0288453109709836,-7.599107817017798,-3.614472695964805
1.5272073224367197,-1.8637086632411162,3.0551275972837537,1.9927005840113357,-7.721672267627159,-3.985546506879299
1.5085702358043085,-1.9409253859173878,3.075054603123867,1.9528451189425426,-7.864795007852858,-4.384835605826133
1.4891609819451346,-2.0195733359959163,3.0945830543132926,1.9089967628842812,-8.02966101722652,-4.814733510299774
1.4689652485851754,-2.0998699461681816,3.1136730219421356,1.8608494277812835,-8.217447208985451,-5.27780247732077
1.4479665491234937,-2.182044418258036,3.1322815162199484,1.8080714030080758,-8.429305942641657,-5.776749813610499
1.4261461049409132,-2.2663374776844525,3.150362230250029,1.7503039048719709,-8.666341199375863,-6.314393842368505
1.4034827301640687,-2.3530008896782113,3.167865269298749,1.6871599664482857,-8.929575739985157,-6.893616711162462
1.3799527212672866,-2.442296647078063,3.184736868963232,1.618223799336661,-9.219907360019933,-7.517300720156781
1.355529754796506,-2.534495720678262,3.2009191069565985,1.5430507921350933,-9.538052188783642,-8.188244367634546
1.3301847975897234,-2.6298762425660986,3.2163496148779496,1.4611683484587479,-9.88447289247049,-8.909053913437106
1.3038860351640624,-2.7287209714908034,3.230961298362537,1.3720778093243768,-10.259289700415456,-9.682006045215697
1.2765988254491545,-2.831313868494958,3.244682076455781,1.2752577488722199,-10.662172463533544,-10.508877331742097
1.248285686764205,-2.9379355931302933,3.257434653944503,1.1701689755547988,-11.092212586614245,-11.390736742754036
1.218906330832902,-3.0488577189964357,3.269136343700051,1.0562616081272584,-11.54777478530025,-12.327698834771128
1.1884177536429377,-3.164335466849438,3.2796989597813235,0.9329846197795472,-12.026330352755913,-13.318637516061083
1.1567743989744432,-3.284598770376997,3.289028805979119,0.7997982446189363,-12.52427612339773,-14.360863896436884
1.1239284112706733,-3.4098415316109745,3.2970267884253084,0.6561896056545675,-13.036746694381364,-15.449776850789096
1.0898299959545636,-3.540208998554788,3.3035886844818543,0.5016918371466765,-13.557431717714078,-16.57850171655773
1.0544279059690158,-3.6757833157319286,3.308605602853321,0.3359068199810992,-14.078415045630758,-17.737540908954326
1.0176700728116965,-3.816567466188236,3.311964671053132,0.15853141089155595,-14.590057781294433,-18.914469694826227
0.9795043981498142,-3.9624680440011804,3.3135499851620476,-0.030613286056706324,-15.08095209894692,-20.09371989661519
0.9398797177098024,-4.11327756499065,3.3132438523014804,-0.23155048502285824,-15.537975913204699,-21.256502223349838
0.8987469420598959,-4.268657324122697,3.310928347451252,-0.4441155072563566,-15.946478621092073,-22.380921909795678
0.856060368818669,-4.428122110333618,3.3064871923786883,-0.6679247263543134,-16.29062359290055,-23.442339609384813
0.8117791477153328,-4.591028346262624,3.299807945115145,-0.9023481224481615,-16.553902461744304,-24.41401732547585
0.7658688642527065,-4.756567370880067,3.2907844638906636,-1.14648829570292,-16.719818951996505,-25.26806577699688
0.7183031905439058,-4.923765560400032,3.279319580933634,-1.399168953472889,-16.77271679091273,-25.976675113158752
0.6690655349399055,-5.091492728309159,3.2653278913989054,-1.6589357046044766,-16.698699839749764,-26.5135683263554
0.618150607656814,-5.258479726706657,3.2487385343528605,-1.9240713878680307,-16.48656755228507,-26.85557234013889
0.5655658103897474,-5.423345402229508,3.2294978204741804,-2.19262711126942,-16.128671080923148,-26.984164510034145
0.5113323563674523,-5.584632113038739,3.2075715493614863,-2.4624687563697614,-15.621590540404242,-26.886831941610005
0.45548603523706493,-5.740848018442782,3.1829468617977885,-2.7313370757858615,-14.966545865230493,-26.558085424344288
0.3980775550526371,-5.890513477095087,3.15563349103993,-2.9969179300293045,-14.169482456727819,-26.00000187442567
0.3391724202816862,-6.032208301662365,3.1256643117396368,-3.256917948773561,-13.240814100103426,-25.22222526837639
0.27885033726506253,-6.1646164426634,3.0930951322519014,-3.509140201457325,-12.194851445116292,-24.24142597517577
0.21720417283842852,-6.286564957114563,3.058003730237328,-3.7515544612090825,-11.048985128257796,-23.080288065944966
0.1543385232672829,-6.397054808397141,3.0204881856252372,-3.982357341868532,-9.822720056560335,-21.766149585576848
0.09036797518331148,-6.495282008962745,2.980664612206552,-4.200018837724301,-8.536666806092052,-20.329451975803426
0.025415155093684028,-6.580648677023666,2.938664423829309,-4.403313357482335,-7.211587565719254,-18.80215845193168
-0.040391331676552636,-6.652764552680858,2.8946312902544857,-4.591334942001652,-5.867571797029576,-17.21628044908959
-0.10691897720336122,-6.711440270651154,2.848717940834469,-4.763497746492548,-4.523387383467801,-15.60261431652095
-0.17403337990987275,-6.756674144485832,2.8010829633695438,-4.919523889657757,-3.1960233114671777,-13.989747077358546
-0.24160012135473108,-6.788634377600504,2.751887724472966,-5.059421360431343,-1.9004151299198766,-12.403349085803944
-0.30948646513073613,-6.807638528899703,2.7012935108686524,-5.183454851289382,-0.6493274392604451,-10.865738789719238
-0.37756285041973314,-6.814131803292307,2.6494589623557587,-5.292112239186575,0.546641024398155,-9.395683200041601
-0.4457041684526562,-6.808665393048326,2.5965378399638928,-5.3860690711869905,1.6789657357957994,-8.008386897617482
-0.5137908223831394,-6.791875735690368,2.542677149252023,-5.466152940163165,2.7410507728366915,-6.715620463247547
-0.5817095797400431,-6.764465227962002,2.4880156198503913,-5.53330914479564,3.728055686249993,-5.525943319957779
-0.6493542320196631,-6.727184671099502,2.432682528402435,-5.588568577995218,4.6367141998040555,-4.444983400186615
-0.7166260787306582,-6.680817529101461,2.3767968426224826,-5.633018411997084,5.465157433438267,-3.475744594446037
-0.7834342540216728,-6.626165954767078,2.3204666585025118,-5.667775857941544,6.212748836155604,-2.618921100155067
-0.8496959135693436,-6.564038466405522,2.2637888999230964,-5.693965068943095,6.879933936841468,-1.8732047289824023
-0.9153362982333988,-6.495239127037108,2.2068492492336653,-5.712697116232919,7.468105323516139,-1.2355766256010032
-0.9802886895037699,-6.4205580738019465,2.1497222780713363,-5.725052882488929,7.979481721908864,-0.7015787250095797
-1.0444942702417894,-6.340763256582858,2.092471749246447,-5.732068669739025,8.416999370682449,-0.2655628486583598
-1.107901902807618,-6.2565932628760335,2.0351510625490565,-5.734724298225609,8.784213793342133,0.07908309048173358
-1.1704678354363784,-6.168751124942612,1.9778038195668004,-5.733933467320791,9.085210297445315,0.33973143603804495
-1.2321553466858046,-6.077899021968159,1.9204644848935926,-5.730536152960411,9.324521899125632,0.5243329245607999
-1.2929343369054862,-5.9846538029769025,1.8631591233639884,-5.7252928237148035,9.507053742507098,0.6412556545677263
-1.3527808749352552,-5.889583265551831,1.8059061951268403,-5.718880267169126,9.638013378134955,0.6991438349448624
-1.4116767075907735,-5.793203131770482,1.748717392455149,-5.711888828819678,9.722846442069525,0.7067951636891987
-1.4696087389084782,-5.695974667349787,1.6915985041669521,-5.704820877182786,9.76717732813015,0.673055547363008
-1.526568485581976,-5.598302894068485,1.6345502953951243,-5.698090321709156,9.77675438097614,0.6067296707969512
-1.582551514522661,-5.5005353502587235,1.5775693921780327,-5.692023025001187,9.757398981128917,0.5165056719567056
-1.6375568680252481,-5.402961360447434,1.520649161928021,-5.68685796828162,9.714957675489899,0.41089188822656036
-1.6915864816297226,-5.305811783692535,1.4637805822452048,-5.682749049399354,9.655256262208571,0.2981633446374817
-1.744644599466648,-5.209259221070449,1.4069530917512112,-5.67976741595298,9.584054501378228,0.18631538204644832
-1.7967371916773525,-5.113418676056667,1.3501554175916815,-5.6779042621325155,9.50699992702019,0.0830216054439187
-1.847871378437919,-5.018348676786465,1.2933763749703564,-5.677074046078077,9.429579114465572,-0.004406798592862045
-1.8980548652057836,-4.924052885641809,1.2366056345095757,-5.6771181140640055,9.357064743151488,-0.06906333826640075
-1.9472953940622018,-4.830482238210294,1.1798344533689358,-5.67780874744667,9.294456919723691,-0.10449290937806154
-1.9956002164443047,-4.737537669013057,1.123056365894469,-5.6788536765404505,9.246417520094456,-0.10474540129731436
-2.042975593134435,-4.645073493812112,1.0662678291290646,-5.679901130553423,9.217196797750091,-0.06443816959351369
-2.0894263280725562,-4.552901525834611,1.0094688178235303,-5.680545512249358,9.210552207513196,0.021171457964617175
-2.1349553433309025,-4.460796003759479,0.9526633627010367,-5.680333797669712,9.22966031438591,0.15610352100098182
-2.1795633033684974,-4.36849940061562,0.8958600247243396,-5.678772762459702,9.277023781042463,0.3435637912038505
-2.2232482973746537,-4.275729162805195,0.8390722970997425,-5.675337124547664,9.354376711754558,0.5858458640176892
-2.2660055890027055,-4.182185395687649,0.7823189258542659,-5.669478665907486,9.462592995939373,0.8842313517338272
-2.307827442959582,-4.087559465728256,0.725624139195191,-5.660636352390148,9.6016036211353,1.2388942557358251
-2.3487030376168647,-3.9915434295169026,0.6690177756712895,-5.64824740983279,9.770330052283063,1.6488171606505828
-2.3886184719120336,-3.893840128994072,0.6125353015729615,-5.631759238226285,9.96664150840439,2.1117281054887966
-2.4275568732019743,-3.794173713910028,0.5562177091906987,-5.610641957171397,10.187344101870211,2.624067604265005
-2.4654986103410748,-3.6923002728913255,0.5001112896189848,-5.584401281128747,10.428209148072197,3.1809950711963095
-2.502421613069988,-3.5880181814106034,0.4442672768076973,-5.552591330416783,10.684046368109998,3.776442658596728
-2.5383017948840942,-3.4811777177295036,0.38874136350352945,-5.514826903830816,10.948825155756348,4.403222139230888
-2.573113572061389,-3.37168946617194,0.3335930944652213,-5.470794682438507,11.215843660020212,5.053187002207707
-2.6068304667231086,-3.259531029571738,0.2788851476408362,-5.42026281241643,11.477941400985765,5.717447601364404
-2.639425777018826,-3.1447516155618804,0.2246825195166719,-5.363088336402786,11.727746895563948,6.386632397256311
-2.6708732931744446,-3.027474146606241,0.17105163615264404,-5.2992220124302225,11.95794783891902,7.051183616271213
-2.701148034640507,-2.907894668217051,0.11805941602834182,-5.22871017626751,12.161568321938152,7.7016716370612555
-2.7302269813226774,-2.7862789849976695,0.06577231426566671,-5.151693459896898,12.332235862028272,8.329109703064967
-2.758089771172654,-2.6629566263773867,0.014255379666697723,-5.068402362866249,12.46442102274577,8.925249608510736
-2.784719337436428,-2.538312416149929,-0.03642864396196477,-4.979149866781142,12.55363420010022,9.482840035246046
-2.8101024615979275,-2.412776074148927,-0.08622014262977618,-4.884321466428681,12.596567590907943,9.995832157608524
-2.834230222339417,-2.2868103982398478,-0.135063357294063,-4.7843631448525965,12.591175010129547,10.45952162061829
-2.8570983263218155,-2.160898648138552,-0.18290698874258896,-4.679767928646414,12.536687488693698,10.87062144355618
-2.878707312803201,-2.0355317732516154,-0.2297046680290531,-4.5710617142108525,12.433567788873207,11.227266097686112
-2.8990626305357172,-1.9111960953628833,-0.27541528517116165,-4.458789053233992,12.283411496986812,11.528952253190457
-2.918174591489346,-1.788361980393015,-0.32000317570350156,-4.343499530702087,12.088805719030251,11.776425911621168
-2.9360582112932763,-1.6674739232027125,-0.36343817101052245,-4.225735271585876,11.853158352567677,11.971528468389032
-2.9527329505253035,-1.5489423396770357,-0.4056955237263812,-4.106019986901986,11.580511404358077,12.11701555572857
-2.9682223739220737,-1.433137225633455,-0.44675572359540106,-3.9848498313447003,11.275351032689356,12.216362392665252
-2.982553746178408,-1.3203837153065614,-0.48660422190884806,-3.8626862074180477,10.942425219650863,12.273568075408472
-2.995757583331474,-1.2109594631100529,-0.5252310839830285,-3.739950526663963,10.586577591026511,12.292969135856588
-3.0078671779625745,-1.1050936871997878,-0.5626305892496681,-3.617020835305397,10.21260326766312,12.279070157484556
-3.0189181148345723,-1.0029676545231567,-0.5988007976027221,-3.4942301337305515,9.825130066169718,12.236396611192864
-3.028947791379804,-0.9047163538614595,-0.6337430989400276,-3.371866167618623,9.428526099516139,12.169372629533205
-3.0379949549184184,-0.8104310928662981,-0.6674617606162138,-3.250172441323291,9.026832998412857,12.082224357094432
-3.0460992658470816,-0.7201627628821695,-0.6999634850294467,-3.1293501977523466,8.623722636764272,11.97890789088303
-3.053300893475903,-0.6339255365145268,-0.7312569870069702,-3.009561118843516,8.222474386713692,11.86305967667285
-3.0596401488410483,-0.5517007926473898,-0.7613525981954054,-2.8909305220767876,7.825969493310687,11.737966521205138
-3.065157156767522,-0.47344109771428294,-0.7902619034161732,-2.7735508568647362,7.436699063584683,11.606552048516576
-3.069891567744665,-0.3990741070784361,-0.8179974119848206,-2.6574853363795703,7.056782320291606,11.4713763894566
-3.0738823088154494,-0.32850628387552006,-0.8445722653486163,-2.5427715724850044,6.687992092011126,11.334646063461353
-3.0771673716542045,-0.2616263629554088,-0.8699999810734663,-2.429425111850391,6.331784925856466,11.198231315703717
-3.0797836352837584,-0.19830851369684416,-0.8942942321919702,-2.317442798693354,5.989333659407139,11.063688548515072
-3.081766720420727,-0.13841517710277276,-0.9174686601789038,-2.206805913208203,5.66156073286864,10.932285885633746
-3.0831508721917547,-0.08179956977408637,-0.9395367193109858,-2.0974830543518657,5.349170933356123,10.805030297449616
-3.0839688678894954,-0.028307860440525134,-0.9605115498545045,-1.9894327513773695,5.052682624749928,10.682695073132962
