th1 (rad),w1 (rad/s),th2 (rad),w2 (rad/s)
6.091338060544018,1.6432378543941637,2.684697316471374,1.8634617029185692
6.10777043908796,1.6412890507112434,2.7033319335005594,1.81127346907679
6.1241833295950725,1.6373650836194586,2.721444668191327,1.7588971126497877
6.140556980431267,1.6314730208835626,2.739033639317825,1.706309130797874
6.156871710640103,1.623619896928769,2.7560967306258037,1.6534850104603713
6.17310790960939,1.6138131781275804,2.7726315807304074,1.6003998292505999
6.189246041390666,1.6020611990939613,2.7886355790229134,1.5470288131313659
6.205266653381606,1.5883735659621134,2.804105867154227,1.4933478452950062
6.2211503890412265,1.5727615235295787,2.819039345607177,1.4393339219082049
6.236878004276522,1.5552382839476182,2.8334326848262594,1.3849655514943588
6.252430387115998,1.535819315359145,2.847282340341203,1.3302230957353358
6.26778858026959,1.5145225895289824,2.8605845712985563,1.2750890503982442
6.28293380616488,1.4913687880947428,2.873335461802539,1.2195482659466406
6.297847494045827,1.4663814675993696,2.885530944462005,1.1635881081913833
6.312511308721821,1.4395871839564534,2.897166825543919,1.1071985600825314
6.326907180561386,1.4110155774528361,2.908238811144744,1.0503722664452253
6.341017336335914,1.3806994198136262,2.9187425338091963,0.9931045241211192
6.35482433053405,1.3486746252445105,2.9286735790504075,0.9353932205916611
6.368311076786495,1.3149802277254166,2.938027511256324,0.8772387247270615
6.381460879063749,1.279658327156989,2.9467998985035946,0.8186437338201856
6.394257462335318,1.2427540072547774,2.9549863358417965,0.7596130815218378
6.406685002407866,1.2043152283425573,2.962582466657015,0.7001535116864744
6.4187281546912915,1.1643926984125224,2.96958400177388,0.6402734234589037
6.430372081675417,1.1230397259928917,2.975986736008469,0.5799825931772877
6.441602478935346,1.0803120584897503,2.981786561940242,0.5192918788311499
6.452405599520244,1.036267709747264,2.9869794807285532,0.45821291289203026
6.462768276617717,0.9909667805971492,2.9915616098574733,0.3967577893276461
6.472677944423689,0.9444712761438123,2.99552918775075,0.3349387505186343
6.482122657185127,0.896844923456361,2.998878575255936,0.2727678796229804
6.491091106419691,0.8481529932143801,3.0016062540521657,0.21025680368193844
6.499572636351835,0.798462128683717,3.003708822088985,0.147416412439391
6.507557257638672,0.7478401851853949,3.005182986213379,0.0842565974626565
6.515035659490526,0.6963560829699548,3.0060255521880057,0.020786015716581258
6.521999220320226,0.6440796761265853,3.0062334123451717,-0.04298811873478703
6.528440017081492,0.591081639847426,3.0058035311578237,-0.10706021173208183
6.534350833479966,0.5374333780388657,3.004732929040503,-0.17142643208889208
6.539725167260355,0.4832069529299556,3.003018664719614,-0.236084818615852
6.544557236789654,0.42847503797950776,3.0006578165334554,-0.3010353495207566
6.548841987169449,0.37331089503387704,2.997647463038248,-0.36627997312026184
6.552575096119788,0.31778837634200263,2.9939846633070455,-0.43182259929237576
6.5557529798832075,0.26198195169733146,2.9896664373141215,-0.4976690515642717
6.558372799400181,0.20596676065107347,2.984689746798479,-0.5638269801621669
6.560432467006692,0.1498186894300494,2.9790514769968572,-0.6303057367462631
6.561930653900992,0.09361447189621377,2.9727484196293945,-0.6971162119132077
6.562866798619955,0.03743181360359443,2.9657772575102626,-0.7642706368723515
6.56324111675599,-0.01865046225945044,2.958134551141539,-0.8317823509933193
6.563054612133396,-0.07455224851154357,2.949816727631606,-0.8996655371859408
6.56230908964828,-0.1301919689212245,2.9408200722597466,-0.9679349273158924
6.561007169959067,-0.18548637641541277,2.9311407229865876,-1.0366054800884035
6.559152306194913,-0.24035033676478726,2.9207746681857034,-1.1056920340571919
6.556748802827265,-0.2946966002120114,2.9097177478451317,-1.1752089386464692
6.553801836825145,-0.348435563775949,2.897965658458667,-1.245169666321096
6.550317481187386,-0.40147502725042616,2.8855139617954557,-1.3155864093148126
6.546302730914881,-0.45371994622478656,2.8723580977023078,-1.38646966463994
6.541765531452634,-0.5050721857897208,2.858493401055908,-1.4578278114646321
6.536714809594737,-0.5554302789586012,2.843915122941262,-1.5296666853653917
6.531160506805151,-0.6046891942330128,2.828618456087608,-1.601989154451433
6.52511361486282,-0.6527401171701428,2.812598564543094,-1.674794702919898
6.518586213691119,-0.6994702512649696,2.795850617513895,-1.7480790282404446
6.5115915111784695,-0.7447626439338253,2.7783698272314905,-1.8218336588844082
6.504143884739131,-0.7884960438654568,2.7601514906426465,-1.8960456003032011
6.496258924300476,-0.8305447964735001,2.7411910346396144,-1.9706970177131926
6.487953476335742,-0.8707787846166064,2.7214840644624827,-2.0457649651439347
6.479245688489575,-0.909063422119003,2.7010264148110434,-2.1212211711299758
6.470155054268385,-0.9452597078875783,2.6798142030997436,-2.197031892342179
6.46070245718951,-0.9792243485369019,2.6578438841763217,-2.2731578473222958
6.450910213704141,-1.0108099573490839,2.6351123057030987,-2.349554243255403
6.44080211413065,-1.039865337052876,2.6116167632705447,-2.426170909330939
6.430403460760122,-1.0662358532429095,2.587355054177235,-2.5029525506390784
6.419741102227692,-1.0897639042098637,2.5623255286708444,-2.5798391366540865
6.408843463185594,-1.1102894914508232,2.5365271373043035,-2.656766438096564
6.397740568271086,-1.1276508931161757,2.5099594729233377,-2.7336667252704476
6.386464059339924,-1.1416854400754992,2.482622805670633,-2.8104696397742215
6.375047204939169,-1.1522303911166,2.454518109272891,-2.8871032497395515
6.363524901028003,-1.1591239000188072,2.4256470767754954,-2.9634952964278627
6.3519336620278155,-1.1622060628830606,2.3960121238112166,-3.0395746371213996
6.340311601398985,-1.1613200292123136,2.3656163774400025,-3.115272885826098
6.328698401106862,-1.15631315491183,2.3344636485817416,-3.1905262494547366
6.317135269557744,-1.1470381697584897,2.302558386087194,-3.265277553032359
6.305664887860159,-1.1333543261513597,2.2699056105568705,-3.3394784432747553
6.294331344598645,-1.115128490319114,2.236510826124123,-3.4130917559094978
6.283180059695455,-1.0922361318659652,2.2023799085650277,-3.4860940286698687
6.272257698376795,-1.0645621628393644,2.167518968278329,-3.5584781393763882
6.261612076748402,-1.0320015736419041,2.131934186884565,-3.630256047344682
6.251292061011982,-0.9944598102926081,2.095631626411118,-3.7014616169550134
6.241347462909056,-0.951852835911224,2.058617010241568,-3.7721535050160355
6.231828934549944,-0.9041068189028768,2.0208954751914074,-3.8424180989547714
6.222787866360916,-0.851157391090786,1.9824712942018596,-3.912372501221451
6.214276292450008,-0.7929484207739668,1.9433475691896451,-3.9821675669054786
6.206346808242269,-0.7294302480163003,1.9035258935205903,-4.051991016643296
6.199052505762106,-0.6605573318931925,1.8630059833541575,-4.122070665621132
6.192446932443174,-0.5862852612849849,1.821785276697946,-4.192677831944254
6.1865840798303235,-0.5065670813587666,1.7798584983785035,-4.264131013934894
6.181518409016736,-0.4213488863145637,1.7372171882391545,-4.336799956094224
6.17730492015359,-0.33056462450695845,1.6938491886782123,-4.411110257566204
6.17399927390852,-0.23413005405873644,1.6497380861025503,-4.487548714963317
6.171657973367933,-0.1319357752765932,1.6048625989529173,-4.566669633155153
6.170338615615167,-0.023839250951923824,1.5591959026213658,-4.649102382377851
6.170100223105647,0.09034429138945259,1.5127048787975872,-4.735560525955641
6.1710036660195415,0.21085219617591633,1.4653492735380307,-4.826852885827974
6.1731121879813005,0.3379860813057015,1.4170807446797509,-4.923896944060093
6.1764920487943575,0.47212501027968595,1.3678417752391498,-5.027734979717332
6.181213298897155,0.6137401672012222,1.3175644254419765,-5.1395532771177095
6.187350700569167,0.7634108875360971,1.2661688926707995,-5.260704547152034
6.194984809444527,0.9218415160528106,1.213561847199279,-5.392733252928686
6.204203224605055,1.0898778030493013,1.1596345146699922,-5.537402590371011
6.215102002635549,1.268520086928854,1.1042604887662821,-5.696720008111389
6.227787203504837,1.4589277536937058,1.0472932886851682,-5.872954553912779
6.242376481041775,1.662404339747573,0.9885637431460405,-6.068632532876389
6.259000524439251,1.8803432461961833,0.9278774178172765,-6.286485309059081
6.277803956901212,2.11409709862966,0.8650125647266858,-6.529300006209601
6.298944927887509,2.3647041954833226,0.7997195646645897,-6.79958310170161
6.322591969842342,2.6323567806058628,0.7317237336475736,-7.098879078540285
6.3489155376484,2.915425505170757,0.6607349428621707,-7.42648692182681
6.378069792700108,3.2087846946334815,0.5864700736439026,-7.77721538056407
6.410157639646443,3.5012217751919015,0.5086979198382618,-8.137860306622857
6.445169857398362,3.7721764388130707,0.4273193167720333,-8.48270834435468
6.482891621786493,3.9895146342845726,0.34249223332848644,-8.77036900492222
6.522786768129339,4.112592254946761,0.25478854327926426,-8.947754991226846
6.563912690678807,4.105504124027997,0.16531099336699578,-8.967936230090913
6.6049677319190865,3.957288813338562,0.07563163106608665,-8.817423338344497
6.644540620052472,3.691790916816715,-0.01254260231735832,-8.529173578240236
6.681458529220639,3.3543253481261432,-0.09783433809976068,-8.1640134629133
6.715001782701901,2.9884329872764313,-0.17947447272889366,-7.779102054022651
6.744886112574665,2.6231244549885946,-0.2572654932691202,-7.411198112517073
6.7711173571245515,2.273051445871224,-0.3313774743942909,-7.077520598241817
6.793847871583264,1.9435407588892444,-0.40215268037670904,-6.7829190043923715
6.813283279172156,1.635087925502775,-0.4699818704206328,-6.526049027988539
6.829634158427184,1.3461040044028838,-0.5352423607005181,-6.303050507630039
6.843095198471213,1.0743289179540154,-0.5982728657768185,-6.1093804434443255
6.853838487650753,0.8174817772508565,-0.6593666702112617,-5.940615102380444
6.862013305423262,0.5735259489395172,-0.7187728212350661,-5.792745542364566
6.867748564912657,0.34075332880519305,-0.7767002766587118,-5.6622446411230865
6.871156098200709,0.11778917475412601,-0.8333227230699426,-5.546040592515685
6.87233398994825,-0.09643470336988078,-0.8887831289950995,-5.441458865908939
6.871369642914551,-0.3027168073238359,-0.9431977176541889,-5.346159588674921
6.868342474841313,-0.5016236943685104,-0.9966593135409382,-5.258081070447836
6.863326237897628,-0.6935251541209073,-1.0492401242454166,-5.175392892259859
6.856390986356419,-0.8786259092363086,-1.1009940531680151,-5.096458849312824
6.847604727264056,-1.0569939698144672,-1.1519586416611434,-5.019808797422193
6.837034787565911,-1.2285861168690388,-1.2021567296353652,-4.944118052957596
6.824748926397221,-1.3932710255803404,-1.2515979101649413,-4.868192948393219
6.810816216141418,-1.5508504469068605,-1.3002798396488735,-4.7909612325864765
6.795307711672349,-1.7010787334681763,-1.3481894519747382,-4.711466133965971
6.778296924337667,-1.8436808639442681,-1.395304113314398,-4.628863040682961
6.759860115698224,-1.9783690091649715,-1.4415927437212275,-4.54241788440799
6.740076425606574,-2.104857601231061,-1.4870169225653074,-4.451506443563966
6.719027849594264,-2.2228768170734683,-1.531531987000947,-4.355613909577181
6.69679908142353,-2.3321843687332366,-1.5750881260967187,-4.254334187571725
6.673477237736197,-2.432575500603455,-1.617631467972436,-4.1473685301831
6.649151482730162,-2.5238911232820143,-1.6591051532742669,-4.034523227120584
6.623912571497343,-2.606024057709842,-1.6994503855454728,-3.9157061896169374
6.597852330920245,-2.678923414657282,-1.7386074474416422,-3.79092237329354
6.571063096773671,-2.74259718648471,-1.7765166711745777,-3.6602680710056648
6.543637124908824,-2.797113174640588,-1.8131193518846342,-3.523924175938058
6.515665993162418,-2.842598413383436,-1.8483585936440148,-3.3821485633899067
6.487240009028584,-2.879237275415942,-1.8821800792779138,-3.2352677680429225
6.458447636274425,-2.907268458049639,-1.914532756958343,-3.0836681444981733
6.429374951693928,-2.926981050305536,-1.9453694384033247,-2.927786696201287
6.400105141190873,-2.938709874244946,-1.9746473053653375,-2.768101745875725
6.3707180424484235,-2.9428302806318563,-2.002328322824095,-2.605123603532014
6.341289739642105,-2.939752562610897,-2.028379558859415,-2.439385369688167
6.311892214015995,-2.9299161339079647,-2.0527734125562964,-2.271433994289383
6.282593052676916,-2.9137836019100196,-2.0754877524991904,-2.1018216974378405
6.253455216657815,-2.8918348518441435,-2.0965059694735686,-1.931097846773493
6.224536868139373,-2.8645612463761463,-2.1158169479413034,-1.759801377584988
6.195891255675612,-2.832460034895018,-2.133414961717153,-1.5884538342634262
6.167566655326661,-2.796029057760798,-2.1492995000597874,-1.4175531040821816
6.139606364749053,-2.7557618219448345,-2.1634750311006092,-1.2475679051350688
6.112048746529605,-2.712143014936587,-2.1759507101519597,-1.0789330786072853
6.084927316380239,-2.6656445129314807,-2.1867400409380324,-0.912045720943273
6.058270871250924,-2.6167219268961914,-2.195860498147465,-0.747262174058779
6.032103651981962,-2.565811716243828,-2.203333119888053,-0.5848958722033304
6.006445534819524,-2.5133288849776356,-2.209182078610086,-0.42521602349707943
5.981312245969748,-2.4596652599455684,-2.213434238845057,-0.268447083843305
5.9567155933702916,-2.4051883360732016,-2.21611870968349,-0.114768962179254
5.932663710009559,-2.350240659891061,-2.2172663993052826,0.03568211995182177
5.909161303410649,-2.2951397110229377,-2.2169095781057644,0.18281220385090124
5.88620990630042,-2.24017823205568,-2.2150814560672556,0.3265677016122277
5.8638081239798625,-2.1856249506530188,-2.2118157790511335,0.4669331378212075
5.841951874473333,-2.131725633967497,-2.2071464476729212,0.6039286258423511
5.820634618133658,-2.078704414203386,-2.2011071614144977,0.7376071754015694
5.799847573991625,-2.0267653252831406,-2.193731089660482,0.8680519209479054
5.779579920738794,-1.9760939935477455,-2.185050570451003,0.9953733507229524
5.759818980803316,-1.9268594297877635,-2.1750968369437733,1.1197066053297948
5.740550386505438,-1.87921587514436,-2.1638997708904752,1.2412089025764803
5.721758227753995,-1.8333046590358024,-2.1514876818647104,1.3600571330577111
5.703425181163636,-1.7892560327845513,-2.1378871105341335,1.4764456587685166
5.685532620835791,-1.7471909476128553,-2.1231226539464485,1.59058433527933
5.668060711359662,-1.7072227497468226,-2.107216810593655,1.7026967667244977
5.650988483862194,-1.6694587681472897,-2.09018984292641,1.813018791958299
5.634293896180721,-1.6340017714928605,-2.072059655006827,1.9217971894109427
5.6179538784657925,-1.6009512700583446,-2.0528416831127174,2.029288576919571
5.601944365765209,-1.5704046345565916,-2.0325487973435217,2.1357584703691392
5.586240319419643,-1.5424579971962915,-2.0111912126398304,2.2414804503295054
5.57081573944768,-1.5172068892916177,-1.9887764081365353,2.34673536764627
5.555643670554764,-1.4947465535803295,-1.9653090544600726,2.451810495319335
5.5406962050189605,-1.4751718463996213,-1.9407909495068794,2.556998502598864
5.525944486554964,-1.4585766129444324,-1.9152209644808906,2.662596084925717
5.51135872042552,-1.4450523752519409,-1.8885950036316335,2.768902026112151
5.496908196673,-1.4346861138224678,-1.860905983370512,2.8762143918868333
5.4825613355347755,-1.4275568456190364,-1.8321438394516436,2.984826450342677
5.468285767078585,-1.4237305986880553,-1.8022955749482168,3.095020777661631
5.454048461091705,-1.423253251904259,-1.7713453671716004,3.207060829224672
5.439815928572662,-1.426140543917469,-1.7392747588793538,3.321179030951346
5.425554523133487,-1.4323643593772022,-1.7060629685698403,3.437560173248091
5.411230879539715,-1.4418341845739397,-1.6716873668373593,3.5563185837419606
5.396812537693975,-1.45437242169465,-1.6361241809999396,3.6774672566977573
5.382268813477029,-1.4696821332560968,-1.599349508432962,3.8008769211704605
5.367571992144468,-1.4873058954959448,-1.5613407392212575,3.9262231221668196
5.352698933189508,-1.5065750157380717,-1.5220785079995893,4.052920098046445
5.3376331830321275,-1.5265498003382927,-1.4815493070191248,4.180042087860144
5.322367685028745,-1.5459543810767884,-1.4397488861405234,4.306236426213164
5.306908141217977,-1.5631144001763313,-1.3966865218783917,4.429639185815458
5.2912769972162135,-1.5759129037241797,-1.3523901300202372,4.547813623696715
5.275517868178972,-1.5817883472041367,-1.30691199378327,4.65774328285167
5.259699984706931,-1.5778057345550474,-1.2603345609547534,4.755921318516636
5.24392192736138,-1.560831504128302,-1.212775347769587,4.8385771675131375
5.228313612320097,-1.5278265152178685,-1.1643895760944556,4.902059706035461
5.213035347167918,-1.4762339468560497,-1.115368979034101,4.943345177306736
5.198273007699358,-1.404386903860596,-1.0659355272610336,4.96056785198089
5.184229138660752,-1.3118194782342014,-1.0163298487412247,4.953416534135946
5.171110943878411,-1.1993693909056606,-0.9667956833998652,4.923247591075744
5.159117249969354,-1.0690249521650028,-0.9175632074891078,4.872854649529745
5.148427000447704,-0.9235655736406574,-0.8688346609938103,4.805966592677278
5.139191344711297,-0.7661165244103023,-0.8207749950670375,4.726640774448616
5.131530179467194,-0.5997461746809526,-0.7735085873225513,4.6387252869417095
5.125532717720384,-0.4271863778291568,-0.7271213344531342,4.545496438815029
5.1212608539420925,-0.25069368896443867,-0.6816663700649839,4.449490851129142
5.118753917052448,-0.07202474751170448,-0.6371714615536924,4.3524919577462695
5.118033669577331,0.10751692003817903,-0.5936465419762297,4.255610497664349
5.119108838777713,0.287001303977914,-0.5510904369995862,4.159405803423668
5.121978851817492,0.4657859846115215,-0.5094963789653495,4.064012314055417
5.126636711663607,0.6434383374201657,-0.46885625582479534,3.96925256254164
5.133071095037808,0.8196717367747504,-0.4291637301993789,3.8747296697332394
5.141267812405555,0.9942966137933394,-0.3904164335020465,3.779899067410567
5.151210778543489,1.1671848357960484,-0.35261744282794083,3.6841222188100633
5.16288262690145,1.3382450600003701,-0.3157762206398402,3.5867060070942998
5.176265077501453,1.5074067004342144,-0.2799091605688972,3.486931301063015
5.191339144505795,1.674610465359192,-0.24503984755826705,3.384073627060677
5.208085249159387,1.8398038251084547,-0.21119911128766028,3.2774182095400577
5.226483287410471,2.002940144339686,-0.17842492919225972,3.1662710372648766
5.246512688853868,2.163980517998998,-0.14676221881961093,3.04996711715736
5.268152494033858,2.322897581180391,-0.11626254764803734,2.9278766976551402
5.291381469845662,2.4796807280137005,-0.08698378067148593,2.799409965380551
5.3161782771257995,2.6343422859718757,-0.05898968101768043,2.6640205266873616
5.342521699985518,2.786924260859231,-0.03234947575080681,2.5212078653899233
5.370390942594111,2.9375053025436264,-0.007137397096907576,2.3705189105086766
5.399765995619547,3.0862075466237617,0.01656779200817919,2.2115488494378486
5.430628071085785,3.233202962464131,0.038683280502557676,2.0439413847624146
5.4629601007104265,3.3787187776434817,0.059122694350181824,1.867388766074967
5.496747288486861,3.5230414401327654,0.0777965820109315,1.681632149168183
5.531977702888189,3.6665184005586675,0.09461290350261332,1.486463172864442
5.568642886893776,3.809556713569799,0.10947753523125775,1.2817281429159346
5.606738454029474,3.9526170193019863,0.1222948166604171,1.0673369379679172
5.646264624222494,4.096200802853826,0.13296818604009628,0.8432797954222803
5.687226632251032,4.240827849603964,0.14140098399431908,0.6096566131648955
5.729634910747071,4.38699941118831,0.14749755012596805,0.36672544955682373
5.773504904858955,4.53514068291275,0.15116480462153628,0.11497961940994317
5.818856311688083,4.685513787008176,0.15231460081563572,-0.14473389368770367
5.865711449558164,4.83808989270839,0.15086726187875868,-0.4110385840873495
5.914092348485248,4.992367472975783,0.14675687603788518,-0.6817771336660348
5.964016023215006,5.1471256379040335,0.13993910470122484,-0.9536701787335818
