th1 (rad),w1 (rad/s),th2 (rad),w2 (rad/s),a1 (rad/s^2),a2 (rad/s^2)
6.190920752431953,-2.686537496025925,3.864619010894439,-1.836806056647744,4.835794493692571,15.053719664776246
6.164055377471694,-2.6381795510889994,3.8462509503279616,-1.6862688599999816,5.2173167033174455,14.99978825907249
6.137673581960804,-2.5860063840558247,3.8293882617279618,-1.5362709774092567,5.560627237560376,14.910292084907795
6.111813518120246,-2.530400111680221,3.8140255519538693,-1.3871680565601787,5.866402892798589,14.787409524244028
6.086509517003444,-2.4717360827522348,3.8001538713882677,-1.2392939613177385,6.135539958997974,14.63354292748496
6.061792156175922,-2.410380683162255,3.7877609317750904,-1.092958532042889,6.369136059611636,14.451289117452099
6.037688349344299,-2.3466893225661387,3.7768313464546615,-0.9484456408683679,6.568468967626828,14.243405931375156
6.014221456118638,-2.2810046328898705,3.7673468900459777,-0.8060115815546164,6.734972583018991,14.012775411933879
5.991411409789739,-2.2136549070596807,3.7592867742304317,-0.6658838274352776,6.870210513651918,13.762364597694612
5.969274860719143,-2.1449528019231616,3.752627935956079,-0.5282601814583315,6.975847903555963,13.495185093541847
5.947825332699911,-2.075194322887602,3.7473453341414955,-0.39330833052291303,7.0536222872856165,13.214252715333952
5.927073389471035,-2.004658100014746,3.743412250836266,-0.2611658033695735,7.105314312695418,12.922548504383114
5.907026808470888,-1.9336049568877918,3.7408005928025703,-0.13194031832574238,7.1327191702742425,12.622982310580376
5.88769075890201,-1.8622777651850493,3.7394811896193128,-0.005710495219938605,7.137619504208455,12.318359968997118
5.86906798125016,-1.7909015701429647,3.7394240846671134,0.11747310447003258,7.121760471559751,12.011354868198799
5.85115896554873,-1.7196839654273672,3.7405988157118135,0.23758665315202057,7.086827476227955,11.7044844545488
5.833962125894456,-1.6488156906650877,3.7429746822433336,0.35463149769750857,7.034426948737691,11.400091958799152
5.817473968987805,-1.5784714211777109,3.746520997220309,0.4686324172855001,6.966070385027874,11.100333388831324
5.801689254776028,-1.508810717327432,3.751207321393164,0.5796357511738133,6.883161708671714,10.807169620235433
5.786601147602754,-1.439979100240715,3.757003678904902,0.6877074473761676,6.786987889743341,10.522363243989021
5.772201356600347,-1.3721092213432815,3.763880753378664,0.7929310798160578,6.678712645260296,10.247479702334273
5.758480264386915,-1.3053220948906785,3.771810064176824,0.8954058768394005,6.559372963309533,9.9838921602921
5.745427043438008,-1.2397283652575832,3.780764122945218,0.9952447984423215,6.429878135733732,9.73278951799498
5.733029759785432,-1.175429583900246,3.790716570929641,1.0925726936222713,6.291010950884209,9.495186962772546
5.721275463946429,-1.112519474391404,3.8016422978658637,1.1875245632499967,6.143430685437913,9.271938482979605
5.710150269202515,-1.0510851675370247,3.8135175434983637,1.2802439480797927,5.9876775389177785,9.063750810754312
5.699639417527145,-0.991208392147847,3.8263199829791614,1.3708814561873357,5.824178172392299,8.8711983212815
5.689727333605666,-0.9329666104239239,3.8400287975410348,1.4595934394001506,5.653252040027498,8.694738485432426
5.680397667501427,-0.8764340900236489,3.8546247319350364,1.546540824254475,5.475118235264865,8.53472754552463
5.6716333266011905,-0.8216829076710003,3.8700901401775814,1.6318880997097212,5.289902609476927,8.391436156125016
5.66341649752448,-0.768783881576231,3.8864090211746785,1.7158024612709712,5.097644957689061,8.265064800088975
5.655728658708718,-0.7178074319993404,3.9035670457873883,1.798453109271861,4.898306101651082,8.155758852128745
5.648550584388724,-0.6688243709828295,3.921551576880107,1.8800106977931483,4.691774734085974,8.063623216676602
5.641862340678896,-0.6219066236419698,3.9403516838580384,1.9606469299599143,4.477873918768605,7.988736512814773
5.635643274442477,-0.5771278844542838,3.9599581531576376,2.040534295088062,4.256367169119451,7.931164816166256
5.6298719955979335,-0.5345642127630893,3.9803634961085184,2.1198459432497248,4.026964053609256,7.890974995684599
5.624526353470302,-0.49429457222699674,4.001561955541016,2.1987556932065706,3.789325300262879,7.868247702070931
5.619583407748032,-0.45640131922436794,4.023549512473082,2.27743817022728,3.5430673961667334,7.863090073720482
5.615019394555788,-0.4209706452627006,4.046323894175354,2.3560690709644847,3.2877667028669935,7.875648224877899
5.610809688103161,-0.38809297823403066,4.069884584884999,2.4348255532132637,3.022963137251433,7.906119567596219
5.60692875832082,-0.35786334686151633,4.094232840417132,2.513886748889226,2.7481635031011145,7.954764991657869
5.603350124852205,-0.3303817118305052,4.119371707906025,2.5934343988058046,2.4628446052478288,8.021920880864247
5.6000463077338996,-0.3057532657780269,4.1453060518940825,2.673653607614447,2.1664563419911844,8.108010873971736
5.596988775076119,-0.28408870235811506,4.172042587970227,2.7547337163541643,1.8584250601051788,8.213557175014378
5.594147888052539,-0.2655044517570633,4.199589925133769,2.836869288104308,1.5381575814738593,8.339191067560296
5.591492843534968,-0.2501228759423247,4.227958618014812,2.920261198779911,1.2050464865937682,8.485662071364754
5.588991614775544,-0.238072411076387,4.257161230002611,3.0051178194935586,0.858477489525957,8.653844870161215
5.5866108906647804,-0.2294876361811274,4.287212408197546,3.091656268195171,0.4978400917976918,8.84474269613515
5.584316014302969,-0.2245092352631505,4.318128970879498,3.1801036951565225,0.12254320199838098,9.059485223000308
5.582070921950337,-0.22328380324316668,4.349930007831063,3.2706985473865258,-0.26796188665553733,9.29931811450622
5.579838083917906,-0.22596342210972206,4.382636993304929,3.363691728531588,-0.6741477730163579,9.56558008408071
5.577578449696809,-0.23270489983988565,4.416273910590244,3.4593475293723954,-1.0963616899620934,9.859661483677748
5.57525140069841,-0.2436685167395066,4.450867385883968,3.557944144209173,-1.5347539577759568,10.18293583411253
5.572814715531015,-0.25901605631726615,4.48644682732606,3.659773502550298,-1.9891746563017823,10.536652035645623
5.570224554967842,-0.278907802880284,4.523044562351563,3.7651400229067544,-2.459025240704494,10.921769865230166
5.567435476939039,-0.3034980552873289,4.560695962580631,3.874357721559056,-2.9430466760688354,11.338714294441413
5.564400496386166,-0.33292852204801726,4.599439539796221,3.98774486450347,-3.4390188111707376,11.787014621323364
5.561071211165686,-0.3673187101597246,4.639316988441256,4.105615010716703,-3.9433369118241135,12.264781965147241
5.557398024064089,-0.40675207927796575,4.680373138548423,4.228262830368176,-4.450420657497949,12.767963331813892
5.553330503271309,-0.45125628585294525,4.722655766852105,4.355942463686315,-4.951899543554637,13.289293429398327
5.548817940412779,-0.5007752812884916,4.7662151914889686,4.488835397980298,-5.435509681268217,13.816850644745685
5.543810187599894,-0.5551303781011737,4.811103545468772,4.627003904427755,-5.883637782518332,14.33212061923338
5.538258883818883,-0.6139667559263571,4.8573735845130495,4.770325110620089,-6.271473673324594,14.807499643246851
5.532119216259619,-0.676681492659603,4.9050768356192505,4.918400107052557,-6.564810751591816,15.203268067773664
5.525352401333023,-0.7423296001755212,4.954260836689776,5.070432787730294,-6.71771003285014,15.464293474956687
5.517929105331268,-0.8095067005040226,5.0049651645670785,5.22507572247986,-6.670580588657257,15.517171451310325
5.509834038326227,-0.8762125063905952,5.057215921791877,5.380247436992963,-6.349784391028705,15.269260039456185
5.501071913262321,-0.9397103503008822,5.111018396161806,5.532940037387525,-5.670622098613071,14.612085387079972
5.491674809759313,-0.996416571287013,5.166347796535681,5.679060891258325,-4.546226062669272,13.43252899986172
5.4817106440464425,-1.0418788319137058,5.223138405448264,5.813386181256942,-2.904729807189538,11.635039365581008
5.471291855727306,-1.0709261299856012,5.281272267260833,5.929736574912752,-0.7148361040541337,9.175120541991586
5.46058259442745,-1.0780744910261426,5.340569633009961,6.021487780332668,1.9854470242199915,6.097144640703054
5.449801849517189,-1.0582200207839427,5.400784510813288,6.082459226739699,5.069299162324115,2.5598687071209563
5.43921964930935,-1.0075270291607015,5.4616091030806855,6.108057913810908,8.326601314094788,-1.171481904812964
5.4291443790177425,-0.9242610160197536,5.522689682218795,6.096343094762779,11.502496334950248,-4.777050855653981
5.419901768857545,-0.8092360526702511,5.583653113166423,6.048572586206239,14.358099974171498,-7.962956959218234
5.411809408330843,-0.6656550529285361,5.644138839028486,5.968943016614057,16.72606312914549,-10.533682297891653
5.405152857801557,-0.4983944216370812,5.703828269194626,5.863606193635141,18.535986106922905,-12.423073172837922
5.400168913585186,-0.31303456056785217,5.762464331130977,5.739375461906762,19.80455270353455,-13.678129144493278
5.397038567979507,-0.11498903353250667,5.819858085750045,5.6025941704618285,20.60446547556437,-14.415487026079145
5.395888677644182,0.09105562122313704,5.8758840274546635,5.458439300201037,21.03099796016789,-14.776160504400664
5.396799233856413,0.30136560082481595,5.930468420456674,5.31067769515703,21.177755126375768,-14.893714443820869
5.399812889864661,0.5131431520885736,5.9835751974082445,5.161740550718821,21.124048451184066,-14.87848181408391
5.404944321385547,0.7243836366004143,6.035192602915433,5.012955732577982,20.93110372598157,-14.813599591348368
5.412188157751551,0.93369467386023,6.085322160241212,4.864819736664498,20.643237314667896,-14.757436309488265
5.421525104490153,1.140127047006909,6.133970357607857,4.717245373569615,20.291050387814856,-14.74840500348364
5.432926374960222,1.3430375508850574,6.181142811343553,4.569761323534779,19.894950434490408,-14.809945880395501
5.446356750469072,1.5419870552299615,6.2268404245789,4.421661864730824,19.468245229223474,-14.954749266658652
5.461776621021372,1.7366695075221963,6.271057043226208,4.272114372064237,19.01958656202472,-15.18799866231458
5.479143316096594,1.9268653731424434,6.313778186946851,4.120234385441091,18.554786708448894,-15.509726733120505
5.498411969828019,2.112413240226932,6.354980530801262,3.9651371181098862,18.078116422593528,-15.916474840970395
5.519536102230288,2.2931944044528674,6.394631901982361,3.805972369700182,17.593204300958817,-16.402447224300964
5.542468046274816,2.4691264474624557,6.432691625679363,3.6419478974571726,17.103640121113607,-16.960316845936028
5.567159310749441,2.640162848673592,6.469111104653934,3.4723447289978124,16.61336098232936,-17.581799669715814
5.593560939236177,2.8062964584968855,6.503834551943912,3.2965267323006544,16.126877382443187,-18.258078383600377
5.6216239038211455,2.9675652323213173,6.5367998192669186,3.1139459484646506,15.649379168187364,-18.98012793859319
5.651299556144359,3.124059024003191,6.567939278751565,2.9241446690787187,15.186748416267752,-19.738973114686235
5.682540146384391,3.2759265081658686,6.597180725442352,2.7267549379318563,14.745496647229484,-20.52589106426819
5.71529941146605,3.4233814746381634,6.62444827482167,2.5214960272891744,14.332636022934043,-21.33255768243608
5.7495332262124315,3.566707834867504,6.649663235094562,2.3081704504648135,13.955486999868342,-22.151124047210665
5.785200304561107,3.7062627048661874,6.67274493959921,2.086659209992707,13.62141697384027,-22.97419641931868
5.822262931609768,3.84247687460459,6.693611531699137,1.85691724579952,13.337494355728554,-23.794678627679954
5.860687700355814,3.9758518181618756,6.712180704157132,1.6189704595227203,13.110028702918108,-24.60541705759158
5.900446218537432,4.1069521051910565,6.728370408752359,1.3729162889468045,12.943948237688293,-25.398563535824394
5.9415157395893425,4.236391587567939,6.742099571641827,1.1189306535885606,12.841939485431128,-26.16453768011021
5.983879655465022,4.3648109824222505,6.753288878177712,0.8572852767874585,12.803238550384169,-26.890426017356692
6.0275277652892445,4.492843367926092,6.761861730945587,0.5883810166138915,12.821920552794234,-27.55760180508757
6.0724561989685055,4.621062573454035,6.767745541111726,0.3128049985630158,12.88448986417556,-28.13829723827436
6.118666824703046,4.74990747209579,6.770873591097356,0.03142202618027218,12.966550274921946,-28.590839531076803
6.166165899424003,4.87957297484501,6.771187811359159,-0.2544863691304959,13.028382852089416,-28.85334864209397
6.214961629172453,5.009856803365904,6.768642947667854,-0.5430198555514356,13.009488768638743,-28.836042323209117
6.265060197206113,5.139951691052291,6.7632127491123395,-0.8313802787835267,12.822762515941214,-28.413183624287928
6.316459714116636,5.268179316211703,6.754898946324504,-1.115512115026406,12.350236075236978,-27.417541330752687
6.369141507278753,5.3916816769640725,6.74374382517424,-1.389687528333933,11.444515200313575,-25.643339051147816
6.423058324048394,5.506126828967208,6.729846949890901,-1.6461209188454111,9.942786915209435,-22.867548387110663
6.478119592338066,5.6055546981193025,6.7133857407024475,-1.8747964027165178,7.701616911544307,-18.90115641321202
6.5341751393192595,5.6825708672347455,6.6946377766752825,-2.063807966848638,4.655940228262685,-13.67493892695201
6.591000847991607,5.7291302695173725,6.6739996970067965,-2.2005573561181584,0.8891324210804344,-7.340437563608031
6.648292150686781,5.738021593728177,6.651994123445615,-2.273961731754239,-3.3241674255587785,-0.3306872313500355
6.7056723666240625,5.704779919472589,6.629254506128072,-2.2772686040677392,-7.55131848800826,6.689656566443058
6.762720165818789,5.629266734592506,6.606481820087395,-2.2103720384033085,-11.324162108989567,13.003691224435281
6.819012833164714,5.516025113502611,6.584378099703362,-2.0803351261589555,-14.29282508490412,18.06772480414562
6.87417308429974,5.373096862653569,6.563574748441773,-1.8996578781174993,-16.318541686845258,21.649304403313177
6.927904052926276,5.209911445785116,6.544578169660598,-1.6831648340843675,-17.462230422625336,23.81408534734446
6.980003167384127,5.035289141558863,6.527746521319754,-1.4450239806109229,-17.903807915106544,24.810604006365203
7.030356058799716,4.8562510624077975,6.513296281513645,-1.1969179405472707,-17.85535748526289,24.943787597655444
7.078918569423793,4.677697487555169,6.501327102108172,-0.9474800645707163,-17.50539229659172,24.491909841191106
7.125695544299345,4.502643564589252,6.491852301462465,-0.7025609661588053,-16.997249816511882,23.672602983140443
7.170721979945237,4.332671066424133,6.484826691800877,-0.4658349363274008,-16.428995404516513,22.640466935652455
7.214048690609479,4.1683811123789685,6.480168342437603,-0.23943026697087624,-15.862249661943697,21.498314899879954
7.255732501733268,4.009758615759531,6.477774039767894,-0.024447117972076687,-15.332491713801156,20.311192556054856
7.295830087890864,3.8564336986215197,6.4775295685881735,0.17866480758847186,-14.857757093230662,19.118518122821136
7.334394424877079,3.707856127689213,6.479316216664058,0.36984998881668324,-14.44503648475544,17.943159342327256
7.371472986153971,3.5634057628416587,6.4830147165522245,0.5492815822399558,-14.094644598026292,16.797708431786635
7.407107043782387,3.4224593168613957,6.488507532374624,0.7172586665578222,-13.803070894630658,15.688616264169417
7.441331636951001,3.284428607915089,6.495680119040202,0.8741448291995164,-13.564784483968484,14.618825911922242
7.474175923030152,3.148780763075404,6.504421567332197,1.020333088318739,-13.373351437649154,13.589403450099324
7.505663730660905,3.0150472486989126,6.514624898215384,1.156227122819732,-13.222112764082675,12.600518028280701
7.535814203147894,2.882826121058086,6.526187169443582,1.282232303102539,-13.104586731427686,11.652008036240437
7.564642464358475,2.751780253743809,6.539009492474608,1.3987523834649436,-13.014700290600995,10.743688382253351
7.592160266895913,2.621633250837799,6.5529970163092575,1.506189267287477,-12.946915343097192,9.875498805127355
7.618376599404291,2.4921640974068273,6.568058908982132,1.6049442553387505,-12.896290561155206,9.047557067603458
7.64329824037836,2.3632011917952753,6.584108351535519,1.695419826014785,-12.858503716283039,8.260157602657213
7.6669302522963125,2.234616154632445,6.601062549795667,1.7780214020413572,-12.829849709486789,7.513741255952127
7.689276413842637,2.106317657537577,6.618842763816081,1.8531588146008784,-12.807223524768537,6.808852196069861
7.7103395904180125,1.9782454222898918,6.63737435196209,1.921247336561577,-12.788093723368938,6.146091904094488
7.730122044640911,1.8503644850562024,6.656586825327706,1.982708255602522,-12.770469953249872,5.526076164378745
7.748625689491473,1.7226597855237038,6.676413907883731,2.037969017246309,-12.752866694399051,4.949398374736447
7.765852287346711,1.5951311185797132,6.696793598056194,2.0874630009936737,-12.734264737030761,4.416600783511582
7.781803598532508,1.4677884712094056,6.717668228066131,2.1316290088287895,-12.714071473091755,3.9281541319946727
7.796481483244602,1.340647756478488,6.738984518154419,2.170910550148736,-12.692080833334705,3.4844454357787438
7.8098879608093865,1.213726948145141,6.760693623655906,2.2057550045065235,-12.668433537880045,3.0857731498344094
7.822025230290838,1.0870426127663404,6.782751173700971,2.2366127360048678,-12.643578196401915,2.7323486436926068
7.8328956564185015,0.9606068308023212,6.80511730106102,2.263936222441794,-12.618233664087244,2.4243027048538988
7.8425017247265245,0.8344244941614488,6.827756663285438,2.2881792494903332,-12.593352912526662,2.161695644726698
7.850845969668139,0.7084909650361821,6.8506384557803415,2.3097962059376003,-12.570088498069818,1.9445294641145685
7.857930879318501,0.5827900800554839,6.873736417839718,2.329241500578746,-12.549759493334356,1.7727604097098653
7.863758780119056,0.4572924851221404,6.897028832845505,2.346969104675845,-12.533819478841279,1.6463100840435236
7.868331704970277,0.3319542903337276,6.920498523892264,2.3634322055162804,-12.52382485585897,1.5650730204736065
7.871651247873615,0.2067160417751379,6.9441328459474265,2.3790829357210166,-12.52140231724877,1.5289182576515976
7.873718408291366,0.08150201860265019,6.967923675304637,2.3943721182975324,-12.528213771176189,1.5376818913408796
7.874533428477393,-0.0437801191091117,6.991867396487613,2.4097489372109413,-12.545916313916557,1.5911467810568465
7.874095627286302,-0.16923928224827728,7.015964885859722,2.42566040502151,-12.57611394265319,1.6890044673570785
7.872403234463819,-0.2950004216748092,7.040221489909937,2.4425504496950805,-12.620296526891257,1.8307928230142965
7.869453230247071,-0.42120338694372184,7.064646994406888,2.4608583779252236,-12.679760051914833,2.015800921789857
7.865241196377634,-0.5480009874628702,7.08925557818614,2.4810163871431223,-12.755500250328577,2.242929977129237
7.859761186503006,-0.675555989966156,7.114065742057572,2.503445686914415,-12.848069423159462,2.5104959446153616
7.853005626603344,-0.8040366841977505,7.139100198926716,2.5285506463605683,-12.957383584644615,2.815955588881986
7.844965259761366,-0.9336105200441966,7.1643857053903215,2.556710202249388,-13.08246430116362,3.1555338535676025
7.835629154560924,-1.0644351630558329,7.189952807412816,2.588265540785064,-13.221097363393186,3.523727136366681
7.8249848029303655,-1.1966461366897647,7.2158354628206665,2.6235028121487307,-13.369390028424245,3.9126564047095433
7.813018341563468,-1.3303400369740073,7.242070490942154,2.662629376195826,-13.521212407517387,4.311249422254353
7.799714941193728,-1.465552161049181,7.268696784704112,2.7057418704183696,-13.667520774638882,4.704248554564919
7.785059419583236,-1.60222736879557,7.295754203408295,2.752784355964019,-13.795587545405075,5.071078822778436
7.769037145895281,-1.7401832442496206,7.323282046967935,2.8034951441918032,-13.88821323103508,5.38468264826484
7.751635313452785,-1.8790653765599714,7.351316998409853,2.857341970674452,-13.923079446719951,5.6105469113448
7.732844659687185,-2.018296171027171,7.379890418116598,2.9134474397879,-13.872524137566806,5.706322044615038
