th1 (rad),w1 (rad/s),th2 (rad),w2 (rad/s),a1 (rad/s^2),a2 (rad/s^2)
0.6733340257532139,1.2766468416153296,1.8932430825889577,2.812206624043586,-0.5711436060076346,-10.629135362311388
0.6861004941693671,1.2709354055552533,1.9213651488293935,2.705915270420472,-1.0417847844464179,-10.386111366005222
0.6988098482249196,1.2605175577107892,1.9484243015335982,2.6020541567604196,-1.4906009109983103,-10.146597701689965
0.7114150238020276,1.2456115486008061,1.9744448431012025,2.50058817974352,-1.9178818035843608,-9.910073126585637
0.7238711392880357,1.2264327305649625,1.9994507248986377,2.401487448477664,-2.3239761969613184,-9.676266014411395
0.7361354665936853,1.2031929685953493,2.0234655993834143,2.3047247883335498,-2.7092873109357343,-9.44512367786055
0.7481673962796388,1.176100095485992,2.04651284726675,2.2102735515549443,-3.0742678160154706,-9.216782654084042
0.7599283972344987,1.1453574173258372,2.0686155827822996,2.1181057250141038,-3.419414211932775,-8.991540422621071
0.771381971407757,1.1111632752065095,2.0897966400324406,2.028190320787893,-3.7452607281853636,-8.76982886933256
0.782493604159822,1.0737106679246557,2.1100785432403195,1.9404920320945676,-4.052372903456531,-8.552189694087282
0.7932307108390686,1.0331869388900905,2.1294834635612654,1.8549701351536947,-4.341341017228438,-8.33925187176727
0.8035625802279696,0.9897735287178061,2.1480331649128024,1.771577616436022,-4.6127735426711745,-8.131711207754782
0.8134603155151476,0.9436457932910943,2.1657489410771626,1.6902605043584742,-4.867290772602571,-7.9303119754874
0.8228967734480586,0.8949728855650686,2.182651546120747,1.6109573846036003,-5.105518745472634,-7.735830581746645
0.8318465023037093,0.8439176981103422,2.1987611199667834,1.5335990787861338,-5.3280835698752105,-7.549061172963428
0.8402856792848127,0.7906368624115901,2.2140971107546448,1.4581084670564994,-5.53560621681161,-7.370803071474564
0.8481920479089285,0.7352808002434741,2.2286781954252097,1.3844004363417537,-5.728697820740139,-7.201849913178709
0.8555448559113633,0.6779938220360727,2.242522199788627,1.3123819372099665,-5.907955504598619,-7.042980346427931
0.862324794131724,0.6189142669900866,2.255646019160727,1.2419521337456871,-6.073958721248493,-6.894950145358808
0.8685139368016249,0.5581746797776016,2.2680655404981835,1.173002632292099,-6.227266084556094,-6.758485588380687
0.8740956835994009,0.49590201893204067,2.2797955668211047,1.1054177764082922,-6.368412647728757,-6.634277953412163
0.8790547037887213,0.43221789245475306,2.290849744585188,1.0390749968741706,-6.497907574500101,-6.5229789849563335
0.8833768827132689,0.36723881670975206,2.3012404945539298,0.9738452070246073,-6.6162321401217925,-6.425197193558342
0.8870492708803663,0.30107649530853414,2.310978946624176,0.9095932350890239,-6.723837993598965,-6.341494854996689
0.8900600358334517,0.23383811537254448,2.320074878975066,0.846178286539057,-6.821145609891421,-6.272385584206334
0.8923984169871771,0.16562665927363027,2.328536661840457,0.7834544306969937,-6.908542860564068,-6.218332366991756
0.8940546835799135,0.09654123066798959,2.336371206147427,0.7212711070270762,-6.986383633285155,-6.179745940730898
0.8950200958865934,0.026677394335138035,2.3435839172176975,0.6594736476197672,-7.054986434335535,-6.1569834232609475
0.8952868698299448,-0.04387247000821731,2.350178653693895,0.5979038133871577,-7.114632913631839,-6.150347096833163
0.8948481451298625,-0.11501879914453571,2.3561576918277667,0.5364003424188261,-7.165566258441594,-6.160083261374549
0.8936979571384172,-0.18667446172895164,2.361521695251955,0.47479950980508057,-7.207989409778414,-6.186381078332232
0.8918312125211276,-0.2587543558267358,2.3662696903500056,0.41293569902175825,-7.24206306424949,-6.229371333211258
0.8892436689628602,-0.3311749864692307,2.370399047340223,0.35064198568964566,-7.267903433764608,-6.2891250517272415
0.8859319190981679,-0.4038540208068768,2.37390546719712,0.28775073517237326,-7.285579745922529,-6.36565191152055
0.8818933788900991,-0.47670981826610215,2.3767829745488434,0.22409421605716776,-7.295111479018543,-6.458898398908113
0.8771262807074381,-0.5496609330562876,2.379023916709415,0.15950523206808662,-7.2964653374489,-6.568745668512474
0.8716296713768753,-0.6226255864307766,2.380618969030096,0.09381777538296188,-7.289551985832219,-6.695007073164992
0.8654034155125675,-0.6955211062890988,2.3815571467839254,0.026867704651311955,-7.274222573452117,-6.837425342607969
0.8584482044496765,-0.76826333202362,2.3818258238304386,-0.04150654877476774,-7.250265094686418,-6.995669402600509
0.8507655711294403,-0.8407659829704841,2.381410758342691,-0.11146324280077283,-7.2174006459639175,-7.169330841435762
0.8423579112997355,-0.9129399894301233,2.3802961259146835,-0.18315655121513047,-7.175279655502757,-7.35792004894575
0.8332285114054342,-0.9846927859851509,2.378464560402532,-0.25673575170458796,-7.123478178629682,-7.560862074100531
0.8233815835455827,-1.0559275677714477,2.3758972028854863,-0.3323443724455933,-7.061494368802762,-7.777492271527975
0.8128223078678681,-1.1265425114594754,2.3725737591610305,-0.41011929516087303,-6.988745252438968,-8.007051834821352
0.8015568827532734,-1.1964299639838651,2.3684725662094217,-0.4901898135090865,-6.90456395406651,-8.248683345374994
0.7895925831134347,-1.2654756035245303,2.3635706680743307,-0.5726766469628365,-6.8081975368451175,-8.501426499550309
0.7769378270781894,-1.3335575788929814,2.3578439016047024,-0.6576909119583396,-6.69880564164493,-8.76421421389657
0.7636022512892595,-1.4005456353094308,2.351266992485119,-0.7453330540973053,-6.575460124992124,-9.035869347383699
0.7495967949361652,-1.466300236559352,2.3438136619441456,-0.8356917475711423,-6.437145911424271,-9.315102320344511
0.7349337925705717,-1.5306716956735948,2.335456744468434,-0.9288427707745874,-6.2827632880765005,-9.60050995098388
0.7196270756138358,-1.59349932855436,2.3261683167606884,-1.0248478702844261,-6.1111318773307675,-9.890575870493702
0.7036920823282922,-1.6546106473276676,2.315919838057844,-1.1237536289893633,-5.920996525550362,-10.18367291529148
0.6871459758550155,-1.7138206125831712,2.3046823017679503,-1.225590358142278,-5.711035340497907,-10.478067927622575
0.6700077697291837,-1.7709309659881503,2.2924263981865276,-1.3303710374185038,-5.479870094988357,-10.771929421362179
0.6522984600693023,-1.8257296669380338,2.2791226878123427,-1.4380903316321256,-5.226079187475359,-11.063338585675233
0.6340411633999219,-1.8779904588127874,2.2647417844960214,-1.548723717488878,-4.948213309317193,-11.350304102378258
0.615261258811794,-1.9274725919059592,2.2492545473211325,-1.6622267585126604,-4.644813911112184,-11.630781240418887
0.5959865328927345,-1.973920731017081,2.232632279736006,-1.7785345709168494,-4.3144344845425735,-11.902695659888872
0.5762473255825638,-2.0170650758625066,2.2148469340268377,-1.897561527515738,-3.955664579711284,-12.16397230565864
0.5560766748239386,-2.0566217216596194,2.1958713187516805,-2.0192012505723245,-3.567156359575418,-12.41256969474156
0.5355104576073424,-2.0922932852553737,2.175679306245957,-2.14332694751974,-3.147653352085778,-12.64651980025304
0.5145875247547886,-2.1237698187762315,2.15424603677076,-2.2697921455222705,-2.6960208973662643,-12.863973607766061
0.4933498265670263,-2.150730027749894,2.131548115315537,-2.3984318815999313,-2.2112776033838397,-13.063252267864693
0.4718425262895274,-2.1728428037837326,2.1075637964995377,-2.529064404278578,-1.692626922419365,-13.242903594523058
0.4501140982516901,-2.1897690730079264,2.082273152456752,-2.6614934402238086,-1.1394877476085832,-13.401763467687392
0.42821640752161083,-2.201163950484012,2.0556582180545138,-2.7955110749006824,-0.5515227115297914,-13.539021497996627
0.4062047680167707,-2.20667917759931,2.027703107305507,-2.930901289880649,0.07133734260026303,-13.654290112993154
0.3841379762407776,-2.2059658041733075,1.9983940944067005,-3.0674441910105803,0.7288744394571883,-13.74767604190215
0.3620783181990445,-2.1986770597787357,1.9677196524965948,-3.2049209514296018,1.420571981623107,-13.819853027926108
0.34009154760125715,-2.1844713399625046,1.9356704429822988,-3.3431194817088628,2.14561268199691,-13.872134503797628
0.3182468342016321,-2.1630152131425358,1.9022392481652102,-3.481840826746839,2.9028879505673233,-13.90654495081713
0.29661668207020675,-2.1339863336368623,1.8674208398977419,-3.62090627625501,3.691020722635508,-13.925888746763855
0.27527681873383814,-2.0970761264105073,1.8312117771351917,-3.7601651637226485,4.508403568082544,-13.933815514429387
0.25430605746973306,-2.051992090729682,1.7936101254979653,-3.8995033188669423,5.353253656542536,-13.934881324212252
0.23378613656243624,-1.9984595541642565,1.7546150923092958,-4.0388521321090645,6.223685758804616,-13.934605583473928
0.21380154102079368,-1.9362226965762104,1.7142265709882052,-4.178198187943804,7.117803928088681,-13.939524044897125
0.19443931405503156,-1.8650446572953236,1.6724445891087671,-4.317593428392775,8.033811808641756,-13.957239038166204
0.17578886748207834,-1.784706539208906,1.6292686548248394,-4.457165818774437,8.970140629898387,-13.9964686794535
0.15794180208998929,-1.6950051329099223,1.584696996637095,-4.597130505568972,9.925592792072656,-14.067097274649727
0.14099175076089007,-1.5957492049891957,1.5387256915814052,-4.73780147831547,10.899497390591382,-14.180229123472461
0.1250342587109981,-1.486754231083282,1.4913476767982505,-4.879603769550195,11.891871785123376,-14.348246983536695
0.11016671640016529,-1.3678355132320483,1.4425516391027486,-5.023086239385561,12.903579879007005,-14.584873782757851
0.0964883612678448,-1.2387997144419782,1.392320776708893,-5.16893497721314,13.936472208213438,-14.905230453659309
0.08410036412342502,-1.0994349923598439,1.3406314269367616,-5.317987281749733,14.993483606460174,-15.325871751270343
0.07310601419982658,-0.9495001562952421,1.2874515541192644,-5.471245999262437,16.07864825909908,-15.864761733743066
0.06361101263687416,-0.7887136737042513,1.23273909412664,-5.629893616599867,17.19696445440627,-16.541114544911288
0.055723875899831646,-0.6167440291601886,1.1764401579606414,-5.79530476204898,18.3539938579752,-17.374962718960393
0.04955643560822976,-0.4332040905804365,1.1184871103401517,-5.969054389238584,19.55499845278886,-18.386204771814047
0.0452243947024254,-0.23765410605254794,1.0587965664477659,-6.152916436956724,20.803278998663746,-19.592693566996008
0.04284785364189992,-0.02962131606591048,0.9972674020781986,-6.348843372626685,22.09714528836443,-21.006604629513
0.04255164048124081,0.19135013681773383,0.9337789683519317,-6.5589094189218144,23.424568853221576,-22.627793773106802
0.044465141849418154,0.42559582534994955,0.8681898741627136,-6.785187356652883,24.753988138801443,-24.432031296555486
0.04872110010291765,0.673135706737964,0.8003380005961849,-7.029507669618438,26.018957241167904,-26.350871138956077
0.05545245717029729,0.933325279149643,0.7300429239000005,-7.293016381007998,27.093616987051753,-28.23880995722727
0.06478570996179372,1.2042614490201606,0.6571127600899205,-7.575404480580271,27.756407762196417,-29.823759792451945
0.07682832445199533,1.4818255266421247,0.5813587152841178,-7.8736420785047905,27.644166524312624,-30.642959609456256
0.09164657971841658,1.758267191885251,0.5026222944990698,-8.180071674599352,26.21457290186682,-29.98769824031584
0.1092292516372691,2.020412920903919,0.42082157775307627,-8.479948657002511,22.770654979918334,-26.929032322884453
0.1294333808463083,2.2481194707031027,0.33602209118305115,-8.749238980231356,16.648960635713976,-20.563035436278845
0.15191457555333931,2.4146090770602426,0.2485297013807376,-8.954869334594145,7.6573007696809645,-10.594608089019852
0.17606066632394174,2.4911820847570523,0.15898100803479615,-9.060815415484344,-3.388887441511132,1.9429251188547216
0.20097248717151225,2.457293210341941,0.0683728538799527,-9.041386164295796,-14.593022793909812,14.593717295655333
0.22554541927493166,2.311362982402843,-0.022041007763005258,-8.895448991339242,-23.823009929549332,24.621786128616964
0.24865904909896008,2.0731328831073497,-0.11099549767639767,-8.649231130053073,-29.88313725539393,30.569334636437848
0.26939037793003356,1.7743015105534103,-0.19748780897692841,-8.343537783688694,-32.872687816972324,32.694386870863234
0.2871333930355677,1.445574632383687,-0.28092318681381534,-8.016593914980062,-33.62968400445095,32.18929822192609
0.30158913935940457,1.1092777923391777,-0.361089125963616,-7.694700932760801,-33.06113377534144,30.282969934314657
0.3126819172827963,0.7786664545857633,-0.438036135291224,-7.391871233417654,-31.831581423115118,27.845624388570076
0.32046858182865395,0.46035064035461215,-0.5119548476254006,-7.113414989531954,-30.339304227018896,25.378522439884502
0.3250720882322001,0.15695759808442317,-0.5830889975207201,-6.859629765133109,-28.792408965267608,23.128342983349707
0.3266416642130443,-0.1309664915682529,-0.6516852951720512,-6.628346335299612,-27.285615151801217,21.194788963164463
0.3253319992973618,-0.4038226430862651,-0.7179687585250474,-6.4163984456679675,-25.85265205713059,19.601370397124235
0.3212937728664991,-0.662349163657571,-0.7821327429817271,-6.2203847416967255,-24.49701957794492,18.33551983970763
0.3146702812299234,-0.9073193594370202,-0.8443365903986944,-6.037029543299649,-23.208742093429628,17.369506813662284
0.3055970876355532,-1.1394067803713166,-0.9047068858316909,-5.863334475163026,-21.97308877496633,16.67066964100318
0.29420301983184005,-1.35913766812098,-0.9633402305833212,-5.696627778752995,-20.774942580101726,16.20607002708393
0.28061164315063025,-1.5668870939219972,-1.0203065083708511,-5.534567078482156,-19.600880773777998,15.944367568503807
0.26494277221141027,-1.7628959016597772,-1.0756521791556728,-5.375123402797118,-18.44007072755665,15.856378971589393
0.2473138131948125,-1.9472966089353436,-1.129403413183644,-5.216559613081224,-17.28455695438247,15.915067596969099
0.22784084710545904,-2.1201421784791683,-1.1815690093144562,-5.057408937111533,-16.129235123872753,16.095332681485754
0.20663942532066737,-2.2814345297178957,-1.2321430986855715,-4.896455610296675,-14.971663214140188,16.37377355604039
0.1838250800234884,-2.431151161859298,-1.2811076547885383,-4.732717874736271,-13.81178578934113,16.728504780795483
0.15951356840489542,-2.569269019752709,-1.328434833535901,-4.565432826928316,-12.65161062163309,17.13904745048543
0.13382087820736832,-2.69578512596904,-1.3740891618051843,-4.394042352423462,-11.494859430560965,17.586296387905783
0.10686302694767792,-2.8107337202746496,-1.418029585329419,-4.218179388544404,-10.346606807006681,18.052550536053925
0.07875568974493143,-2.9141997883447166,-1.460211379214863,-4.037653883183864,-9.212918325912984,18.52158848860893
0.04961369186148426,-3.0063289716038466,-1.5005879180467017,-3.8524379982977752,-8.100497730304697,18.978769654016805
0.019550402145445792,-3.0873339489068936,-1.5391122980296794,-3.662650301757607,-7.016352490375732,19.411142397264978
-0.011322937343623145,-3.157497473810651,-1.5757388010472555,-3.4685388777849573,-5.967486333802007,19.807542731934074
-0.04289791208172966,-3.217172337148671,-1.610424189825105,-3.2704634504656167,-4.960626246793714,20.158670176762346
-0.07506963545321638,-3.266778599616608,-1.6431288243297613,-3.0688767486979933,-4.001989930429281,20.457130851007154
-0.10773742144938245,-3.3067984989209007,-1.6738175918167413,-2.8643054401879215,-3.097097855754279,20.69744146142431
-0.14080540643859146,-3.3377694774784437,-1.7024606462186205,-2.6573310255736784,-2.250632039311382,20.87599129452992
-0.1741831012133759,-3.3602757978715574,-1.7290339564743573,-2.4485711126283793,-1.4663416141526175,20.990962486449238
-0.20778585919209147,-3.3749392140130836,-1.753519667600641,-2.238661487763887,-0.7469933417825799,21.042211560634613
-0.2415352513322223,-3.3824091474309093,-1.7759062824782799,-2.028239372157541,-0.094363512852362,21.031117404676586
-0.2753593428065314,-3.3833527825594327,-1.7961886761998553,-1.817928198110775,0.49073369808604045,20.96040244362035
-0.30919287063212575,-3.3784454455785724,-1.814367958180963,-1.6083241736745717,1.0083873751115702,20.833934736746205
-0.34297732508791146,-3.3683615718274567,-1.8304511999177089,-1.3999848263071097,1.4595070830600632,20.656519089275104
-0.376660940806186,-3.353766500996856,-1.8444510481807799,-1.1934196354143587,1.8457230053948819,20.433685072452036
-0.4101986058161546,-3.335309270942907,-1.8563852445349234,-0.9890827846898383,2.169275744568444,20.1714791546307
-0.4435516985255836,-3.313616513497222,-1.8662760723818217,-0.7873679931435313,2.4329021542095473,19.876267053304453
-0.4766878636605558,-3.2892874919551267,-1.874149752313257,-0.5886053226104868,2.6397229787801715,19.554551027537077
-0.5095807385801071,-3.262890262167325,-1.880035805539362,-0.39305981233511605,2.7931373488450606,19.212805248980086
-0.5422096412017804,-3.2349588886788743,-1.883966403662713,-0.2009317598453152,2.8967284058529836,18.857330716915673
-0.5745592300885691,-3.2059916046203445,-1.8859757212611663,-0.012358452676158455,2.954183595119871,18.494129500121538
-0.6066191461347725,-3.176449768669146,-1.8860993057879278,0.17258284232505694,2.96923254910183,18.128796451901675
-0.638383643821464,-3.1467574431781276,-1.8843734773646772,0.3538708068440737,2.9456050548696404,17.766424980429928
-0.6698512182532452,-3.117301392629431,-1.8808347692962364,0.531535056648373,2.8870114178031,17.411521960112715
-0.7010242321795396,-3.0884312784514,-1.8755194187297526,0.7056502762495002,2.797147642201804,17.067925410004236
-0.7319085449640536,-3.060459802029382,-1.8684629159672577,0.8763295303495425,2.6797282768971122,16.7387170945648
-0.7625131429843474,-3.0336625192604108,-1.8596996206637622,1.0437167012951905,2.538550525746836,16.426120672933727
-0.7928497681769515,-3.0082770140029425,-1.8492624536508102,1.2079779080245276,2.3775942680030564,16.131374418040412
-0.822932538316981,-2.984501071322912,-1.8371826745705648,1.3692916522049319,2.201163874917159,15.854565908268563
-0.8527775490302101,-2.96248943257374,-1.8234897580485154,1.5278373112876176,2.0140789295332615,15.59441468557701
-0.8824024433559475,-2.9423486432784074,-1.8082113849356392,1.6837814581433876,1.8219217261541545,15.347988194542044
-0.9118259297887316,-2.924129426016866,-1.7913735703542053,1.837261340088808,1.631348950734312,15.110337393629887
-0.9410672240489002,-2.907815936509523,-1.7730009569533172,1.9883647140251068,1.4504718427474377,14.874043108635542
-0.9701453834139955,-2.8933112180820486,-1.7531173098130661,2.1371051451114624,1.2893011498439373,14.628675552540157
-0.999078495594816,-2.880418206583609,-1.7317462583619514,2.283391900636864,1.160236856501174,14.360192194378275
-1.027882677660652,-2.8688158380185973,-1.7089123393555827,2.4269938225806467,1.0785532400871058,14.050339865746801
-1.056570836040838,-2.858030305617726,-1.6846424011297763,2.567497221238115,1.0627817930729229,13.676193215224576
-1.0851511390970152,-2.8474024876869968,-1.658967428917395,2.7042591533903604,1.1348239659051542,13.210058845803223
-1.1136251639738852,-2.836054248027945,-1.6319248373834914,2.836359741848393,1.3195355014007306,12.620098546976367
-1.1419857064541648,-2.822858893013938,-1.6035612399650074,2.9625607273181567,1.6434344731001254,11.872148007467173
-1.1702142953843042,-2.8064245482829366,-1.573935632691826,3.0812822073928285,2.1321475720055796,10.933257692903387
-1.1982785408671335,-2.785103072562881,-1.5431228106178976,3.1906147843218626,2.8063171425270235,9.77733062872723
-1.2261295715927623,-2.7570399011376105,-1.511216662774679,3.2883880906091347,3.6760650909237746,8.392711477316253
-1.2536999706041383,-2.720279250228373,-1.4783327818685876,3.3723152053822973,4.734821427057552,6.790593915586751
-1.280902763106422,-2.6729310359577974,-1.4446096298147646,3.4402211445381647,5.954251372892312,5.011834070655973
-1.307632073466,-2.6133885222288744,-1.410207418369383,3.4903394852447245,7.282692905581343,3.1288340615340617
-1.3337659586882888,-2.540561593173061,-1.3753040235169356,3.5216278258600653,8.649223562485442,1.2395966564100755
