th1 (rad),w1 (rad/s),th2 (rad),w2 (rad/s),a1 (rad/s^2),a2 (rad/s^2)
2.09283120637195,-0.42070336734740676,0.6358341635610736,0.9999657148191485,-8.727258576008222,-4.652858846054356
2.0886241726984762,-0.507975953107489,0.6458338207092651,0.953437126358605,-8.676543504302897,-4.534725253445466
2.0835444131674015,-0.5947413881505179,0.6553681919728511,0.9080898738241503,-8.635492669196715,-4.395071787684012
2.0775969992858965,-0.6810963148424851,0.6644490907110926,0.8641391559473102,-8.604542648605001,-4.23390983966404
2.0707860361374717,-0.7671417413285351,0.6730904822705657,0.8218000575506698,-8.584108034507777,-4.05115527511211
2.0631146187241862,-0.8529828216736128,0.6813084828460724,0.7812885047995487,-8.574590423125166,-3.8466285718392683
2.05458479050745,-0.9387287259048644,0.6891213678940679,0.742822219081156,-8.576388194926494,-3.620054718484389
2.045197503248401,-1.0244926078541294,0.6965495900848794,0.7066216718963121,-8.589907133567582,-3.371062726866876
2.03495257716986,-1.1103916791898052,0.7036158068038425,0.6729110446276433,-8.615571949219655,-3.099184617270343
2.0238486603779617,-1.1965473986820017,0.710344917250119,0.6419191984549398,-8.653838784321847,-2.8038537455632317
2.0118831863911417,-1.28308578652522,0.7167641092346684,0.6138806609993075,-8.705208787080839,-2.4844023555283115
1.9990523285258894,-1.3701378743960284,0.7229029158446615,0.5890366374440243,-8.770242837766656,-2.1400582630080587
1.985350949781929,-1.457840302773695,0.7287932822191018,0.5676360548139437,-8.84957750147758,-1.7699406163838773
1.9707725467541921,-1.546336077788471,0.7344696427672412,0.5499366486501049,-8.943942253145606,-1.3730547393588706
1.9553091859763074,-1.635775500319927,0.7399690092537423,0.5362061012565162,-9.05417796785203,-0.9482861602365095
1.9389514309731082,-1.7263172799984474,0.7453310702663075,0.5267232396541511,-9.181256579451976,-0.4943940865691772
1.9216882581731236,-1.818129845792967,0.750598302662849,0.5217792987884594,-9.326301664041651,-0.010004824466134245
1.903506959715194,-1.9113928624333836,0.7558160956507336,0.521679250543798,-9.490609473207403,0.5063939884722811
1.88439303109086,-2.0062989571654577,0.7610328881561715,0.5267431904285208,-9.675669581951492,1.0564569039510991
1.8643300415192054,-2.1030556529849727,0.7663003200604568,0.5373077594680318,-9.883183762499407,1.6419796508998845
1.8432994849893558,-2.2018874906099666,0.7716733976551371,0.5537275559770306,-10.115080849941599,2.264890016518639
1.8212806100832561,-2.3030382991093825,0.7772106732149074,0.576376456142217,-10.373524082238275,2.927225113260317
1.7982502270921623,-2.4067735399317653,0.7829744377763296,0.6056487072748201,-10.660905457032957,3.6310866316208625
1.7741824916928446,-2.513382594502095,0.7890309248490778,0.6419595735910287,-10.979818727807212,4.378561365033856
1.7490486657478237,-2.6231807817801673,0.7954505205849881,0.6857451872413673,-11.332998289779272,5.171587890109619
1.722816857930022,-2.73651076467796,0.8023079724574018,0.7374610661424635,-11.723204704050502,6.011740840646521
1.6954517502832425,-2.853742811718465,0.8096825831188265,0.7975784745489287,-12.153028034546091,6.8998904139693575
1.6669143221660578,-2.975273092063926,0.8176583678643158,0.8665773786886223,-12.624566283421206,7.835674879905509
1.6371615912454185,-3.1015187548981378,0.826324141651202,0.9449341274876774,-13.138916524402974,8.816695919258224
1.606146403696437,-3.2329079201421673,0.8357734829260788,1.0331010866802597,-13.695389459142694,9.83730880174122
1.5738173244950153,-3.369861814733594,0.8461044937928813,1.131474174697672,-14.290323738887828,10.886831573121782
1.5401187063476793,-3.5127650521224725,0.857419235539858,1.2403424904288898,-14.915337644677086,11.946944523280292
1.5049910558264545,-3.661918428569243,0.8698226604441469,1.3598119356616927,-15.554824415571742,12.98801081704667
1.468371871540762,-3.8174666727249607,0.8834207798007638,1.4896920438321595,-16.182504358412032,13.96406605403136
1.4301972048135125,-3.979291716309081,0.8983177002390854,1.629332704372473,-16.756959006468783,14.80639557359988
1.3904042876504217,-4.1468613063737685,0.9146110272828102,1.7773966601084719,-17.216417215284313,15.416125826541666
1.348935674586684,-4.319025478526612,0.932384993883895,1.9315579183738885,-17.473840620174922,15.657385608602967
1.305745419801418,-4.493763884728361,0.9517005730676338,2.088131774459918,-17.414784798424037,15.354652693723207
1.2608077809541345,-4.667911732712602,0.972581890812233,2.24167830139715,-16.902573033974182,14.300854893059755
1.2141286636270086,-4.836937463052344,0.9949986738262045,2.3846868503277476,-15.797126077823798,12.285364047118206
1.1657592889964852,-4.994908723830582,1.018845542329482,2.5075404907989296,-13.992727013780035,9.149456094817621
1.1158102017581792,-5.134835993968382,1.0439209472374713,2.599035051747106,-11.471921429406514,4.865181032372569
1.0644618418184955,-5.249555208262447,1.0699112977549423,2.647686862070832,-8.356107912065195,-0.39033814260190786
1.011966289735871,-5.333116287383099,1.0963881663756507,2.643783480644813,-4.917613111670504,-6.215907026629586
0.95863512686204,-5.382292418499804,1.122826001182099,2.581624410378517,-1.5250151256873026,-12.063624865203334
0.904812202677042,-5.397542569756677,1.1486422452858842,2.4609881617264837,1.465674329499675,-17.3953978839431
0.8508367769794752,-5.38288582646168,1.173252126903149,2.287034182887053,3.8164492364010534,-21.836658268039553
0.7970079187148584,-5.34472133409767,1.1961224687320196,2.0686676002066573,5.452113901319566,-25.244593152014005
0.7435607053738817,-5.290200195084474,1.216809144734086,1.8162216686865174,6.4349057419064195,-27.675602887490186
0.690658703423037,-5.22585113766541,1.2349713614209512,1.5394656398116155,6.90341071049086,-29.30000764650242
0.6384001920463829,-5.156817030560502,1.2503660178190674,1.2464655633465913,7.015195639451279,-30.320206598605694
0.5868320217407779,-5.086665074165989,1.2628306734525334,0.9432634973605344,6.911712736859792,-30.919496678209562
0.535965370999118,-5.017547946797391,1.2722633084261388,0.6340685305784388,6.704653193040117,-31.241200124489335
0.4857898915311441,-4.95050141486699,1.2786039937319231,0.32165652933354544,6.475482789420321,-31.38682963027096
0.43628487738247423,-4.885746586972786,1.2818205590252585,0.007788233030835812,6.280609104282523,-31.422718697255405
0.3874274115127464,-4.822940495929961,1.2818984413555667,-0.3064389539417183,6.157694733835065,-31.38872070667259
0.3391980065534468,-4.761363548591611,1.2788340518161496,-0.6203261610084442,6.13115364659374,-31.3061009771104
0.29158437106753066,-4.700052012125673,1.2726307902060652,-0.9333871707795482,6.216291346381665,-31.183763902470247
0.24458385094627394,-4.637889098661857,1.2632969184982696,-1.2452248098042507,6.422170918329298,-31.022854522747796
0.19820495995965537,-4.5736673894785635,1.2508446704002272,-1.5554533550317287,6.753480837237066,-30.82006410367198
0.15246828606486973,-4.5061325811061925,1.2352901368499098,-1.8636539960684484,7.2116907999112065,-30.569993586050614
0.1074069602538078,-4.434015673107081,1.2166535968892254,-2.1693539319289545,7.795732208940065,-30.26686240795011
0.063066803522737,-4.35605835101768,1.1949600575699357,-2.4720225560084557,8.502382116271741,-29.905768757345907
0.0195062200125602,-4.271034529854963,1.1702398320098513,-2.7710802435819146,9.32648063609021,-29.483637459405106
-0.023204125285989426,-4.177769723494061,1.142529029574032,-3.0659166181759656,10.261074910995376,-28.999939479294394
-0.06498182252093004,-4.075158974384107,1.1118698633922723,-3.3559160129689096,11.297555632728027,-28.457231107978977
-0.10573341226477112,-3.9621834180568265,1.0783107032625832,-3.6404883240486994,12.425831861083592,-27.86153809787408
-0.14535524644533937,-3.8379250994459904,1.041905820022096,-3.91910370502744,13.634573819700053,-27.22259716577475
-0.18373449743979928,-3.70157936124899,1.0027147829718217,-4.1913296766851875,14.911539564199433,-26.553961698894756
-0.2207502910522892,-3.5524639656069956,0.9608014862049699,-4.456869293674135,16.243988676707254,-25.872977890009036
-0.25627493070835916,-3.390024078839923,0.9162327932682285,-4.715599072574225,17.619173680298385,-25.200639728803814
-0.2901751714967584,-3.2138323420369392,0.8690768025424862,-4.967605469862263,19.024887140411835,-24.561333968175603
-0.3223134949171278,-3.023583470632821,0.8194007478438636,-5.213218809544019,20.45002874182847,-23.982486546195005
-0.35254932962345603,-2.8190831832145364,0.7672685597484235,-5.4530436750059685,21.885140677364337,-23.494116193617746
-0.3807401614556014,-2.600231776440893,0.7127381229983638,-5.687984836942146,23.322838760450793,-23.128283605326015
-0.40674247922001033,-2.367003388836385,0.6558582746289423,-5.919267672995407,24.75803557012042,-22.91838712595743
-0.4304125131083742,-2.1194230331351807,0.5966655978989882,-6.148451544254981,26.187801170088125,-22.898184696726652
-0.451606743439726,-1.8575450214342994,0.5351810824564384,-6.377433391222247,27.610620049250794,-23.100294170143187
-0.470182193654069,-1.5814388209417916,0.4714067485442159,-6.608436332923679,29.0246525875134,-23.553702654342942
-0.48599658186348693,-1.2911922950666574,0.4053223852149791,-6.843973359467109,30.424352897278528,-24.27944099848234
-0.4989085048141535,-0.9869487660938722,0.336882651620308,-7.086767769451932,31.794373033967187,-25.282966749956348
-0.5087779924750923,-0.6690050357542003,0.26601497392578866,-7.339597436951496,33.09903657600336,-26.540855480861183
-0.5154680428326343,-0.33801466999416674,0.1926189995562737,-7.605005991760107,34.264810079559595,-27.978127696690667
-0.5188481895325759,0.004633430801429195,0.11656893963867264,-7.884787268727014,35.15249085348406,-29.43137809336784
-0.5188018552245617,0.3561583393362698,0.037721066951402496,-8.179101049660693,35.516642484064604,-30.593658220660263
-0.515240271831199,0.7113247641769158,-0.04406994354520444,-8.485037631867295,34.95601879228584,-30.94506377455177
-0.5081270241894299,1.0608849520997743,-0.1289203198638774,-8.794488269612811,32.87843369921622,-29.699414367614338
-0.4975181746684322,1.3896692890919364,-0.21686520256000552,-9.091482413288954,28.545867615460054,-25.855249491766187
-0.4836214817775128,1.675127965246537,-0.30778002669289506,-9.350034908206617,21.31522588461933,-18.508571559220847
-0.46687020212504743,1.8882802240927303,-0.40128037577496123,-9.535120623798825,11.146580811348816,-7.528458746667612
-0.4479873998841201,1.9997460322062186,-0.4966315820129495,-9.610405211265501,-0.8572568401824396,5.720067645807277
-0.42798993956205794,1.9911734638043943,-0.5927356341256045,-9.553204534807428,-12.537229510388258,18.492299473206973
-0.408078204924014,1.8658011687005116,-0.6882676794736787,-9.368281540075358,-21.73711580531735,28.077083613891396
-0.3894201932370089,1.648430010647338,-0.7819504948744324,-9.087510703936445,-27.47026825521217,33.32615689816856
-0.3729358931305355,1.3737273280952162,-0.8728256019137968,-8.75424913495476,-30.068038279605812,34.80157938743772
-0.35919861984958334,1.0730469452991582,-0.9603680932633444,-8.406233341080382,-30.485347346410702,33.82189793111723
-0.34846815039659174,0.7681934718350512,-1.0444304266741482,-8.06801436176921,-29.64707745573355,31.604066270567483
-0.34078621567824124,0.47172269727771565,-1.1251105702918403,-7.7519736990635355,-28.197790969587434,28.96011578537512
-0.3360689887054641,0.18974478758184132,-1.2026303072824756,-7.462372541209785,-26.513921999116132,26.33719580744629
-0.3341715408296457,-0.07539443240931998,-1.2772540326945734,-7.199000583135322,-24.790099009027486,23.94452952504404
-0.3349254851537389,-0.32329542249959486,-1.3492440385259266,-6.959555287884882,-23.115385145446307,21.858729757446447
-0.3381584393787348,-0.554449273954058,-1.4188395914047753,-6.740967990310418,-21.52289448284866,20.089715669393343
-0.3437029321182754,-0.7696782187825446,-1.4862492713078794,-6.540070833616484,-20.018232359131638,18.617062259793055
-0.35139971430610084,-0.969860542373861,-1.5516499796440444,-6.353900211018554,-18.594754188115306,17.40860831084177
-0.36109831972983947,-1.155808084255014,-1.61518898175423,-6.179814127910136,-17.241400864259898,16.429422173365083
-0.37265640057238963,-1.328222092897613,-1.6769871230333313,-6.015519906176485,-15.946550570897351,15.645809533229023
-0.38593862150136576,-1.4876875986065865,-1.7371423220950961,-5.859061810844195,-14.69978829099107,15.026876388054115
-0.4008154974874316,-1.6346854815164973,-1.795732940203538,-5.708793046963653,-13.492606361822324,14.54494280911779
-0.4171623523025966,-1.7696115451347205,-1.8528208706731746,-5.563343618872476,-12.318566521007135,14.175456994312585
-0.43485846775394377,-1.8927972103447919,-1.9084543068618993,-5.4215890489293495,-11.173198493510553,13.896725645838776
-0.4537864398573917,-2.0045291952798974,-1.9626701973511929,-5.2826217924709615,-10.053776979369053,13.68960736098382
-0.47383173181019067,-2.105066965073588,-2.0154964152759023,-5.145725718861123,-8.95905003844278,13.537230972826542
-0.49488240146092655,-2.194657465458016,-2.0669536724645137,-5.010353409132858,-7.888956517065627,13.424759278424872
-0.5168289761155067,-2.2735470306286722,-2.117057206555842,-4.876105816348609,-6.844352128591838,13.339199128491758
-0.5395644464217935,-2.3419905519145905,-2.1658182647193285,-4.742713825063691,-5.826754617232812,13.269250578283607
-0.5629843519409393,-2.4002580980869186,-2.2132454029699655,-4.610021319280856,-4.8381136901301325,13.205185160324104
-0.5869869329218085,-2.44863923498822,-2.2593456161627743,-4.477969467677615,-3.8806088178113294,13.13874347367843
-0.6114733252716906,-2.4874453231663334,-2.3041253108395505,-4.34658203294083,-2.9564764267256742,13.06304370034179
-0.636347778503354,-2.51701008743359,-2.347591131168959,-4.215951595937413,-2.0678668844237422,12.97249456740218
-0.6615178793776899,-2.5376887562778276,-2.389750647128333,-4.086226650263391,-1.2167307653659047,12.862708249618052
-0.6868947669404681,-2.549856063931487,-2.430612913630967,-3.9575995677672102,-0.40473309851257566,12.730410522692742
-0.712393327579783,-2.553903394916613,-2.470188909308639,-3.830295462540283,0.36680637485504913,12.57334701569656
-0.7379323615289491,-2.550235331168062,-2.508491863934042,-3.7045619923833173,1.096949447913489,12.390185621942633
-0.7634347148406297,-2.5392658366889274,-2.545537483857875,-3.580660136163891,1.7851551103649577,12.180416004529798
-0.7888273732075191,-2.5214142855852777,-2.5813440852195138,-3.458855976118593,2.4312777754643893,11.944247697432226
-0.8140415160633718,-2.497101507830634,-2.6159326449807,-3.3394134991442708,3.0355513064016333,11.682508594990772
-0.8390125311416782,-2.4667459947666175,-2.6493267799721427,-3.222588413194363,3.5985620208628055,11.39654569122664
-0.8636799910893443,-2.4307603745579893,-2.6815526641040863,-3.1086229562820966,4.121213679103157,11.088129828151652
-0.8879875948349243,-2.3895482377669577,-2.7126388936669072,-2.9977416580005802,4.604687196649124,10.759365990217722
-0.9118830772125939,-2.3435013658004666,-2.742616310246913,-2.890147998098403,5.050397496399805,10.412610386264788
-0.9353180908705986,-2.2929973908364687,-2.771517790227897,-2.786021894235755,5.4599495536376,10.050395229760305
-0.9582480647789633,-2.2383978953000927,-2.7993780091702547,-2.685517941938152,5.8350953152152965,9.675361793769255
-0.9806320437319642,-2.1800469421479396,-2.826233188589636,-2.588764324000459,6.177692810515136,9.29020200196168
-1.0024325131534435,-2.118270014042788,-2.852120831829641,-2.4958623039808425,6.489668431464686,8.897608536704201
-1.0236152132938714,-2.0533733297281413,-2.8770794548694494,-2.4068862186138005,6.772983052109928,8.500233209183403
-1.0441489465911529,-1.985643499207042,-2.901148317055587,-2.3218838865219666,7.029602391016355,8.100653148676102
-1.0640053815832233,-1.9153474752968784,-2.9243671559208066,-2.2408773550352055,7.261471794657125,7.701344228624432
-1.083158856336192,-1.8427327573503072,-2.946775929471159,-2.163863912748961,7.4704954367932705,7.3046610533144385
-1.1015861839096952,-1.7680278029823744,-2.9684145685986483,-2.0908173022158167,7.658519785491655,6.912822775996954
-1.119266461939519,-1.6914426051274578,-2.9893227416208066,-2.021689074455847,7.827321082345684,6.527904001409313
-1.1361808879907935,-1.613169394304001,-3.009539632365365,-1.9564100344417539,7.978596503342656,6.151830036548679
-1.1523125819338336,-1.5333834292705746,-3.0291037327097827,-1.894891734076267,8.113958622980864,5.78637578689365
-1.1676464162265394,-1.452243843040766,-3.0480526500505456,-1.8370279762073305,8.234932777975335,5.433167645080662
-1.182168854656947,-1.3698945152610127,-3.066422929812619,-1.7826962997565239,8.342956919717693,5.093687779878792
-1.1958677998095573,-1.2864649460638358,-3.0842498928101842,-1.731759421957736,8.439383551464282,4.76928030041801
-1.2087324492701956,-1.202071110549193,-3.1015674870297616,-1.6840666189535558,8.52548336337833,4.461158840001142
-1.2207531603756876,-1.1168162769154097,-3.1184081532192973,-1.6394550305535445,8.602450202916161,4.170415172200947
-1.2319213231448416,-1.030791774886248,-3.1348027035248327,-1.597750878831535,8.671407047002276,3.8980285367502874
-1.2422292408937041,-0.9440777044162253,-3.150780212313148,-1.5587705934640321,8.733412673840652,3.6448754120564524
-1.2516700179378664,-0.8567435776778187,-3.1663679182477886,-1.5223218393434677,8.789468764348356,3.4117395236538077
-1.2602374537146446,-0.7688488900343351,-3.1815911366412233,-1.4882044441069295,8.840527194734337,3.1993219226696885
-1.267925942614988,-0.6804436180869917,-3.1964731810822924,-1.4562112248802326,8.88749731165284,3.008251004919328
-1.274730378795858,-0.5915686449704634,-3.211035293331095,-1.4261287148310393,8.931253008857452,2.839092369367511
-1.2806460652455625,-0.5022561148818888,-3.225296580479405,-1.3977377911373643,8.972639448778393,2.6923584344167426
-1.2856686263943813,-0.41252972039410485,-3.2392739583907786,-1.3708142067931968,9.012479293490449,2.5685177419688268
-1.2897939235983222,-0.32240492745920035,-3.2529821004587105,-1.3451290293735085,9.051578326775301,2.468003882706524
-1.2930179728729143,-0.23188914419144735,-3.2664333907524457,-1.3204489905464434,9.09073036211325,2.3912239718313018
-1.2953368643148289,-0.14098184057031485,-3.2796378806579103,-1.2965367508281305,9.130721340205467,2.338566592835771
-1.296746682720532,-0.04967462716826018,-3.2926032481661918,-1.2731510848997727,9.172332523790018,2.3104091080042926
-1.2972434289922146,0.04204869806964,-3.3053347590151896,-1.2500469938197298,9.216342696853072,2.3071242083787604
-1.2968229420115183,0.1342121250381707,-3.317835228953387,-1.2269757517359423,9.263529269656665,2.3290855429885045
-1.2954808207611366,0.22684741773473738,-3.3301049864707464,-1.2036848963060574,9.314668180160549,2.3766722272630134
-1.2932123465837893,0.31999409953634284,-3.342141835433807,-1.1799181740334272,9.370532466344919,2.4502719837495803
-1.290012405588426,0.413699424199792,-3.353941017174141,-1.1554154541959314,9.43188936271751,2.5502826146258686
-1.285875411346428,0.508018317826967,-3.3654951717161006,-1.1299126280496727,9.499495748198866,2.6771114452685976
-1.2807952281681583,0.6030132753089557,-3.3767942979965975,-1.1031415135969869,9.574091742219842,2.8311723118605854
-1.2747650954150687,0.698754192731154,-3.3878257131325675,-1.074829790478381,9.656392212274547,3.01287959475046
-1.2677775534877571,0.7953181148538995,-3.3985740110373515,-1.0447009945308765,9.747075920992593,3.2226387248680464
-1.2598243723392182,0.8927888740638255,-3.40902102098266,-1.012474607282196,9.846772006477021,3.4608325159238933
-1.2508964835985799,0.9912565941285957,-3.419145767055482,-0.977866282122957,9.956043459692745,3.727802604923234
-1.2409839176572939,1.0908170287255232,-3.428924429876712,-0.9405882560737246,10.075367241892813,4.023825224308182
-1.2300757473700386,1.1915707011444514,-3.438330312437449,-0.9003500038306428,10.205110679837354,4.34908049003776
