th1 (rad),w1 (rad/s),th2 (rad),w2 (rad/s)
1.6404714654454078,-1.7337016036691166,4.196321242034954,-2.364148880607652
1.6231344494087165,-1.8159960993675481,4.172679753228878,-2.36410410406705
1.604974488415041,-1.8999134404013112,4.149038712188207,-2.368072576888245
1.585975354011028,-1.9854616318266782,4.125357986419325,-2.3762496256533336
1.5661207376927613,-2.0726408752388763,4.101595490162792,-2.3888294705914
1.5453943289403724,-2.1614432498420015,4.0777071954568775,-2.40600476276869
1.5237798964419524,-2.251852207289821,4.0536471478291904,-2.4279658950268344
1.5012613743690542,-2.343841882598776,4.029367488878922,-2.45490009046178
1.4778229555430664,-2.437376223899677,4.004818487974304,-2.4869902720769788
1.4534491933040696,-2.532407944703067,3.979948585253534,-2.524413717677688
1.428125113857039,-2.628877303747725,3.954704448076757,-2.5673405051791653
1.4018363408195618,-2.7267107193964972,3.9290310430249655,-2.6159317553251307
1.3745692336255968,-2.82581922792203,3.902871725471714,-2.670337681357835
1.3463110413463766,-2.926096797836021,3.8761683486581355,-2.730695458401375
1.3170500733680164,-3.0274185155701665,3.8488613940741216,-2.797126929110208
1.2867758882123148,-3.1296386611847224,3.8208901247830194,-2.869736166321236
1.2554795016004676,-3.2325886961892647,3.792192763119807,-2.948606917780883
1.223153614638575,-3.3360751887984743,3.762706693941998,-3.033799962170897
1.1897928627505903,-3.4398777047712006,3.7323686943202894,-3.125350409227831
1.1553940857028782,-3.5437466941354936,3.7011151902280113,-3.223264979283197
1.1199566187615233,-3.6474014053350863,3.6688825404351793,-3.327519298556598
1.0834826047081725,-3.750527858433758,3.6356073474496133,-3.4380552455394673
1.045977326123835,-3.852776907855552,3.6012267949942185,-3.554778380413879
1.0074495570452795,-3.9537624227267076,3.56567901119008,-3.6775554834123865
0.9679119328180125,-4.0530596094149995,3.528903456355956,-3.8062122193374153
0.9273813367238625,-4.150203496777467,3.4908413341625817,-3.940530934462154
0.8858793017560878,-4.244687600672855,3.4514360248179603,-4.080248579514964
0.8434324257493592,-4.335962781556381,3.4106335390228106,-4.225054739729982
0.8000727979337954,-4.423436308895045,3.368382991625511,-4.374589741959485
0.7558384348448449,-4.506471150502453,3.324637094205916,-4.528442802156154
0.7107737233398204,-4.584385515739385,3.2793526661843546,-4.686150177316776
0.6649298681824265,-4.65645270103176,3.232491164411187,-4.847193297890957
0.618365341172109,-4.721901316388394,3.1840192314322775,-5.0109968836158005
0.571146328008225,-4.779916014181358,3.1339092625961196,-5.17692709154624
0.5233471678664113,-4.829638897094316,3.0821399916806573,-5.344289812863849
0.47505077889546815,-4.870171850039587,3.0286970935520188,-5.512329326620574
0.42634906039507225,-4.900580117914141,2.973573800285813,-5.680227633307842
0.3773432592159308,-4.91989753111816,2.9167715239527348,-5.847104924923518
0.3281442839047492,-4.927133853660587,2.8583004747034995,-6.012021792144641
0.27887294536814333,-4.921284779705399,2.798180256782053,-6.173983908425015
0.22966009757108935,-4.901345114139509,2.7364404176978026,-6.331950043658399
0.18064664642969425,-4.866325617827544,2.6731209172612185,-6.484844318111442
0.1319833902514188,-4.815273853642061,2.608272474080104,-6.631573577175419
0.08383065171499819,-4.74729911254159,2.54195673830835,-6.771050614377259
0.036357660589582286,-4.661601115961383,2.4742462321645773,-6.902223664526903
-0.010258350570031542,-4.557501684121099,2.405223995519308,-7.024112115727063
-0.05583336741124253,-4.434477956807996,2.3349828743620376,-7.1358477581882935
-0.10017814697932248,-4.292195111993542,2.2636243967801546,-7.2367201443662665
-0.1431000980992579,-4.130535938430931,2.191257195336492,-7.326223864432569
-0.1844054574835672,-3.9496241955478655,2.1179949566921663,-7.404104866555857
-0.22390169943904586,-3.7498385578282396,2.043953908026608,-7.470402518411473
-0.26140008501732825,-3.53181418992831,1.9692498828424931,-7.5254840553269595
-0.29671822691661137,-3.296429677619337,1.8939950422892236,-7.570068491657931
-0.32968252369280476,-3.044778112339487,1.8182943573726442,-7.6052380107230695
-0.3601303048161996,-2.778122466476891,1.7422419772654134,-7.632436224298212
-0.3879115294809685,-2.4978367973891573,1.6659176150224313,-7.653454341372835
-0.4128898974548601,-2.2053360355742746,1.589383071608703,-7.670407980862355
-0.43494325781060283,-1.9019979153583024,1.5126789918000794,-7.685708866939831
-0.45396323696418583,-1.589080832018847,1.4358219031306811,-7.702036769758116
-0.4698540452843743,-1.2676409996571476,1.3588015354331,-7.722317704923507
-0.4825304552809458,-0.9384512964907171,1.281578358383865,-7.749714602147027
-0.49191496824585296,-0.6019227742441402,1.2040812123623947,-7.787636512933309
-0.49793419598829436,-0.25802820260576004,1.1262048472330617,-7.83977210607115
-0.500514478014352,0.09377449578266667,1.0478071261723503,-7.910152802623984
-0.49957673305652534,0.454622098644581,0.9687055981461105,-8.003250327006242
-0.49503051207007953,0.826332288198205,0.8886730948760481,-8.12411210128861
-0.48676718918809747,1.2114966102131202,0.807431973863162,-8.278534083687944
-0.4746522230859663,1.6135722443416713,0.7246466330262826,-8.473260149738863
-0.45851650064254956,2.0369433434812856,0.639914031528894,-8.716170024107301
-0.4381470672077367,2.486871776562185,0.552752331287821,-9.016351126032774
-0.4132783494421149,2.9691390800899753,0.46258882002749324,-9.383791463117316
-0.3835869586412151,3.488916534369956,0.36875090539632005,-9.828069171769451
-0.34869779329751555,4.047842565895487,0.27047021367862556,-10.354642211707985
-0.30821936763856067,4.637289932376696,0.16692379156154571,-10.955941396297813
-0.2618464683147937,5.224852355449047,0.05736437759856758,-11.593076108135179
-0.20959794476030322,5.733902860603446,-0.058566383482784215,-12.167698982032622
-0.15225891615426876,6.033883566033067,-0.18024337330311044,-12.507995653979641
-0.09192008049393809,5.992123202461969,-0.3053233298429069,-12.438496096635568
-0.03199884846931839,5.597056352889234,-0.42970829080926254,-11.946888736722501
0.023971715059573948,4.991817386245632,-0.5491771781764876,-11.226728979778345
0.07388988892203027,4.33907091860509,-0.661444467974271,-10.49201166140728
0.11728059810808117,3.724424897637797,-0.7663645845883439,-9.849687227707834
0.15452484708445913,3.171062843846063,-0.8648614568654223,-9.323470658104757
0.18623547552291975,2.6758306243482837,-0.9580961634464699,-8.903792924729066
0.21299378176640257,2.2284606583758095,-1.0471340926937605,-8.573374905084282
0.23527838835016068,1.8184683652640403,-1.1328678417446032,-8.315891767013484
0.2534630720028011,1.437011511738004,-1.216026759414738,-8.1179739834252
0.26783318712018117,1.0770927576536429,-1.29720649924899,-7.969132863614301
0.2786041146967176,0.7333169906456212,-1.376897827885133,-7.861197682686647
0.2859372846031738,0.4015886949966816,-1.4555098047119994,-7.787741554669177
0.2899531715531406,0.07885456045258887,-1.5333872202586911,-7.743610686011146
0.2907417171576665,-0.2370920673394306,-1.6108233271188026,-7.7245640363382
0.2883707964842722,-0.5477533910190275,-1.6880689674821845,-7.727004407943592
0.2828932625740819,-0.854029506353611,-1.7653390115616203,-7.74778030759942
0.27435296751054583,-1.1562935859409778,-1.8428168146376145,-7.784042264185513
0.26279003165113607,-1.4544505657581384,-1.9206572372794697,-7.833142081133912
0.24824552599355468,-1.7479879715014541,-1.9989886580908087,-7.892567263940444
0.23076564627854013,-2.0360256869993574,-2.0779143307302133,-7.959905336012136
0.21040538940854656,-2.317369700298646,-2.1575133840903344,-8.03283402547132
0.1872316924055601,-2.590573003112049,-2.2378417243450475,-8.10913354449417
0.1613259623744396,-2.854004778669087,-2.3189330597899893,-8.186716615253365
0.13278591458774874,-3.1059268288121378,-2.400800225942523,-8.26367081555245
0.10172664629962737,-3.344574040282669,-2.4834369340980476,-8.338306596119201
0.06828090589680068,-3.568233865564386,-2.5668200000592396,-8.409203388446132
0.03259856724115682,-3.775318638566376,-2.650912033943701,-8.475245989371702
-0.005154619144506947,-3.9644243537217796,-2.735664493837418,-8.535644170764117
-0.04479886268172474,-4.134370447791305,-2.821020935545059,-8.589930297764505
-0.08614256715963779,-4.284217048886898,-2.906920238522704,-8.637932458128034
-0.12898473764850676,-4.413258778162395,-2.9932995631039847,-8.679723782943162
-0.1731173254301307,-4.52099703122333,-3.080096800933416,-8.715551726952684
-0.218327295742364,-4.607095226894837,-3.167252318202943,-8.745753562142028
-0.2643982480113124,-4.671323396997304,-3.2547098538243633,-8.770665887847807
-0.31111148198128546,-4.713499504608792,-3.3424165127028416,-8.790536493100081
-0.3582464770273734,-4.733435029400738,-3.430321877633842,-8.805446571425081
-0.4055808273213808,-4.7308918027597535,-3.518376343348093,-8.81525036576573
-0.4528897453489783,-4.7055560149507585,-3.6065288470057504,-8.819538093573765
-0.49994530549848587,-4.657033905414237,-3.6947242279414882,-8.817626641056666
-0.5465156445526282,-4.584871935773519,-3.782900494352055,-8.808581025939938
-0.5923643639103634,-4.488602183883479,-3.8709863046114545,-8.791267863093507
-0.6372503857491982,-4.367811200242978,-3.9588989832423898,-8.764439811198125
-0.680928497751628,-4.222227619065243,-4.046543381354371,-8.726847079446973
-0.7231507739422804,-4.051820586924643,-4.133811852148841,-8.677368593363394
-0.7636689798115269,-3.8568980043661973,-4.220585538082475,-8.615151752029355
-0.8022379598551889,-3.6381913741817327,-4.306737055602769,-8.539746602267794
-0.8386198735970062,-3.3969135370273515,-4.392134521625446,-8.451218678514556
-0.8725890089672796,-3.1347774183655615,-4.476646708410592,-8.350225611987801
-0.9039367831509353,-2.8539682959531594,-4.5601489645304705,-8.238046353065853
-0.9324764661104669,-2.5570684926931824,-4.642529428061129,-8.116558168918738
-0.9580471510373987,-2.246940564802134,-4.723695009750316,-7.988164335967512
-0.98051655668542,-1.9265813532907854,-4.8035766531099915,-7.85568294427383
-0.9997823702183279,-1.5989631919226603,-4.88213348255273,-7.722212747588055
-1.0157720021375545,-1.2668792583939306,-4.95935561002861,-7.590994370011173
-1.0284407947214937,-0.9328075746273958,-5.035265553728722,-7.465284186424627
-1.0377688704677677,-0.5988033878354142,-5.109918395592969,-7.348254517600468
-1.043756904346122,-0.2664239194434381,-5.183400940768974,-7.242928693722647
-1.0464211435405564,0.0633159539106285,-5.2558302277062,-7.152154418157174
-1.0457879840014501,0.3899627243449701,-5.327351771887772,-7.078614784392939
-1.0418883567580004,0.7136262327261859,-5.398137919731701,-7.024873843683966
-1.0347520944307385,1.034973987283568,-5.468386658168541,-6.993452884962285
-1.0244023545579029,1.3552272440012005,-5.5383211870181634,-6.986934325374575
-1.0108500821178907,1.6761676885062344,-5.6081905302719095,-7.0080918935191505
-0.9940884052328284,2.000162704262203,-5.678271449207101,-7.060048104186954
-0.9740867781902064,2.330216136770539,-5.748871930248971,-7.1464622075797175
-0.950784616822501,2.6700496313534177,-5.820336552324767,-7.27175268961166
-0.9240841205089668,3.0242152757722,-5.893054079220884,-7.441355447222907
-0.8938419677512448,3.398228906954057,-5.967467633693113,-7.662005816784707
-0.8598596786817042,3.7986840513299147,-6.04408769186096,-7.941994702794279
-0.8218728381684051,4.233232726942432,-6.123507638888903,-8.291249857774107
-0.7795405108989808,4.710139558614248,-6.206420137466644,-8.72084716102057
-0.7324391153128383,5.2366937821877055,-6.293628609076849,-9.240972949511558
-0.6800721774909613,5.8148484087947905,-6.386038338571965,-9.855081681154283
-0.6219236934030133,6.430849167714475,-6.484589155383508,-10.545731414313188
-0.5576152017258686,7.034644533879277,-6.590046469526641,-11.246146774973496
-0.4872687563870759,7.513012636602948,-6.702507937276375,-11.802743930780267
-0.41213863002104645,7.696940848527896,-6.820535376584178,-11.98467076670638
-0.3351692215357675,7.476342755307048,-6.940382084251241,-11.641652054416252
-0.26040579398269703,6.940909986602301,-7.056798604795404,-10.896970052116826
-0.19099669411667403,6.297705631050196,-7.165768305316572,-10.031619195884785
-0.12801963780617207,5.687984130438597,-7.26608449727542,-9.233354195833657
-0.07113979650178609,5.157833148834026,-7.358418039233757,-8.559762477892303
-0.019561465013445828,4.707425759433282,-7.44401566401268,-8.00730391756458
0.027512792580886992,4.3239637969144695,-7.524088703188325,-7.556266238833429
0.07075243055003169,3.9937101905416754,-7.599651365576659,-7.186719382330191
0.11068953245544845,3.7050975247560083,-7.671518559399961,-6.8823688924674435
0.14774050770300853,3.4490232979593998,-7.740342248324636,-6.630708099041816
0.18223074068260253,3.218446261730849,-7.806649329315054,-6.4223131550469255
0.21441520329991104,3.007910186465641,-7.870872460865523,-6.250094936301063
0.24449430516456744,2.8131497083417463,-7.933373410228533,-6.108691869957288
0.2726258022479849,2.6307964556392043,-7.994460328928106,-5.994011632186772
0.29893376680437694,2.458170201191556,-8.054400445249973,-5.902889821617565
0.3235154688162925,2.293136023579509,-8.113429343466148,-5.832831720661233
0.34644682905208757,2.134011951467412,-8.17175766067276,-5.7818098467446
0.3677869485667617,1.9795157234769276,-8.229575759140207,-5.748097170941239
0.38758210580153096,1.8287423409462304,-8.287056730849619,-5.730122045173579
0.4058695292109933,1.6811656073716137,-8.344357951301355,-5.726336268524671
0.42268118528470944,1.5366567516849994,-8.4016213139866,-5.735092997028856
0.43804775280155944,1.3955115496957566,-8.45897224395689,-5.754536933198941
0.452002868298517,1.258474335914571,-8.51651761328888,-5.782515580661723
0.4645876116576627,1.1267436768866315,-8.574342769095496,-5.816526691836378
0.47585504842652904,1.0019417895905476,-8.63250803601386,-5.85372161011578
0.48587446632243453,0.8860304225965526,-8.691045252115018,-5.890984074268761
0.49473477054840004,0.7811625517471045,-8.749955092857705,-5.925095885084161
0.502546396065871,0.6894733576476769,-8.809206051708546,-5.952982896006865
0.5094411296423478,0.6128337607206416,-8.868735880668615,-5.97200963354173
0.5155694672495542,0.5526089774861256,-8.928455977004031,-5.9802668709845905
0.5210955570244155,0.5094738271653586,-8.988258645713877,-5.976785740265806
0.5261902952960691,0.48332851405276184,-9.048026503116535,-5.961623667944127
0.5310235804365967,0.4733336450837503,-9.107642739795976,-5.935800575092758
0.5357569168874342,0.47805086748673997,-9.167000745546904,-5.901105503875931
0.5405374255623016,0.49564953267436374,-9.226011800585663,-5.8598262236500105
0.5454939208890452,0.5241299976381593,-9.284610062822164,-5.8144652978360165
0.5507352208654268,0.5615212862189739,-9.342754715800524,-5.767495402825798
0.5563504337276165,0.6060279937269094,-9.400429669828782,-5.721183793287716
0.5624107136648856,0.6561196455865405,-9.45764150776166,-5.677492264658793
0.568971910120751,0.7105691071410782,-9.514416430408247,-5.638042373267383
0.5760776011921618,0.7684532394934238,-9.570796854140921,-5.60412802897148
0.583762133587096,0.8291300215978041,-9.626838134430637,-5.576757010396695
0.5920534338030741,0.8922041459520155,-9.682605704534604,-5.556706329248762
0.6009754752625942,0.9574897213623647,-9.738172767827091,-5.544581010648783
0.6105503724762179,1.024975483085353,-9.793618577933579,-5.5408701476739655
0.6208001273070715,1.0947953931011205,-9.849027279410318,-5.545997365222359
0.6317480812380827,1.1672058145541857,-9.904487253062541,-5.560365018692167
0.6434201393836245,1.2425694403357024,-9.960090903249462,-5.584392755347392
0.6558458337869816,1.3213456547512965,-10.015934830802935,-5.618551746033848
0.6690592903344945,1.4040868295323952,-10.072120348263274,-5.663396185546323
0.6831001586298184,1.4914400595693866,-10.128754310118737,-5.71959372947775
0.6980145592255123,1.5841539240591964,-10.185950247413514,-5.787956483325802
0.7138560984661042,1.683089929734602,-10.243829812246771,-5.869474020865367
0.7306869977634503,1.789238264838562,-10.302524552455425,-5.965349649785972
0.7485793804118359,1.9037372365660126,-10.362178048953286,-6.077040637750678
0.7676167527774961,2.027895055382498,-10.422948455330793,-6.206302083173708
0.7878957033313211,2.1632110431485136,-10.48501147616253,-6.355232003023757
0.8095278137628062,2.3113900666011253,-10.548563796192768,-6.526310919773107
0.8326417144288175,2.4743374797723137,-10.6138269053905,-6.722420640884904
0.8573850892265407,2.6541091612805685,-10.681051111799349,-6.946809991301467
0.8839261808393464,2.8527669663457798,-10.750519211712364,-7.20294249036047
0.9124538505028041,3.0720448314657007,-10.822548636615968,-7.49409936263984
0.9431742988174612,3.31265141855218,-10.897489630242367,-7.822501598000903
0.976300813002983,3.5729111511078866,-10.975714646222375,-8.187541064507476
1.0120299245140618,3.8463067912213007,-11.05759005686745,-8.582511217476139
1.050492992426275,4.117529079442214,-11.143415169042212,-8.989268375831447
1.091668283220697,4.357502821797212,-11.233307852800527,-9.37141654504225
1.135243311438669,4.520749476173504,-11.327022018250949,-9.67056534794003
1.1804508062004042,4.5531690474181845,-11.423727671730349,-9.816713245003358
1.225982496674586,4.416940923966109,-11.521894804180382,-9.761900193809145
1.2701519059142472,4.118878559009449,-11.619513806118475,-9.518254265727931
1.3113406915043417,3.7094793843793035,-11.714696348775753,-9.155702608301846
1.3484354853481348,3.249957147804275,-11.806253374858771,-8.756565017908425
1.3809350568261776,2.784128155616606,-11.893819025037855,-8.377959676972157
1.4087763383823437,2.333710805918994,-11.977598621807577,-8.046527641855258
1.4321134464415337,1.9056686187836214,-12.058063898226129,-7.769113013649598
1.45117013262937,1.4996920572624481,-12.135755028362624,-7.543115648405734
1.4661670532019946,1.1126641592974378,-12.211186184846682,-7.362478421867981
1.4772936947949689,0.7408031769369654,-12.284810969065362,-7.2204399767248635
1.4847017265643385,0.38055843486710655,-12.35701536883261,-7.110594660009308
1.4885073109130096,0.028930180108110715,-12.428121315432703,-7.027192750412835
1.4887966127140906,-0.31645290958401007,-12.498393242936832,-6.965135643738782
1.4856320836182504,-0.6573481854499941,-12.56804459937422,-6.919867084122917
1.4790586017637504,-0.9949421049468323,-12.63724327021545,-6.887243949347926
1.469109180714282,-1.3298975783141513,-12.706115709708929,-6.863418936854949
1.4558102049311406,-1.6623981487770045,-12.774749899077477,-6.844746214844413
1.4391862234433705,-1.9921886289069874,-12.843197361225922,-6.827712692531756
1.4192643371543008,-2.318614501393604,-12.91147448815124,-6.808894464155623
1.3960781921403647,-2.6406630989318347,-12.979563432792796,-6.78493689890055
1.3696715611510464,-2.9570093344945194,-13.047412801781801,-6.752556379100507
1.3401014678061012,-3.2660680083033853,-13.114938365572806,-6.708561272155278
1.3074407877230674,-3.566053691920473,-13.182023978294358,-6.649889190014788
1.2717802508038627,-3.8550480330892833,-13.248522870194506,-6.573656968678083
1.2332297704729698,-4.131073179378399,-13.314259439881287,-6.47721920694898
1.1919190386791858,-4.392169030449098,-13.379031631950777,-6.3582307865395995
1.1479973483746948,-4.636471331235076,-13.442613939816173,-6.214708680651505
1.101632635062344,-4.862287302376984,-13.504761026622688,-6.0450886077088635
1.053009762038574,-5.068165590854727,-13.565211912699777,-5.848272674583276
1.0023281061300269,-5.252957752365816,-13.62369463944561,-5.623664966036556
0.9497985286063687,-5.415869118395328,-13.679931289105975,-5.371192905576198
0.8956398374224155,-5.556497593993819,-13.733643218161736,-5.091312968509735
0.8400748614824773,-5.674859534372365,-13.784556347846834,-4.784999862248667
0.7833262661387537,-5.771402282201564,-13.832406346469321,-4.453718598259368
0.725612243316738,-5.847003226590305,-13.876943532451914,-4.099379074368642
0.6671422110508349,-5.90295546687391,-13.9179373231956,-3.7242730534808306
