th1 (rad),w1 (rad/s),th2 (rad),w2 (rad/s),a1 (rad/s^2),a2 (rad/s^2)
4.121728474831771,0.37881240607881234,1.6621972126401194,0.1649094283350144,6.266343134726178,-4.8042276449909425
4.12551659889256,0.4414758374260741,1.6638463069234697,0.11686715188510498,6.320800200481506,-4.719874015341392
4.129931357266821,0.5046838394308891,1.6650149784423207,0.06966841173169105,6.380692561987684,-4.622275783348188
4.134978195661129,0.568490765050766,1.6657116625596375,0.02344565389820917,6.446331267246644,-4.511160576275982
4.140663103311637,0.6329540777232324,1.6659461190986196,-0.02166595186455065,6.518088289976863,-4.386227528744838
4.1469926440888685,0.6981349606230011,1.665729459579974,-0.06552822715199903,6.596391548029055,-4.247152232578377
4.153973993695098,0.7640988761032916,1.665074177308454,-0.10799974947778279,6.681718613995955,-4.093593191287268
4.161614982456131,0.8309160622432512,1.6639941798136764,-0.14893568139065547,6.774588770074058,-3.925200353328876
4.169924143078563,0.8986619499439918,1.6625048229997699,-0.18818768492394422,6.875552985727252,-3.741626419744307
4.1789107625780035,0.9674174798012644,1.6606229461505304,-0.2256039491213873,6.985181313912526,-3.542541757439632
4.1885849373760164,1.0372692929403897,1.6583669066593165,-0.2610293666957836,7.1040471106980165,-3.3276538977841166
4.19895763030542,1.1083097640473698,1.6557566129923587,-0.29430590567362475,7.232707386911311,-3.096732757359101
4.210040727945894,1.1806368379164829,1.6528135539356223,-0.32527323324721574,7.371678504377496,-2.849642875920492
4.2218470963250585,1.2543536229602579,1.64956082160315,-0.3537696620064207,7.521406342189727,-2.5863841130124197
4.234390632554661,1.329567686382155,1.646023124983086,-0.37963350313654487,7.682229993827196,-2.3071423591021127
4.247686309418483,1.406389986320427,1.6422267899517204,-0.40270492672756597,7.85433803339264,-2.0123518700745593
4.261750209281687,1.4849333666543534,1.6381997406844448,-0.42282844542831155,8.037716435929289,-1.7027707840002226
4.27659954294823,1.5653105310136464,1.6339714562301617,-0.4398561532683138,8.232087388715588,-1.3795711705908338
4.2922526482583665,1.6476314049008023,1.6295728946974786,-0.4536518649742221,8.436838533315472,-1.0444445251284684
4.308728962307375,1.731999790233957,1.6250363760477364,-0.4640963102255068,8.650942686960315,-0.6997228625146823
4.3260489602097145,1.8185092171035602,1.6203954129454814,-0.47109353885065364,8.872868868383396,-0.3485143933875059
4.3442340523807506,1.907237905787394,1.6156844775569748,-0.4745786827845287,9.100486560509195,0.005148931588115507
4.363306431438624,1.998242771392486,1.6109386907291294,-0.4745271934686475,9.33096663429992,0.35615703485856876
4.3832888591525485,2.0915524377354853,1.6061934187944429,-0.47096562312006185,9.560684263217638,0.6981684936702512
4.404204383529903,2.187159280367662,1.6014837625632423,-0.4639839381833593,9.78513145687919,1.0234701469533076
4.426075976333579,2.2850105949364536,1.5968439231814087,-0.4537492367138262,9.99884943976725,1.3228653573896207
4.448926082282944,2.384999089334126,1.5923064308142705,-0.44052058313993003,10.195393792590526,1.5856111560051083
4.472776073176285,2.4869530272600313,1.5879012249828712,-0.42466447157987897,10.367347720547755,1.7994285920823294
4.497645603448886,2.590626504465509,1.5836545802670725,-0.40667018565905566,10.506400525087308,1.9506136252219044
4.5235518684935405,2.695690509716382,1.579587878410482,-0.38716404940683663,10.603508708341302,2.0242768056256395
4.550508773590704,2.8017255967997947,1.5757162379164136,-0.3669212813505802,10.649155425990207,2.0047376023124963
4.578526029558702,2.908217151059697,1.5720470251029077,-0.34687390532745527,10.633719544682304,1.8760923623678794
4.607608201069299,3.01455434650652,1.5685782860496331,-0.32811298170377645,10.54795785715286,1.6229625749339784
4.637753744534364,3.1200339250780487,1.5652971562325955,-0.31188335595443667,10.3835929359821,1.231412007157034
4.668954083785144,3.22386985443787,1.562178322673051,-0.2995692358828663,10.13398509214212,0.6899979300005635
4.701192782329523,3.325209705359291,1.5591826303142224,-0.2926692565828607,9.79485104976501,-0.009105197506945746
4.7344448793831155,3.423158215856941,1.5562559377483938,-0.29276030855793017,9.364976050092398,-0.8689985300986015
4.768676461541685,3.5168079763578652,1.5533283346628144,-0.3014502938589162,8.846852529997406,-1.887080650810162
4.8038445413052635,3.605276501657839,1.5503138317242253,-0.32032110036701783,8.247169995223079,-3.0543258304151464
4.839897306321842,3.68774820161007,1.5471106207205552,-0.3508643586711693,7.5770799355555285,-4.354947361423404
4.876774788337943,3.7635190009656254,1.5436019771338434,-0.39441383228540333,6.852168909804501,-5.7665578498206775
4.9144099783475985,3.8320406900636703,1.5396578388109894,-0.45207941078361014,6.092093677872332,-7.260901266306043
4.952730385248235,3.8929616268423937,1.5351370447031534,-0.5246884234466705,5.319864438296324,-8.805174740590832
4.991660001516659,3.9461602712253567,1.5298901604686868,-0.6127401708525788,4.56080372950666,-10.36388617364716
5.031121604228913,3.9917683085204234,1.523762758760161,-0.7163790325890504,3.8412546808052834,-11.901116026338668
5.071039287314117,4.030180855328476,1.5165989684342704,-0.8353901928524371,3.187155772626636,-13.38298156597064
5.111341095867402,4.062052413054743,1.508245066505746,-0.9692200085121435,2.622631121797956,-14.780054934052647
5.15196161999795,4.0882787242727225,1.4985528664206247,-1.11702055785267,2.1687569391186434,-16.069476439086266
5.192844407240677,4.109966293663909,1.487382660842098,-1.2777153222435327,1.8426507668462935,-17.236538910547992
5.233944070177316,4.128392801332372,1.4746055076196627,-1.4500807113490126,1.6569906672883419,-18.275595095183117
5.27522799819064,4.144962708005255,1.4601047005061725,-1.6328366623008437,1.6200137192399613,-19.190244291047478
5.316677625270692,4.161162845197654,1.443776333883164,-1.8247391052113184,1.7359793779089838,-19.992865202367057
5.358289253722669,4.178522638976744,1.4255289428310507,-2.024667757234989,2.006027694256308,-20.703656339987198
5.400074480112436,4.198582915919307,1.4052822652587007,-2.231704320634861,2.429326800258675,-21.349405745168312
5.442060309271629,4.222876183921893,1.382965222052352,-2.4451983780865443,3.004394370458398,-21.96223144052131
5.484289071110848,4.252920127626477,1.3585132382714866,-2.6648206924917575,3.73049310152489,-22.578517274947025
5.526818272387113,4.290225058641726,1.331865031346569,-2.890605865241228,4.6090344027428864,-23.238228578548913
5.5697205229735305,4.336315402669155,1.3029589726941566,-3.122988151026717,5.644968780655653,-23.98474434204324
5.613083677000222,4.392765090475711,1.2717290911838894,-3.3628355944471493,6.848187490735485,-24.865301634988633
5.6570113279049785,4.461246965383066,1.238100735239418,-3.6114886107970356,8.235001412801834,-25.932122204970405
5.701623797558809,4.543596979511085,1.2019858491314477,-3.8708098328467395,9.829794462658187,-27.244281061086692
5.74705976735392,4.641894924137667,1.1632777508029803,-4.143252643457607,11.666962413882565,-28.870371288218397
5.793478716595296,4.7585645482764924,1.1218452243684043,-4.431956356339791,13.793224897243432,-30.891987102466665
5.841064362078061,4.896496797248926,1.0775256608050063,-4.740876227364458,16.270289065467196,-33.407912955086665
5.890029330050551,5.0591996879035985,1.0301168985313618,-5.074955356915325,19.177522241002155,-36.53849005158629
5.940621326929587,5.25097491031362,0.9793673449622086,-5.440340257431187,22.613446379615137,-40.4284964686661
5.993131076032723,5.477109374109772,0.9249639423878967,-5.844625222117848,26.692737412892463,-45.24396083829467
6.047902169773821,5.744036748238697,0.8665176901667182,-6.297064830500795,31.530157439221732,-51.15106504222702
6.105342537256209,6.059338322630914,0.8035470418617102,-6.808575480923065,37.190171335255556,-58.2476689522836
6.165935920482518,6.43124003598347,0.7354612870524796,-7.391052170445901,43.55180697199894,-66.37724303418578
6.230248320842352,6.866758105703459,0.6615507653480206,-8.054824600787759,49.978866754559974,-74.67169881346473
6.298915901899387,7.366546773249059,0.581002519340143,-8.801541588922406,54.60686945208919,-80.55857989504285
6.372581369631877,7.912615467769951,0.49298710345091895,-9.607127387872834,53.17419900872577,-78.12815616169941
6.451707524309577,8.444357457857208,0.3969158295721906,-10.388408949489829,38.58459004548865,-57.515924606446994
6.536151098888149,8.830203358312096,0.2930317400772923,-10.963568195554299,5.849045861238327,-11.798347181010746
6.624453132471269,8.888693816924478,0.18339605812174933,-11.081551667364407,-35.49093397061248,45.68387220986041
6.713340070640514,8.533784477218353,0.07258054144810526,-10.624712945265802,-63.157596234220215,83.94125527010536
6.798677915412698,7.9022085148761505,-0.03366658800455276,-9.785300392564748,-68.94166412750488,91.7289860587398
6.877700000561459,7.212791873601102,-0.13151959193020024,-8.868010531977351,-62.451868059883225,82.52696588166354
6.94982791929747,6.588273193002269,-0.22019969724997374,-8.042740873160716,-53.01662482800282,69.28241510362902
7.015710651227493,6.058106944722241,-0.3006271059815809,-7.3499167221244255,-44.389122242739774,57.157091263784515
7.076291720674715,5.614215722294843,-0.37412627320282515,-6.778345809486581,-37.38807511497436,47.25111285804091
7.132433877897664,5.240334971145099,-0.44190973129769096,-6.305834680906171,-31.903283644050894,39.39108050794627
7.184837227609115,4.92130213470459,-0.5049680781067527,-5.911923875826709,-27.636224308732118,33.15144428398868
7.2340502489561604,4.64493989161727,-0.5640873168650198,-5.580409432986822,-24.307876448965295,28.13809697949949
7.280499647872333,4.401861127127617,-0.619891411194888,-5.299028463191827,-21.699209728094377,24.042110415376808
7.32451825914361,4.1848690298466735,-0.6728816958268062,-5.058607359038059,-19.647051584678074,20.633000681324404
7.366366949442077,3.988398513999893,-0.7234677694171868,-4.8522773522248155,-18.031436730234855,17.74096285460966
7.406250934582076,3.8080841466975444,-0.7719905429394349,-4.674867723678719,-16.763858029516562,15.240814094632027
7.444331776049051,3.640445566402379,-0.8187392201762221,-4.522459582732399,-15.778160861972738,13.0399167453681
7.480736231713075,3.4826639577826515,-0.8639638160035461,-4.392060415278718,-15.023834618112163,11.069681869680828
7.515562871290902,3.33242561160153,-0.9078844201563333,-4.28136359658191,-14.461098560496376,9.279791158073161
7.548887127406917,3.187814625996566,-0.9506980561221524,-4.188565685001178,-14.057248235235019,7.634367868480844
7.5807652736668825,3.047242143644216,-0.9925837129721642,-4.11222200631637,-13.783877633458173,6.109503593973416
7.611237695103324,2.909403367309634,-1.033705933035328,-4.051126970376636,-13.6147334215827,4.691686817644353
7.64033172877642,2.773256033093807,-1.0742172027390944,-4.004210102200193,-13.524076089222858,3.376762838278478
7.668064289107359,2.638015272201579,-1.1142593037610964,-3.9704424738174082,-13.48552059847645,2.1690930009862543
7.694444441829375,2.5031600662168145,-1.1539637284992705,-3.948751543807546,-13.471406336049018,1.0805944013891429
7.719476042491543,2.3684460028563246,-1.193451243937346,-3.9379455997936543,-13.452795795655666,0.12935620812145374
7.743160502520106,2.233918044899768,-1.2328306999352825,-3.93665203771244,-13.400208418760709,-0.662422030357021
7.765499682969104,2.0999159607121607,-1.2721972203124068,-3.94327625801601,-13.285141688934319,-1.271308550866198
7.786498842576226,1.9670645438228176,-1.3116299828925668,-3.955989343524672,-13.082303868151865,-1.676269653314273
7.806169488014453,1.836241505141299,-1.3511898763278136,-3.9727520400578147,-12.772291684296643,-1.8627114032679801
7.824531903065866,1.7085185882983325,-1.3909173967283919,-3.9913791540904944,-12.344237776887448,-1.8263052955016361
7.8416170889488495,1.585076210529458,-1.4308311882692968,-4.009642207045511,-11.797808737137862,-1.5757838298594276
7.857467851054144,1.4670981231580793,-1.470927610339752,-4.025400045344105,-11.143947464347365,-1.1339265876501428
7.872138832285725,1.3556586485146056,-1.511181610793193,-4.0367393112206065,-10.403976382934255,-0.5362766632681604
7.885695418770871,1.251618884685263,-1.5515490039053992,-4.042102077853288,-9.607076106128421,0.172326391715212
7.898211607617724,1.1555481236239786,-1.5919700246839321,-4.040378813936136,-8.786596523342244,0.942722300581403
7.909767088853964,1.0676821583905562,-1.6323738128232934,-4.0309515909303215,-7.975970623087235,1.7268428185164968
7.92044391043787,0.9879224521596839,-1.6726833287325966,-4.013683162745156,-7.2050610694314745,2.482444019007132
7.930323134959466,0.9158718414653692,-1.7128201603600481,-3.988858722555085,-6.497568223349271,3.1763423229029444
7.93948185337412,0.8508961592318764,-1.752708747585599,-3.9570952993260557,-5.8697725842503425,3.7858333374278903
7.947990814966438,0.792198433389373,-1.7922797005788595,-3.919236965951777,-5.330526937145286,4.298452421097188
7.955912799300332,0.7388931640179202,-1.8314720702383773,-3.876252441740805,-4.8821712665879025,4.710547509294903
7.963301730940511,0.6900714513520412,-1.8702345946557855,-3.8291469666478557,-4.521957018687308,5.025232363400373
7.9702024454540314,0.6448518811651681,-1.908526064322264,-3.778894643013852,-4.24360842650869,5.250217171861038
7.9766509642656835,0.6024157969000812,-1.9463150107524023,-3.7263924712952416,-4.038757732819729,5.395857150447721
7.982675122234684,0.5620282195718839,-1.9835789354653548,-3.6724338997907644,-3.898112288547015,5.473593786369868
7.988295404430403,0.5230470966864137,-2.0203032744632625,-3.6176979619270657,-3.812310107777395,5.49483220604473
7.993525875397267,0.48492399560863975,-2.0564802540825333,-3.5627496398666185,-3.772484323301598,5.470215891189537
7.998375115353353,0.44719915237562374,-2.0921077504811993,-3.508047480954723,-3.7705887813474503,5.40922123291255
8.002847106877109,0.40949326456214924,-2.1271882252907464,-3.4539552686255974,-3.799545797535249,5.3199860111995365
8.00694203952273,0.37149780658679676,-2.1617277779770023,-3.4007554085136023,-3.8532724816628092,5.209294534245623
8.0106570175886,0.33296508177016865,-2.1957353320621382,-3.348662463171146,-3.9266314758707943,5.082657888623225
8.0139866684063,0.2936987670114607,-2.22922195669385,-3.297835884284914,-4.015340154561733,4.94444440302266
8.016923656076415,0.2535453654658434,-2.262200315536699,-3.248391440254687,-4.115861756429382,4.798029954881278
8.019459109731073,0.21238674790154957,-2.294684229939246,-3.2004111407058744,-4.225293495928278,4.64594908946476
8.02158297721009,0.1701338129422668,-2.326688341346305,-3.1539516498112268,-4.341260516622703,4.490036105276894
8.023284315339511,0.12672120777603976,-2.358227857844417,-3.109051288758458,-4.46182029174329,4.331550795664358
8.024551527417271,0.08210300485860686,-2.389318370732002,-3.0657357808018144,-4.5853793166927606,4.171287055090316
8.025372557465857,0.03624921169167925,-2.41997572854002,-3.024022910250911,-4.710622259842841,4.009664641767928
8.025735049582774,-0.010857010906749162,-2.450215957642529,-2.983926263833232,-4.836452799598524,3.8468055053112673
8.025626479473708,-0.0592215389027344,-2.4800552202808612,-2.9454582087801193,-4.961944918584115,3.682596587260671
8.025034264084681,-0.10884098808857556,-2.5095098023686626,-2.9086322429075127,-5.0863032657333775,3.516741127957386
8.023945854203795,-0.15970402074590934,-2.5385961247977376,-2.8734648316279388,-5.208831209068922,3.3488004284834476
8.022348813996336,-0.21179233283659857,-2.567330773114017,-2.8399768273431043,-5.328905304776048,3.178227825701104
8.02023089066797,-0.26508138588435903,-2.595730541387448,-2.8081945490860933,-5.445955051213434,3.0043964057201475
8.017580076809125,-0.3195409363964934,-2.623812486878309,-2.7781505850288917,-5.559446949807538,2.8266217433944942
8.01438466744516,-0.3751354058945688,-2.6515939927285976,-2.7498843675949467,-5.668872041820118,2.6441807325245343
8.010633313386215,-0.43182412631276995,-2.679092836404547,-2.723442560269701,-5.773736222653623,2.456327372570587
8.006315072123087,-0.4895614885393062,-2.7063272620072443,-2.6988792865439954,-5.873552750641809,2.262306205902376
8.001419457237693,-0.5482970160457243,-2.733316054872684,-2.6762562244849715,-5.967836465051937,2.0613639545093414
7.995936487077236,-0.6079753806962437,-2.7600786171175336,-2.655642584939878,-6.056099309733671,1.8527597845307628
7.9898567332702735,-0.6685363737935804,-2.786635042966932,-2.6371149870945705,-6.137846826632766,1.6357745280559244
7.983171369532338,-0.7299148420599081,-2.813006192837878,-2.6207572418140113,-6.212575339603557,1.409719111355685
7.9758722211117385,-0.7920405954559436,-2.839213765256018,-2.6066600507004543,-6.279769595903263,1.173942374126894
7.967951815157179,-0.8548382914149762,-2.865280365763023,-2.594920626959185,-6.338900672526145,0.927838412805338
7.95940343224303,-0.9182272981402377,-2.8912295720326147,-2.5856422428311316,-6.38942398896256,0.6708535401669126
7.950221159261628,-0.9821215380298634,-2.9170859944609258,-2.5789337074294627,-6.4307772985837754,0.4024929211980575
7.940399943881329,-1.046429311015701,-2.9428753315352205,-2.574908778217482,-6.462378558915228,0.12232691972568975
7.929935650771172,-1.1110530966048533,-2.968624419317395,-2.5736855090202253,-6.483623607564333,-0.17000283010333406
7.918825119805123,-1.1758893326804967,-2.9943612744075976,-2.575385537321259,-6.493883596273674,-0.47477763020681324
7.907066226478318,-1.2408281686432334,-3.02011512978081,-2.580133313623327,-6.492502161025327,-0.7921962201044612
7.894657944791886,-1.3057531902534867,-3.0459164629170434,-2.5880552758243716,-6.478792331689127,-1.1223696045000189
7.881600412889351,-1.370541113570378,-3.071797015675287,-2.5992789718693716,-6.452033210581407,-1.46531625158934
7.867895001753647,-1.435061445676192,-3.0977898053939805,-2.613932134385265,-6.411466475522688,-1.8209577218065383
7.853544387296885,-1.499176110431419,-3.123929126737833,-2.6321417116033303,-6.356292789450974,-2.18911480393743
7.838552626192571,-1.5627390383259288,-3.150250543853866,-2.6540328596427045,-6.285668225117167,-2.569504255747219
7.822925235809311,-1.6255957205771003,-3.1767908724502933,-2.6797279022001765,-6.198700839470562,-2.961736270146655
7.8066692786035405,-1.687582728971806,-3.203588151472295,-2.709345264901643,-6.094447557487315,-3.3653128159269774
7.789793451313822,-1.748527204546679,-3.2306816041213113,-2.7429983930609128,-5.971911548682332,-3.7796270344747733
7.7723081792683555,-1.8082463200335024,-3.2581115880519205,-2.7807946634056604,-5.830040300459206,-4.203963910608339
7.754225716068021,-1.8665467230380945,-3.285919534685977,-2.822834302511744,-5.667724609662158,-4.637502476422346
7.73556024883764,-1.9232239691347162,-3.3141478777110946,-2.8692093272759673,-5.483798725830061,-5.079319851094563
7.7163280091462925,-1.9780619563930169,-3.3428399709838543,-2.920002525786913,-5.277041885097338,-5.528397465904397
7.696547389582363,-2.0308323752439903,-3.3720399962417233,-2.9752865004459568,-5.046181470571449,-5.983629870712144
7.676239065829923,-2.0812941899497046,-3.4017928612461827,-3.0351227991530783,-4.789898021242256,-6.443836563865458
7.655426123930425,-2.129193170162127,-3.4321440892377133,-3.0995611647917327,-4.50683228476545,-6.9077773294901
7.634134192228804,-2.1742614930097814,-3.463139700885631,-3.1686389380866338,-4.195594467442558,-7.374171601499936
7.612391577298706,-2.216217437684207,-3.494826090266497,-3.242380654101633,-3.8547757750826137,-7.841722399151225
7.590229402921865,-2.254765195435033,-3.5272498968075134,-3.3207978780931455,-3.482962259138424,-8.30914539099561
7.567681750967514,-2.2895948180264174,-3.560457875588445,-3.403889332003102,-3.078750882101977,-8.775203638905998
7.54478580278725,-2.320382326847437,-3.594496768908476,-3.4916413683921617,-2.640767594140213,-9.238748547683072
7.521581979518776,-2.3467900027888393,-3.6294131825923976,-3.5840288538689924,-2.167687070396775,-9.69876749494313
