th1 (rad),w1 (rad/s),th2 (rad),w2 (rad/s)
1.1472710426321346,-0.9017781477566653,4.629318367874302,-3.1114968056180015
1.138253261154568,-1.0064963322474427,4.598203399818122,-3.1098270002278348
1.1281882978320934,-1.1091754225247707,4.567105129815844,-3.1068138652287347
1.1170965436068456,-1.2097729549409246,4.536036991163557,-3.1024257731816944
1.1049988140574363,-1.3082666507623704,4.50501273343174,-3.0966682032861543
1.0919161475498125,-1.404652170312543,4.4740460513988785,-3.0895789322427807
1.077869625846687,-1.4989402890913575,4.4431502620764505,-3.0812226342213136
1.0628802229557734,-1.5911536790339347,4.412338035734237,-3.0716851356301436
1.0469686861654341,-1.6813234730683628,4.381621184377935,-3.0610675570820916
1.0301554514347506,-1.7694857755534643,4.351010508807114,-3.0494805485781398
1.012460593679216,-1.8556782581637254,4.320515703321333,-3.0370387890657238
0.9939038110975786,-1.939936953598974,4.290145315430676,-3.0238558826746442
0.9745044415615889,-2.022293331108184,4.25990675660393,-3.010039745024771
0.9542815082505071,-2.1027717106570716,4.229806359153682,-2.995688537092369
0.9332537911439364,-2.1813870483848303,4.199849473782758,-2.9808871732788904
0.911439920660088,-2.2581431058419428,4.170040602049969,-2.9657044056519193
0.8888584896016686,-2.3330309998174656,4.14038355799345,-2.950190468108577
0.8655281796034939,-2.406028118297908,4.110881653312364,-2.934375252108626
0.8414678984205148,-2.4770973808496173,4.081537900791278,-2.9182669788804243
0.8166969246120187,-2.546186817869497,4.0523552310024735,-2.9018513306291513
0.7912350564333237,-2.6132294419962037,4.023336717696182,-2.8850910042057953
0.7651027620133617,-2.678143385799628,3.994485807654124,-2.8679256538917315
0.7383213281553654,-2.740832282007252,3.965806551115207,-2.85027219448563
0.7109130053352929,-2.801185865406879,3.9373038291703506,-2.8320254409570307
0.6829011466812241,-2.8590807787151262,3.9089835747607804,-2.8130590659192443
0.6543103388940729,-2.9143815677539946,3.8808529841015877,-2.793226860588892
0.6251665232165329,-2.9669418539655226,3.852920715495699,-2.772364288391901
0.5954971046768777,-3.016605674433283,3.82519707261178,-2.7502903227141964
0.5653310479325449,-3.063208981055535,3.7976941693846378,-2.726809561343467
0.5346989581219895,-3.106581291269247,3.770426073771203,-2.701714609846605
0.503633145209297,-3.1465474827391486,3.743408927672737,-2.674788724475726
0.47216767038190555,-3.1829297237129484,3.71666104042798,-2.645808702240553
0.4403383731447761,-3.2155495293342726,3.6902029534055742,-2.61454800160911
0.40818287785143337,-3.244229932142941,3.6640574733894833,-2.5807800720147966
0.375740578530004,-3.2687977523308134,3.6382496726693354,-2.544281864095338
0.3430526010066958,-3.289085950120451,3.612806854028382,-2.50483748553379
0.3101617415054913,-3.3049360389613778,3.5877584791730444,-2.4622419597091967
0.27711238111587755,-3.316200534175008,3.5631360595759523,-2.4163050363248995
0.24395037577412748,-3.3227454073229956,3.5389730092127034,-2.3668549950378854
0.21072292170089751,-3.3244525120502675,3.5153044592623246,-2.313742375184656
0.17747839658039483,-3.321221942624473,3.492167035510478,-2.256843557365734
0.14426617715415008,-3.3129742820638923,3.4695985999368206,-2.196064116350184
0.11113643433351116,-3.299652692872714,3.447637958773319,-2.1313418599895195
0.07813990740478402,-3.2812248002956856,3.4263245401734235,-2.062649466130943
0.04532765940182716,-3.257684316020837,3.405698045512114,-1.9899966294630684
0.012750816241618793,-3.2290523497902295,3.3857980792174835,-1.9134316333744454
-0.019539707256283505,-3.195378357824156,3.3666637628837393,-1.833042268760589
-0.05149349083452506,-3.15674068069627,3.3483333401961333,-1.7489560326649418
-0.08306089764148777,-3.113246629615487,3.330843779869484,-1.6613395548822332
-0.11419336393764265,-3.065032089150547,3.3142303843206617,-1.5703972201305767
-0.1448436848291481,-3.0122606162741246,3.298526412119356,-1.476368976733946
-0.17496629099188937,-2.955122029984004,3.2837627223520163,-1.3795273492117
-0.2045175112917294,-2.8938305022088135,3.2699674488598993,-1.2801737006395908
-0.23345581631381754,-2.828622178502009,3.2571657118535033,-1.178633819683567
-0.2617420380988376,-2.7597523752210447,3.2453793736566676,-1.0752529351135738
-0.28933956185104803,-2.687492417363886,3.2346268443055317,-0.9703902855487144
-0.3162144860246869,-2.612126196801846,3.2249229414500444,-0.8644133923685201
-0.34233574799270533,-2.5339465431533457,3.216278807526359,-0.7576921975619257
-0.3676752134242388,-2.453251507993971,3.20870188555074,-0.6505932345807938
-0.3922077285041785,-2.3703406667732567,3.202195953204932,-0.5434739983616829
-0.4159111351719111,-2.285511541348467,3.1967612132213152,-0.43667767055363643
-0.43876625058539576,-2.199056239501327,3.192394436515779,-0.33052833827282996
-0.46075681298040905,-2.1112583966380267,3.1890891531330503,-0.22532682063199583
-0.4818693969467893,-2.0223904899128264,3.1868358849267304,-0.12134718857824583
-0.5020933018459176,-1.932711577362413,3.185622413040948,-0.018834032234101156
-0.5214204176195417,-1.842465495549053,3.185434072718607,0.08199950191313671
-0.5398450725750322,-1.7518795299692103,3.1862540677377384,0.18097291198353224
-0.5573638678747244,-1.6611635542783822,3.188063796857574,0.2779388149882244
-0.5739755034175081,-1.5705096182037979,3.190843185007456,0.3727827521947308
-0.5896805995995461,-1.4800919505919028,3.1945710125294036,0.4654224006230657
-0.6044815191054651,-1.3900673338003664,3.1992252365356344,0.5558062773340913
-0.6183821924434688,-1.3005757987382232,3.2047832993089753,0.6439120292418684
-0.631387950430851,-1.2117415861702945,3.211222419601394,0.7297444022045958
-0.643505366292554,-1.1236743191182383,3.21851986362344,0.8133329798830493
-0.6547421094837363,-1.0364703328560327,3.2266531934222704,0.8947297762145333
-0.6651068128122967,-0.950214112582156,3.2356004911844156,0.9740067562988985
-0.6746089539381183,-0.8649797938050829,3.2453405587474045,1.0512533499616628
-0.6832587518761691,-0.7808326862809137,3.2558530922470212,1.126574011080839
-0.6910670787389783,-0.6978307885294883,3.2671188323578297,1.2000858646348493
-0.6980453866242732,-0.6160262661447257,3.2791196910041784,1.2719164728898622
-0.7042056492857204,-0.535466873009506,3.291838855733077,1.3422017425814163
-0.7095603180158154,-0.45619729991398306,3.305260873158891,1.4110839865994709
-0.7141222910149553,-0.37826043982528645,3.3193717130248857,1.4787101466775288
-0.7179048954132081,-0.3016985630987291,3.3341588144916607,1.5452301779363713
-0.7209218810441954,-0.2265543992412321,3.3496111162710243,1.6107955917889534
-0.7231874250366077,-0.15287212446159623,3.365719072188914,1.675558150572662
-0.7247161462812237,-0.08069825622173626,3.3824746536946404,1.7396687052056812
-0.7255231288434411,-0.010082457407342454,3.399871340746697,1.8032761660187924
-0.7256239534175145,0.058921746356281224,3.4179041024068852,1.86652659654383
-0.7250347359539517,0.12625633222656718,3.4365693683723237,1.9295624203031798
-0.723772172631686,0.1918582243341425,3.4558649925753557,1.9925217314112766
-0.7218535903883446,0.25565881258075235,3.4757902098894684,2.0555377009542575
-0.7192970022625371,0.31758354228756025,3.496345586899011,2.1187380725590663
-0.7161211668396615,0.37755157137185974,3.5175329676246014,2.182244742215442
-0.712345651125943,0.43547549224032867,3.5393554150467557,2.2461734192048244
-0.7079908962035396,0.4912611161206837,3.561817149238804,2.3106333668634416
-0.7030782850423327,0.5448073180639011,3.5849234829074383,2.375727223817433
-0.6976302118616937,0.59600594129234,3.608680755145613,2.4415509082392437
-0.6916701524487703,0.644741759903741,3.6330962642280054,2.5081936095568587
-0.6852227348497328,0.6908924991273886,3.658178200323574,2.575737873876179
-0.6783138098584589,0.7343289123279194,3.683935579062336,2.6442597911315646
-0.6709705207351797,0.7749149137263385,3.7103781769736512,2.713829293643219
-0.6632213715979163,0.8125077653196016,3.7375164699100836,2.784510577318919
-0.6550962939447202,0.8469583156938225,3.7653615756832726,2.8563626581812884
-0.646626710787782,0.8781112873080975,3.7939252022650853,2.9294400782245313
-0.6378455979147011,0.9058056073458922,3.8232196030473307,3.003793775806096
-0.6287875418412422,0.9298747753638028,3.8532575408053917,3.07947213686658
-0.6194887940876042,0.9501472586953835,3.8840522621740576,3.1565222442623435
-0.6099873215006503,0.966446903882516,3.915617484616681,3.23499134341891
-0.6003228524618252,0.9785933493131945,3.9479673980508703,3.3149285434123565
-0.5905369189686932,0.9864024207639174,3.981116683484994,3.3963867735192603
-0.580672894761054,0.9896864877196757,4.015080551220187,3.479425016317379
-0.5707760298838572,0.9882547542449294,4.0498748013833605,3.5641108396560166
-0.5608934823414079,0.9819134539113885,4.085515909779921,3.6505232513395307
-0.551074347802294,0.9704659140088671,4.122021142293316,3.738755902263748
-0.5413696886622054,0.9537124501999814,4.159408701315954,3.8289206660631327
-0.5318325641602055,0.9314500492569929,4.197697907976585,3.9211516260386423
-0.5225180636676356,0.9034717950247477,4.236909424236972,4.015609503064501
-0.5134833457173882,0.8695659920153893,4.277065519267617,4.112486560870932
-0.5047876857972343,0.8295149431703657,4.318190384876326,4.212012026664582
-0.49649253636553065,0.7830933450494062,4.360310505142972,4.3144580638062004
-0.4886616029150366,0.7300662777388592,4.403455085781034,4.420146326274705
-0.48136094013764796,0.6701867924227553,4.447656549043781,4.529455106885065
-0.4746590722134204,0.6031931437200921,4.492951100112632,4.642827054266308
-0.4686271407762195,0.5288057876322004,4.539379370655295,4.760777363453658
-0.46333908289989745,0.44672438710570594,4.586987144289831,4.883902218526178
-0.4588718390288404,0.35662526459130217,4.635826166475093,5.012887045123794
-0.45530558638292734,0.2581600610096705,4.685955036926331,5.148513753885174
-0.45272398577283063,0.15095687791228907,4.737440174465183,5.291665521876115
-0.45121441699370773,0.0346260136042343,4.790356829683944,5.443326604800845
-0.4508681568576654,-0.09122625763341345,4.844790095731952,5.60457293834211
-0.45178041943399955,-0.22697028314533124,4.900835825115373,5.7765464685152885
-0.4540501222654529,-0.3729030812777093,4.9586012898005265,5.960401648604101
-0.45777915307823,-0.5291617988388366,5.018205306286568,6.157205538842788
-0.4630707710666183,-0.6955790552776012,5.079777361674996,6.367762546180299
-0.4700265616193943,-0.8714486695755629,5.143454987136798,6.592320667721847
-0.47874104831514996,-1.0551594365742665,5.2093781938140165,6.83010012501452
-0.4892926426808926,-1.2436497366390444,5.277679195064161,7.078576360312776
-0.5017291400472831,-1.431655455605239,5.348464958667289,7.332472524701846
-0.5160456946033355,-1.6108078711165261,5.421789683914308,7.5825262740710455
-0.5321537733145008,-1.7688483676328004,5.497614946655018,7.8143770668784205
-0.5498422569908288,-1.8895952178708635,5.575758717323803,8.008420205158176
-0.5687382091695374,-1.9546542912221325,5.6558429193753845,8.141964792698468
-0.5882847520817588,-1.9476070193974142,5.737262567302369,8.194692947084906
-0.6077608222757329,-1.859790105408309,5.819209496773218,8.156230712015033
-0.626358723329816,-1.6944387910714502,5.9007718038933685,8.0314852552758
-0.6433031112405305,-1.465837458605228,5.981086656446126,7.839287251629355
-0.6579614858265828,-1.1937909503280308,6.05947952896242,7.604891032535476
-0.6698993953298631,-0.8973628461015337,6.135528439287775,7.351721078740202
-0.6788730237908784,-0.5912457024311317,6.2090456500751765,7.0968095242248515
-0.6847854808151898,-0.2851186648216382,6.280013745317425,6.850244546868681
-0.6876366674634061,0.015378758415365623,6.348516190786111,6.61668983427352
-0.6874828798792525,0.30731811108263074,6.414683089128847,6.39727304310123
-0.6844096987684262,0.5893844433685966,6.478655819559859,6.1910917445523665
-0.6785158543347402,0.8611305507490998,6.540566737005382,5.996211877199145
-0.6699045488272491,1.1225219261460708,6.600528855777374,5.810265404282587
-0.6586793295657885,1.3736794311915985,6.6586315098202,5.630784898817423
-0.6449425352538725,1.6147446308187594,6.714939358808374,5.4553811236871095
-0.6287950889456849,1.845817542918724,6.769493170045245,5.281832305617172
-0.6103369135164977,2.0669358474872697,6.822311493101417,5.108125933259013
-0.5896675550416249,2.2780772258632362,6.873392752434007,4.932476069648198
-0.5668867827829925,2.479174140446897,6.922717513130489,4.7533285360954
-0.5420950413785236,2.670134802153509,6.970250798491443,4.569360231528296
-0.5153936933569885,2.8508665940363853,7.015944400806726,4.3794754566029805
-0.48688502741662465,3.0212996418661024,7.059739155372756,4.182800280737002
-0.4566720309979636,3.1814090349381416,7.101567158180126,3.9786750586990474
-0.4248579406485822,3.3312346864750553,7.141353908767116,3.7666447915028995
-0.39154559378383164,3.4708981428749657,7.1790203566821456,3.5464469167673958
-0.35683661235508196,3.6006158920133347,7.214484825849819,3.3179961796875093
-0.3208304534349486,3.720708926992339,7.247664787646694,3.081366400275463
-0.2836233641650252,3.8316085117015697,7.278478451649448,2.8367691659035152
-0.2453072790480095,3.9338582716556627,7.3068461433084835,2.584529706522093
-0.20596869633145287,4.028112892292555,7.332691440373704,2.3250604296816886
-0.16568756740852733,4.1151338367502,7.355942044670521,2.0588327884899846
-0.12453622904102532,4.1957825828525745,7.376530372555421,1.7863483212234188
-0.08257840321249957,4.271011909580676,7.394393855767655,1.5081098397297348
-0.039868284116692805,4.341855719426644,7.409474954164953,1.2245938705920731
0.0035502730775736416,4.409417743295544,7.421720892870874,0.9362255997796858
0.04764445051052908,4.474859209408116,7.43108314886867,0.6433577908276297
0.09239304260461025,4.539385122461088,7.437516726776947,0.346255520020684
0.13778689382922113,4.604228124589616,7.440979281977153,0.04508922158096146
0.18382917507511728,4.67062788686057,7.441430174192963,-0.2600603599573663
0.230535453943723,4.73980244453595,7.438829570593389,-0.5691798992830915
0.2779334783890825,4.812905606634873,7.433137771600558,-0.8822756210700866
0.3260625344554312,4.890961243753043,7.424315015389857,-1.1992872029096666
0.37497214689296166,4.974760610204164,7.412322143360761,-1.519944615042946
0.4247197529950033,5.064702908120276,7.397122697210332,-1.8435410592003085
0.4753667820762061,5.160553116126551,7.378687286618328,-2.168586927262764
0.5269723132374716,5.2610884868912375,7.357001417345701,-2.4923066599829946
0.579583198106384,5.363615842714972,7.332078350745871,-2.8099564081997648
0.6332193565335338,5.463386050173666,7.3039787866638735,-3.1140039470213847
0.6878532170352705,5.553041155972,7.27283874719366,-3.393367287592843
0.7433836285949905,5.622426037036159,7.2389050743177314,-3.6331856590264002
0.7996078889653521,5.659321713857125,7.202573217727467,-3.815911927107061
0.8562011061039233,5.651654053414918,7.164414098456397,-3.9245031939538975
0.9127176466380725,5.591072212619523,7.125169066516857,-3.947542712578116
0.9686283687642677,5.476446386327302,7.085693639391076,-3.8842151198885713
1.0233928326275408,5.314979770088311,7.04685148819219,-3.745850225640158
1.0765426303284238,5.1198412007464436,7.009392985935788,-3.552482747513339
1.1277410423358882,4.905817115066275,6.973868158460655,-3.326569268105864
1.176799213486551,4.685621800556655,6.940602465779596,-3.0876343667830826
1.2236554314921175,4.468255810312333,6.909726122111765,-2.84984604313245
1.268337989595241,4.259093242698357,6.881227661680441,-2.6220819003712568
1.3109289220222244,4.060753052521605,6.855006842676729,-2.409143384552272
1.3515364525474405,3.874055803526035,6.830915408831206,-2.213115744905698
1.390277010582701,3.6987748868021564,6.808784251382149,-2.034449176143262
1.4272647594507224,3.5341404660040125,6.788439759620716,-1.8726936304472794
1.4626061641107626,3.379146920572739,6.769712823316243,-1.7269547133790297
1.49639763331649,3.232727566529207,6.752443276182452,-1.596159108180871
1.528724908981782,3.0938471606472397,6.736481685100644,-1.4792005926079643
1.5596633805882545,2.961546195248098,6.721689679174564,-1.3750149969690606
1.5892788425407354,2.8349581158646515,6.707939529204873,-1.2826144516331335
1.6176284236993819,2.7133119974313167,6.6951133846885424,-1.2010991323093974
1.644761543673695,2.5959278854844623,6.6831023933654485,-1.1296571171959768
1.6707208225285397,2.4822088370533857,6.671805822193488,-1.067558406303781
1.6955429108990736,2.3716318547976654,6.6611302381304505,-1.0141464739994954
1.7192592294470503,2.26373885847962,6.650988773390456,-0.9688291769965144
1.7418966180318465,2.158128249695685,6.64130048162049,-0.9310699560393266
1.7634779005288033,2.05444730286917,6.6319897820600975,-0.9003797720636163
1.784022373557495,1.9523854434976602,6.622985984339461,-0.8763099431391833
1.8035462279924714,1.8516683875490039,6.614222884908069,-0.8584459017921156
1.8220629118679614,1.752053075860591,6.605638425890148,-0.8464018181817
1.8395834426265674,1.6533233228395976,6.597174407708331,-0.8398160012118533
1.8561166758549634,1.5552860974750837,6.588776247696212,-0.8383469786469289
1.8716695368297143,1.4577683598208457,6.580392777909743,-0.8416701581762412
1.8862472204279228,1.3606143839322995,6.571976076327981,-0.8494749781684786
1.8998533642672457,1.2636835067355932,6.563481326546296,-0.8614624662397782
1.9124901993346017,1.1668482504566984,6.554866701883898,-0.8773431339051503
1.9241586818391687,1.0699927735775232,6.546093270544847,-0.896835145537907
1.934858609574944,0.9730116116495484,6.537124919089468,-0.9196627091643979
1.9445887256914396,0.8758086746731897,6.527928291997824,-0.9455546450853611
1.9533468124381714,0.7782964722078819,6.518472745546971,-0.974243095903475
1.9611297771602503,0.6803955410086052,6.508730314587936,-1.005462348289059
1.9679337325703363,0.582034052890274,6.498675691105046,-1.0389477428080989
1.9737540730992391,0.4831475827974806,6.488286213676965,-1.0744346534575486
1.978585548927214,0.3836790187881693,6.477541867142389,-1.1116575232913857
1.9824223391150957,0.283578596898495,6.466425291909475,-1.150348946760197
1.9852581250840806,0.18280404470357192,6.4549218024418735,-1.1902387932007812
1.9870861655311163,0.0813208178764402,6.443019414509866,-1.2310533693630534
1.9878993737098807,-0.02089758578093906,6.430708880816235,-1.2725146220007244
1.9876903978520712,-0.12386925046744426,6.417983734596228,-1.3143393844194826
1.986451705347397,-0.22760342065629582,6.404840340752033,-1.3562386735001133
1.984175671140834,-0.33210005005644305,6.391277954017032,-1.3979170461113257
1.9808546706402697,-0.437349338545684,6.3772987835559185,-1.4390720260043552
1.9764811772548128,-0.5433312752441944,6.362908063295875,-1.479393614234328
1.9710478645023708,-0.6500152068916083,6.348114127153532,-1.5185638978671787
1.9645477124334547,-0.7573594517565634,6.33292848817486,-1.5562567731805146
1.956974117915889,-0.8653109804029115,6.317365920443056,-1.5921378007168079
1.9483210081118598,-0.9738051857158359,6.301444542435887,-1.6258642103516887
1.9385829562547015,-1.0827657656037852,6.285185900332371,-1.6570850749418353
1.9277552985986637,-1.192104742683412,6.2686150495829525,-1.6854416710470534
1.9158342511718296,-1.301722645964152,6.2517606328724815,-1.7105680445975437
1.902817024712188,-1.4115088800101707,6.2346549524265065,-1.7320917981034958
1.8887019359120862,-1.5213423071967087,6.2173340344454715,-1.7496351139673636
1.873488512840119,-1.6310920684144552,6.199837683305798,-1.7628160255295273
1.8571775921559746,-1.7406186668206831,6.182209523050503,-1.7712499435078468
1.8397714054877676,-1.8497753378934962,6.164497023615424,-1.774551440316797
1.8212736521088326,-1.9584097270145813,6.146751509212256,-1.772336288195887
1.8016895548386869,-2.066365892984841,6.129028146330297,-1.7642237389588111
1.7810258959088385,-2.17348665217244,6.111385908940709,-1.7498390233215335
1.7592910293871142,-2.279616273330874,6.0938875187074935,-1.7288160360339428
1.7364948666538056,-2.3846035274710338,6.076599358347154,-1.7008001593333266
