th1 (rad),w1 (rad/s),th2 (rad),w2 (rad/s)
4.454139744672823,2.810822250247409,5.093433720440288,-2.5374345803453084
4.482247967175296,2.952962920021692,5.068059374636835,-2.607671799961639
4.511777596375513,3.1000525964357153,5.041982656637219,-2.686580500789443
4.54277812233987,3.2517583788749285,5.015116851629325,-2.7733329528176105
4.575295706128619,3.4072851287493555,4.987383522101149,-2.866395175621537
4.609368557416113,3.56520505030253,4.958719570344934,-2.963276382767535
4.645020607919139,3.7232803066858655,4.929086806517259,-3.060268535020188
4.6822534109859975,3.8783271033980933,4.898484121167058,-3.152245686209353
4.721036682019978,4.026204706968173,4.866961664304964,-3.232643038762074
4.76129872908966,4.162038552325511,4.834635233917343,-3.2937726833054275
4.802919114612915,4.2807669284263845,4.801697507084288,-3.3276056585552056
4.845726783897179,4.377995663380902,4.768421450498736,-3.3270010267935124
4.889506740530988,4.450960363031725,4.735151440230801,-3.287099373674476
4.934016344161305,4.499235240540458,4.702280446494057,-3.2063675724983796
4.97900869656671,4.524853773410991,4.670216770769073,-3.086814472928547
5.02425723430082,4.531770367684748,4.639348626039788,-2.933268030123946
5.069574937977667,4.524919151205331,4.610015945738549,-2.7520684227576937
5.114824129489721,4.509266744557375,4.582495261510972,-2.549736082243883
5.159916796935295,4.489146399790901,4.556997900688533,-2.332024577774691
5.204808260933204,4.467948130617186,4.533677654910786,-2.1034704870900893
5.249487742239376,4.448086450822788,4.5126429500398855,-1.8673356843080837
5.293968606747604,4.431121920504422,4.4939695931968044,-1.625771031845953
5.338279825952648,4.4179360308280415,4.477711882878345,-1.3800610940644442
5.382459186260928,4.408900857641756,4.4639112719377,-1.1308671148400158
5.426548194837346,4.404018672127974,4.4526026007893,-0.8784324191198065
5.470588381558626,4.403026477989454,4.443818276598102,-0.6227420893852587
5.51461864633852,4.405469436792465,4.43759085570425,-0.36364145808236026
5.558673340706445,4.410749930798853,4.433954441123427,-0.10092194733581922
5.602780840014433,4.418158922666075,4.432945221650068,0.16561730676164144
5.646962429241094,4.426895164680091,4.434601394717685,0.4361251842506386
5.691231380887895,4.436076552977956,4.438962646560191,0.710666636973017
5.735592146417674,4.444746839996383,4.446069312929922,0.9891996536100055
5.780039614817638,4.451880084352243,4.455961309466022,1.2715589862786345
5.82455841566116,4.456384604777859,4.468676899328808,1.5574454293569817
5.869122261708939,4.457107757666642,4.484251353622378,1.8464201047902518
5.913693339285605,4.452842520073405,4.502715554670281,2.1379036528633764
5.958221764486339,4.442336585102304,4.5240945911989146,2.4311804981120977
6.0026451303373625,4.424304429591463,4.548406396180035,2.725408489327327
6.046888174633277,4.397442570970174,4.575660481073308,3.019634224093563
6.090862600342978,4.360447977005647,4.605856823314244,3.312814280516181
6.134467080113035,4.312039323373491,4.638984966119406,3.603842408705147
6.17758747334677,4.250980511726869,4.675023390206457,3.891582500283805
6.2200972784640385,4.176105574133679,4.713939215209295,4.174906876637492
6.2618583342053755,4.086343813221881,4.75568828397567,4.452739140523267
6.302721772337594,3.980743780759989,4.800215675380903,4.724100549627159
6.3425292101451936,3.8584945037153524,4.847456680877174,4.988158626541689
6.381114155182347,3.7189422504595213,4.897338267142591,5.244276551115231
6.418303577686943,3.561601113803684,4.9497810326537435,5.492061821166334
6.45391958882498,3.3861557904792527,5.004701650865407,5.731412744596208
6.487781146729772,3.192455169266425,5.062015778311369,5.962561558497521
6.519705698422436,2.980495703096034,5.121641393896344,6.186113360522306
6.549510655453397,2.7503940262573785,5.183502527501568,6.4030805602166305
6.577014595715971,2.5023488770502342,5.247533333103734,6.614913151167753
6.602038084486473,2.2365931058385837,5.313682464615411,6.823525650702146
6.624404015544859,1.9533374466642661,5.3819177211224325,7.031321846228892
6.6439373900115015,1.6527089803709452,5.452230939584721,7.24121816677706
6.660464479815211,1.334689221517619,5.524643121252492,7.456664919727136
6.673811372030387,0.9990603638024238,5.599209770449763,7.681660596396576
6.683801975668411,0.6453750929663069,5.676026376413729,7.920745671196034
6.690255726598074,0.27297873508926745,5.755233833125689,8.178944425822753
6.692985513948966,-0.11886168854819806,5.837023277383916,8.461588113294455
6.691796897063484,-0.5306182871171945,5.921639158516861,8.773885651061832
6.6864907141923124,-0.9617626465637047,6.00937801502748,9.119986410930386
6.676873087726675,-1.4092955163531704,6.100577879136783,9.501081364743092
6.662780132563143,-1.8650493592953399,6.195588692784214,9.911844131688063
6.64412963897019,-2.311278474880679,6.2947071341010945,10.334493445155958
6.621016854221383,-2.71494844442991,6.398052068552654,10.730929404118932
6.593867369777084,-3.0243522168757897,6.505361362593844,11.037740820119742
6.563623847608326,-3.1773067968141957,6.615738770795041,11.176586974454391
6.531850779640185,-3.1294135604219955,6.727504640539585,11.091507145993148
6.500556644035965,-2.8876291962275666,6.838419711999516,10.793172371926063
6.4716803520736885,-2.5103915144118436,6.946351435718777,10.357962353015326
6.44657643692957,-2.0695699246169825,7.04993105924893,9.876743029159137
6.4258807376834,-1.6174934774379286,7.1486984895405215,9.412191938617235
6.409705802909021,-1.181285262047301,7.242820408926693,8.993133185719714
6.397892950288548,-0.7711752960784771,7.33275174078389,8.626716941660414
6.390181197327763,-0.38895730923198757,7.419018910200494,8.309934564189176
6.386291624235443,-0.0330185806950668,7.502118255842386,8.036165169697492
6.385961438428492,0.2992430859174117,7.58247990753936,7.798152191301743
6.388953869287666,0.610401259031889,7.660461429452377,7.589148955853518
6.395057881877984,0.9026340208675945,7.736352919010913,7.4032559201752415
6.40408422208666,1.1776375799253096,7.810385478212665,7.235438186443789
6.415860597885914,1.4366520283308208,7.882739860077103,7.081435491774291
6.430227118169221,1.6805264335117296,7.9535542149948455,6.937650539153235
6.4470323825043385,1.9097931096953484,8.022930720386379,6.801047054283401
6.466130313601292,2.124739357229345,8.090941190929213,6.669066407322687
6.487377707173586,2.325472653605522,8.157631855002439,6.539562814209203
6.510632433709641,2.5119782981366012,8.22302748314453,6.410754070525045
6.535752216691007,2.6841695499722755,8.287135023849782,6.2811840654875875
6.56259391219073,2.841930550032995,8.349946864504657,6.1496935392005785
6.59101321769106,2.9851523047410087,8.411443799896663,6.015396088901013
6.62086474073847,3.113761954642703,8.471597760785674,5.877657059318041
6.6520023602848966,3.2277455374211574,8.530374331378853,5.736073572190414
6.684279815659108,3.327164501319143,8.587735067100757,5.590454519940135
6.7175514606723,3.4121663209684363,8.64363961230016,5.440799848225788
6.751673123881984,3.4829896903864417,8.698047610782417,5.28727886920843
6.786503020785848,3.5399648925150324,8.750920399474502,5.130207674374117
6.821902669710998,3.583510049578923,8.802222476218244,4.9700259503784086
6.857737770206787,3.614124028610221,8.851922735722027,4.807273647143443
6.893879010492889,3.6323768041355593,8.899995472193462,4.642568013549536
6.930202778534245,3.6388980647753733,8.946421152328957,4.476581516232096
6.966591759181998,3.63436479751884,8.991186967491279,4.3100211075719725
7.002935407157187,3.6194885014930605,9.034287178566998,4.143609226844468
7.039130292172118,3.5950025824777634,9.075723270835443,3.9780668192325055
7.075080317996895,3.5616503703660634,9.115503939027768,3.8140985539235994
7.1106968217005555,3.520174092947301,9.153644924567004,3.65238032439433
7.145898562630029,3.471305037411313,9.190168727810947,3.4935490274732213
7.1806116130041415,3.415755040220666,9.22510421808568,3.338194546137744
7.214769163406348,3.354209368802447,9.258486163547056,3.1868538052154927
7.248311257094373,3.2873209955729834,9.290354701599211,3.0400067286150225
7.281184467050102,3.2157062156635234,9.320754768885362,2.898073899872835
7.313341529206737,3.13994152317646,9.34973550788409,2.7614157127161745
7.344740944438502,3.060561635316877,9.37734966501125,2.6303327929795035
7.375346560791671,2.9780585376443365,9.403652992941046,2.5050674756710207
7.405127146168114,2.8928814153478117,9.428703667697755,2.3858061295662005
7.434055960321593,2.805437333360122,9.452561728993418,2.2726821349303514
7.462110333655194,2.716092530952365,9.475288550342722,2.1657793365630957
7.489271258964718,2.625174203001699,9.496946343708352,2.0651358132043973
7.515523000994735,2.532972649379625,9.517597701840396,1.9707478244768526
7.540852727488531,2.439743684977981,9.537305180085164,1.882573817121967
7.565250164338311,2.345711215024121,9.556130918256384,1.8005383925998233
7.588707276488552,2.2510698929077155,9.574136302182383,1.7245361575641263
7.611217975417629,2.1559877902394633,9.591381663758025,1.654435396823647
7.6327778533200235,2.060609020888142,9.60792601772626,1.5900815248056257
7.653383943528905,1.9650562720012723,9.623826832974316,1.5313002860151592
7.673034506248917,1.8694332053042908,9.639139835834468,1.4779006874159637
7.69172883830196,1.7738267011735487,9.653918842708627,1.4296776560186517
7.709467105313696,1.6783089260389867,9.668215619268814,1.3864144233104916
7.726250194574085,1.5829392105979074,9.68207976350192,1.347884644616884
7.742079586680064,1.4877657321592088,9.695558609948089,1.31385426621674
7.756957244001656,1.3928269992648536,9.708697152610256,1.2840831562383226
7.770885513994305,1.2981531406480789,9.72153798417264,1.258326517250736
7.783867045400785,1.203767003691128,9.734121249345147,1.236336099254306
7.795904715437697,1.1096850699463343,9.74648461033769,1.2178612316699586
7.80700156613716,1.0159181970869098,9.75866322265439,1.2026496921305523
7.817160748108029,0.9224721979543304,9.770689719575694,1.1904484285666297
7.826385470087573,0.8293482682548962,9.782594203861361,1.181004149417299
7.834678952770122,0.736543275005894,9.794404245355533,1.1740637949265536
7.842044385520181,0.6440499181087924,9.8061448833048,1.169374900530038
7.848484884701269,0.5518567774910762,9.8178386323101,1.166685861403181
7.85400345247618,0.459948258160294,9.82950549092413,1.1657461054191798
7.858602935057783,0.36830444529871914,9.841162951978323,1.166306180131568
7.86228597951077,0.2769008812364737,9.852826013779639,1.1681177580173605
7.865054988323135,0.1857082758156739,9.864507191359813,1.1709335631514306
7.866912071081292,0.0946921613399653,9.876216526991326,1.1745072217844592
7.867858992694692,0.0038125030380162517,9.887961599209172,1.1785930390176012
7.867897117725072,-0.08697672419293702,9.899747529599347,1.182945703961135
7.867027350483142,-0.17772798199781803,9.91157698663896,1.1873199264919474
7.865250070663164,-0.2685006267328584,9.923450185903878,1.191470010056019
7.862565064395835,-0.3593613680562535,9.935364886004438,1.195149366981954
7.858971450715273,-0.45038471545771175,9.947316379674257,1.198109985583986
7.854467603560695,-0.5416533987852903,9.959297479530097,1.2001018620654245
7.849051069572843,-0.6332587467311651,9.971298498150752,1.2008724150415138
7.842718482105531,-0.7253010043632135,9.983307222301168,1.2001659065702293
7.835465472061899,-0.8178895669818302,9.99530888136687,1.1977229011283612
7.827286576392081,-0.9111431026759342,10.007286110378153,1.1932798032453507
7.818175145365322,-1.005189529779926,10.019218908410608,1.1865685257770764
7.808123250067522,-1.1001658078346979,10.031084593668378,1.1773163543398284
7.797121591989176,-1.1962174914998824,10.042857757211777,1.165246089482029
7.785159417074177,-1.293497986079542,10.054510218106598,1.1500765669315434
7.7722244372133815,-1.3921674309405623,10.066010983775914,1.131523677768721
7.758302762903976,-1.4923911233173435,10.077326220553601,1.1093020344574878
7.743378851670802,-1.5943373802497287,10.088419240898176,1.0831274547726037
7.727435477868305,-1.698174721487638,10.099250515445902,1.0527204627052114
7.710453730653429,-1.8040682423911938,10.109777720072955,1.0178110315673226
7.6924130482295165,-1.9121750350630504,10.119955830388628,0.9781448168892745
7.673291297878886,-2.0226385108514693,10.12973727855752,0.9334911411597613
7.653064912770371,-2.1355814815413496,10.139072189969118,0.8836529932943833
7.631709097954958,-2.2510978745423227,10.147908719902063,0.8284792855214484
7.609198119209535,-2.369242994589306,10.156193512757277,0.7678795600521868
7.585505689263642,-2.4900223068377927,10.1638723083578,0.7018412470750954
7.560605466195264,-2.6133788096015307,10.17089072082855,0.6304494335242264
7.534471678099249,-2.7391791939946057,10.177195215163794,0.5539088992130088
7.507079886159302,-2.8671991543209434,10.182734304155924,0.4725679074986787
7.478407894616093,-2.9971084144494378,10.18745998323091,0.3869429027990648
7.448436810471598,-3.1284562621285392,10.1913294122589,0.29774287884390743
7.417152247850313,-3.260658617289815,10.19430684104734,0.2058917654768552
7.384545661677415,-3.3929878748717215,10.196365758702107,0.11254678035889633
7.350615782928698,-3.5245669228483196,10.197491226505697,0.019110362856387023
7.315370113700215,-3.65436880347782,10.197682330134262,-0.07276688071475172
7.278826425665437,-3.7812234246278793,10.196954661327114,-0.16119476867588362
7.241014191419158,-3.9038325138734082,10.195342713640356,-0.24406592952953987
7.201975866280423,-4.0207936353836295,10.19290205434506,-0.3190936480018627
7.1617679299265875,-4.130633576265386,10.189711117865041,-0.3838659545824423
7.120461594163934,-4.23185079430107,10.185872458319217,-0.43591561242374055
7.078143086220923,-4.322965954478754,10.181513302194979,-0.4728043614321944
7.034913426676135,-4.402578917024608,10.176785258580658,-0.49221841810478606
6.990887637505889,-4.469429909123492,10.17186307439961,-0.4920708971815595
6.946193338414654,-4.522462029956152,10.166942365427795,-0.4706056012286759
6.9009687181150925,-4.560881706527594,10.162236309415508,-0.42649559387413866
6.855359901049817,-4.5842132508152895,10.157971353476768,-0.3589292248523622
6.809517768541664,-4.592343324384259,10.154382061228244,-0.26767594924491306
6.763594335297821,-4.585551015343092,10.151705301735795,-0.15312457838237276
6.71773882514439,-4.564519550444442,10.150174055951972,-0.01628774946609457
6.672093629639946,-4.530326585726477,10.15001117845731,0.14123140571648413
6.626790363782681,-4.484411649016786,10.151423492514475,0.3173111514079083
6.581946247292513,-4.4285215840459875,10.154596604028553,0.5094182850416435
6.537661031452053,-4.364637480601463,10.15969078687897,0.7147429131367855
6.494014656646039,-4.2948890793616,10.166838216010339,0.9303495717751754
6.451065765852423,-4.221464445514539,10.176141711728091,1.1533311810595974
6.408851121397277,-4.146523347913973,10.187675023538686,1.3809521796564568
6.367385887918138,-4.072122071923824,10.201484545335251,1.6107692264654594
6.3266646671989,-4.0001554998027995,10.217592237599906,1.8407216339469503
6.286663112200872,-3.9323196773489153,10.235999453939375,2.0691883467240895
6.247339915427382,-3.8700953518081262,10.256691337406615,2.295012804980233
6.208638961909301,-3.8147506600318692,10.279641465456416,2.5175006143820484
6.170491455308983,-3.767359614501474,10.304816471600237,2.7363971348422225
6.132817859163968,-3.7288323770863774,10.332180442948658,2.9518528618515236
6.095529535393104,-3.6999534174665554,10.361698971567174,3.1643840818230524
6.058530001218439,-3.6814242974412474,10.393342812385404,3.3748351650774215
6.021715758244026,-3.6739087491442843,10.427091164036177,3.5843474469996925
5.984976670752583,-3.6780787060437237,10.462934638506175,3.7943382727434463
5.948195883692145,-3.694660843363436,10.500878021233609,4.006492638069507
5.911249275258511,-3.7244838840887877,10.540942947614305,4.222769000526307
5.874004436417623,-3.7685273387903377,10.583170637619567,4.445420175671885
5.83631916302972,-3.8279723366194913,10.627624839376285,4.677029529009774
5.798039439663525,-3.9042544858422734,10.674395134666383,4.920561437633286
5.758996894805103,-3.999116652873289,10.723600749042717,5.179422272558799
5.71900572827637,-4.114654844502956,10.775394971768305,5.457522039594442
5.677859179831341,-4.253340263913396,10.82997019216425,5.759313454421483
5.6353257771922065,-4.417979470242714,10.887563326708465,6.08975680123292
5.591145982489779,-4.611531288586613,10.948460894720794,6.4540999492783175
5.545030669603913,-4.8366130355628245,11.013001894213577,6.857244468187603
5.496664539248285,-5.0943669408789445,11.081574338895454,7.30224460765383
5.445720869839496,-5.382091631885123,11.154596784971993,7.787114250185276
5.391899953520645,-5.688752739873252,11.232467927473845,8.298704714368972
5.335012426121913,-5.987741603901817,11.315454974617534,8.802752169650944
5.275135010082894,-6.228934250630404,11.403482496314044,9.232896740045987
5.21284566757659,-6.3399883429497725,11.495811463714505,9.492418323455608
5.149445784147092,-6.254303065838022,11.59073564694906,9.492813227095995
5.086902753488712,-5.961424735807673,11.68566377922002,9.223150184512424
5.027288506130635,-5.524111514269208,11.777895281065144,8.772710048433524
4.972047390987942,-5.03049653071739,11.865622381549478,8.264053073334436
4.921742425680768,-4.542771472832516,11.948262912282823,7.7825384473376795
4.8763147109524425,-4.088294783332408,12.0260882967562,7.36507728296117
4.835431763119119,-3.672933514478036,12.099739069585812,7.01918612983519
4.798702427974338,-3.2933202295673194,12.169930930884163,6.740053128421886
4.765769225678665,-2.9432689627324358,12.237331462168383,6.519329070197343
4.736336536051341,-2.6164052966695652,12.302524752870356,6.348651038009401
4.710172483084645,-2.307044819000065,12.366011263250451,6.220760641770777
4.687102034894645,-2.0103773148360635,12.428218869668159,6.129682930628265
4.666998261746285,-1.722411043818016,12.489515698974442,6.070587456448509
4.649774151308105,-1.4398551425795638,12.550221573538927,6.0395705839282225
4.635375599882309,-1.1600043005521288,12.610617279378209,6.033442480761774
4.6237755568767875,-0.8806453952979223,12.670951704185827,6.049542548697001
4.6149691029238085,-0.5999892924177507,12.731447129672796,6.085585747371161
4.608969209999631,-0.3166254106104117,12.792302987146508,6.139535791370371
4.605802955893527,-0.02949506974913879,12.853698345060211,6.209500258162897
4.605508005196035,0.262120621394589,12.91579334764184,6.293643619567807
4.608129211409981,0.5586025512115205,12.978729783837517,6.3901157316428465
4.613715236922096,0.8599893092073303,13.042630941153945,6.496994872996902
4.62231513001417,1.165971206526586,13.107600889883914,6.612245796767804
4.633974842079436,1.4758872158194145,13.173723347851592,6.733694323999041
4.64873371423763,1.7887295351011638,13.241060291091582,6.859020621372041
4.666621009588642,2.1031602846652357,13.309650497305302,6.9857733238293624
4.687652612435294,2.4175441512732267,13.379508230543596,7.11140594338541
4.711828053948027,2.729999443852147,13.450622289977451,7.233335477384206
4.739128048386548,3.038467975903178,13.522955644751294,7.349020858176887
4.76951272814558,3.340801573981054,13.596445853333062,7.456056134825943
4.802920743885391,3.634860170915302,13.671006414681322,7.5522705229401925
4.839269345594544,3.9186139006802585,13.746529119910724,7.635825332376495
4.878455484601346,4.190239967490551,13.822887373234488,7.705296924659162
4.920357884276252,4.448204816626399,13.89994034248108,7.759735710185397
4.9648399324425165,4.691323511548145,13.977537699582935,7.798693836827847
5.011753167557998,4.918791048547485,14.055524637951214,7.822218247083731
5.060941078043473,5.130184061196926,14.13374682042205,7.83081039871209
5.112242918655442,5.325435196459911,14.212054924409172,7.825358194074775
5.16549727062004,5.504785603401643,14.29030850634992,7.807048708858085
5.220545126654057,5.668722916883449,14.368378993438501,7.777271674844454
5.277232355822891,5.817912653554503,14.446151710186946,7.73752333292061
