th1 (rad),w1 (rad/s),th2 (rad),w2 (rad/s)
2.322653235059702,2.795067316173418,4.537365847253733,0.7691502900273823
2.350603908221436,2.723094769657566,4.545057350154007,0.7599659229898587
2.3778348559180116,2.654739342008888,4.552657009383906,0.7564839184310816
2.4043822493381004,2.589851046193445,4.560221848568217,0.7583763651364364
2.4302807598000347,2.5282903400687453,4.567805612219582,0.7653297558839692
2.455563663200722,2.469928904225108,4.575458909778421,0.7770454428947213
2.480262952242973,2.4146501271866083,4.5832293642073685,0.7932397149885927
2.5044094535148393,2.3623493515986542,4.591161761357254,0.8136435850276271
2.528032947030826,2.3129339275642167,4.59929819720753,0.8380023618767644
2.551162286306468,2.2663231122543284,4.607678220826298,0.8660750679985809
2.5738255174290114,2.2224478484975374,4.616338971506283,0.8976337521060009
2.5960499959139867,2.1812504493376985,4.625315309027343,0.9324627360713464
2.6178625004073637,2.1426842105616712,4.634639936388056,0.9703578264871315
2.6392893425129804,2.1067129689144095,4.6443435146529275,1.0111255137946302
2.6603564722021247,2.0733106200865072,4.654454769790874,1.0545821756123797
2.6810895784029896,2.0424606075108036,4.665000591546998,1.1005532956693025
2.7015141844780977,2.014155390465927,4.676006124503691,1.1488727054377852
2.721655738382757,1.9883958978810377,4.6874948515580686,1.1993818520407398
2.741539697361567,1.9651909724964751,4.699488670078476,1.2519290931556029
2.761191607086532,1.944556808594559,4.712007961010032,1.3063690173536198
2.7806371751724774,1.9265163853157998,4.725071651183568,1.3625617865052702
2.7999023390256355,1.9110988965685456,4.738697269048621,1.4203724954767585
2.8190133279913208,1.8983391776829606,4.752900994003388,1.4796705432752661
2.8379967197681504,1.8882771282193107,4.767697699436141,1.5403290090207276
2.8568794910503437,1.8809571296893675,4.783100989526348,1.6022240255878644
2.8756890623472375,1.8764274563688494,4.799123229782227,1.6652341434415676
2.894453336910926,1.8747396768551876,4.815775571216642,1.7292396770565843
2.9132007336794783,1.8759480435515734,4.833067967987208,1.794122026350781
2.931960214114994,1.8801088668338781,4.851009188250716,1.8597629657579322
2.9507613027833326,1.887279870285515,4.869606817908295,1.9260438939143216
2.9696341014861876,1.897519523075452,4.888867256847438,1.9928450374316642
2.988609296716942,1.9108863453197678,4.9087957072217545,2.0600446028796453
3.0077181601701395,1.9274381821250537,4.929396153250551,2.127517871911578
3.02699254199139,1.947231441984259,4.950671331969667,2.1951362354468715
3.0464648564112324,1.9703202953075027,4.972622694324135,2.2627661639880756
3.0661680593643075,1.9967558291503589,4.995250355964016,2.3302681125148665
3.086135617655811,2.0265851546811717,5.0185530370891644,2.3974953599810926
3.106401469202623,2.059850464639991,5.042527990688975,2.4642927852636554
3.126999973849023,2.0965880390185934,5.067170918541612,2.530495583493095
3.147965854239209,2.136827198467543,5.092475874376542,2.5959279290532282
3.1693341262238843,2.1805892065445223,5.1184351536670745,2.6604015941855117
3.1911400182893295,2.227886123887372,5.145039169608929,2.7237145350818697
3.213418879528203,2.278719619749481,5.172276314959748,2.7856494605985667
3.236206075725698,2.3330797490915005,5.2001328095657335,2.8459724022637354
3.259536873216613,2.390943706589806,5.228592533588371,2.9044313080596686
3.283446310282511,2.452274572495265,5.257636846668968,2.960754686499193
3.3079690560074635,2.5170200692391798,5.2872443935339595,3.0146503317259508
3.3331392566998552,2.5851113520048266,5.317390896851219,3.0658041646726257
3.3589903702199035,2.6564618611147175,5.348048938497945,3.1138792296069844
3.3855549888310508,2.7309662689598087,5.379187730794015,3.1585148895552164
3.412864651520649,2.8084995592339452,5.410772879689567,3.199326267959843
3.4409496471129883,2.8889162813333242,5.442766142369165,3.235903987319229
3.4698388099263218,2.9720500278170965,5.4751251822423574,3.267814258247534
3.499559310204493,3.057713187663139,5.507803324824833,3.294599374128885
3.5301364420811243,3.145697032533874,5.540749318566122,3.315778667012868
3.561593412406463,3.2357721972083104,5.57390710523625,3.3308499792493103
3.593951134378546,3.3276896185260596,5.607215605028744,3.33929170215927
3.6272280305638067,3.421181999376687,5.640608522050337,3.3405654272730954
3.6614398505575734,3.5159658651548673,5.674014176323068,3.334119246723892
3.696599509209122,3.6117442793317167,5.7073553687903065,3.3193917265454354
3.732716952002439,3.708210281944525,5.740549286055761,3.2958165590583532
3.7697990548218843,3.805051109400139,5.773507451646345,3.262827877318926
3.8078495659158857,3.901953245503298,5.806135730419534,3.219866184793144
3.846869098370919,3.998608341555194,5.838334392267465,3.166384816097593
3.886855181786471,4.0947200273162805,5.869998240428441,3.1018567991019057
3.927802382059634,4.190011614424208,5.9010168084194605,3.0257819345800745
3.969702498203876,4.2842346697555165,5.931274627765261,2.937693847208686
4.012544844901432,4.377178409114422,5.960651566237348,2.837166692178099
4.056316628992576,4.468679833306718,5.989023233159129,2.723821127219431
4.101003427325643,4.558634502009508,6.016261444431323,2.597329083849863
4.146589772345738,4.647007820051693,6.042234735269822,2.457416798597284
4.193059850546255,4.733846701260048,6.066808903255795,2.303865500124292
4.2403983175588555,4.819291483550714,6.089847558257038,2.1365090968178273
4.288591232394363,4.903588002909944,6.111212649225216,1.9552281758181285
4.337627112423462,4.987099801000229,6.130764930983397,1.7599396105453646
4.387498110433464,5.070320548546041,6.148364327088851,1.550581077656748
4.438201315918924,5.153886920314193,6.163870137865419,1.3270897991107007
4.489740185122066,5.23859236127567,6.1771410358565255,1.0893748381238029
4.5421261087348235,5.3254024384710625,6.188034784237764,0.8372822719568207
4.5953801331195345,5.415472776335402,6.196407606957332,0.5705525205204832
4.649534860882889,5.510170915554289,6.202113132162537,0.28876901362010315
4.704636570038431,5.611103795221744,6.205000822298738,-0.008702764127313911
4.760747607990649,5.720152886000167,6.204913794657465,-0.32278695244452926
4.817949136850651,5.839519186815721,6.201685925133019,-0.6547808061329632
4.876344328718808,5.97178008807591,6.19513811707169,-1.0064505469511913
4.936062129599567,6.119958938230656,6.185073611602178,-1.3801382334842731
4.997261718981874,6.287604781596212,6.171272229267335,-1.7788732370663065
5.060137766797836,6.478871424769458,6.153483496896672,-2.2064697160032383
5.124926481045531,6.698565769669504,6.13141879973664,-2.6675636409758576
5.191912138742226,6.952092417709503,6.104743163326881,-3.1674813058693903
5.261433062919321,7.245128317387227,6.073068350268187,-3.711698432157997
5.333884346093193,7.582666746472636,6.035951365946607,-4.304373610520065
5.409711013557919,7.96669605607214,5.992907629841406,-4.944913555544831
5.48937797411864,8.391194692277356,5.943458494285958,-5.6207124039825
5.573289921041414,8.832771894094696,5.887251370246132,-6.293738933195039
5.661617639982361,9.237464498191649,5.824313980914182,-6.8817951989834505
5.753992284964277,9.514596672627771,5.755496028924347,-7.250078169100637
5.849138251690555,9.566349616479453,5.682995247233341,-7.253845604432853
5.944801747855349,9.363454544953523,5.610456791189013,-6.847046759625199
6.038436293304884,8.98587750316644,5.541986323592761,-6.141608316377187
6.1282950683365485,8.555093284281824,5.480570240428989,-5.312062971307475
6.213846001179367,8.153065240589022,5.4274496107159145,-4.4793761669510115
6.295376653585257,7.811243675761714,5.3826558490464045,-3.693417648056291
6.373489090342874,7.532929724459117,5.345721672565841,-2.963666860625899
6.448818387587465,7.310925134768401,5.316085003959582,-2.284135099893308
6.521927638935149,7.135600797937149,5.2932436529606495,-1.6450606603110574
6.593283646914521,6.997719596143435,5.276793046357539,-1.0372164267742092
6.663260842875955,6.8891431170299136,5.266420882089797,-0.4531687473066347
6.732152274046254,6.802817076256615,5.261889194616731,0.11255287385642099
6.80018044480882,6.732564808514588,5.263014723355295,0.6636231760757
6.867506092893966,6.672871579479371,5.2696509551160515,1.2021636338223933
6.9342348086887595,6.618714857948472,5.281672591454275,1.7289807685313472
7.0004219572682445,6.5654510740147005,5.298962399139588,2.2437848916691867
7.066076468008392,6.50875467189792,5.32140024805628,2.7453934203576513
7.131164014727371,6.444600807984024,5.348854182259856,3.2319262522876633
7.1956100228072115,6.369281876628126,5.381173444782733,3.70099846794512
7.259302841573493,6.279447889955298,5.418183429462184,4.149911965500389
7.322097320473046,6.172160993293022,5.459682549117188,4.57584421781217
7.383818930405976,6.044954988346762,5.50544099129531,4.976029879221195
7.444268480289444,5.895891666073976,5.555201290087522,5.347929678531838
7.503227396950184,5.723606963771445,5.608680586872841,5.689380824363756
7.5604634665878985,5.527341338073002,5.6655743951164785,5.998723746516212
7.615736879968629,5.306950167158744,5.72556163258164,6.274901071622899
7.668806381640216,5.062891400086466,5.788310643297869,6.517526014528196
7.719435295641081,4.796189078060174,5.8534859034431515,6.726918723814458
7.767397186421683,4.5083728303013055,5.920755090681296,6.904110548803228
7.812480914724697,4.201395044911846,5.989796196169328,7.050817758421518
7.854494865173815,3.8775290916594267,6.060304373753543,7.169387968169409
7.893270156090409,3.5392535655358355,6.1319982534352375,7.262724338475849
7.928662691745767,3.1891287685280454,6.204625496819996,7.334194287945949
7.960553979431048,2.829672277933203,6.277967439699455,7.3875307360543925
7.98885070221038,2.4632402724394002,6.351842747059999,7.42673449059499
8.013483104934775,2.091920273799887,6.426110091965949,7.455986179390925
8.034402307672773,1.7174392718628582,6.500669953759858,7.47957511071528
8.0515767003914,1.3410891509998524,6.57546570486701,7.501850794446003
8.0649875919014,0.9636693377619603,6.65048421281147,7.527200788330727
8.074624285279018,0.5854450939800853,6.725756220694778,7.5600562003214336
8.080478736218819,0.20611938032797356,6.801356782697992,7.604923482809845
8.082539930022099,-0.17518264082232143,6.8774060175260905,7.6664375189671645
8.080788103613877,-0.5599135257667555,6.954070392715762,7.749424974334398
8.075188968356208,-0.9500762802409786,7.031564642459106,7.858955420886325
8.065688205553798,-1.348140688746047,7.110154196667969,8.000334821377411
8.052206798666337,-1.7568396203555698,7.1901575448817425,8.17895020892367
8.03463840246278,-2.178716530366601,7.271947046970979,8.399785771561705
8.012851237159115,-2.6151792136026835,7.355944904686596,8.66626958168888
7.986699445023088,-3.064635143788601,7.442607600503485,8.97785663535733
7.9560530935852025,-3.519106643028757,7.532386166857059,9.325494153696381
7.920862027154915,-3.9589261086468803,7.6256411083940225,9.68436416398977
7.881272766068446,-4.346826911915459,7.72248475003392,10.005628372341372
7.837804496949292,-4.627602824090612,7.822541033757334,10.215595007245755
7.7915284687083854,-4.74480592094665,7.924696983829792,10.238101383978043
7.744080409498919,-4.675947551834716,8.027077997669572,10.04220566669142
7.6973209339805715,-4.455069738978139,8.127500054336487,9.672524914230332
7.65277023659079,-4.150484461929388,8.22422530347879,9.218561728138642
7.611265391971496,-3.823376561931042,8.316410920760175,8.75889620314807
7.5730316263521855,-3.5093598603260654,8.403999882791656,8.337312740897143
7.5379380277489245,-3.222899331354881,8.487373010200628,7.969684614960115
7.505709034435376,-2.966868352960698,8.567069856350228,7.6571916739903605
7.476040350905769,-2.739156318229574,8.643641773090131,7.39517230441726
7.448648787723473,-2.53601195172507,8.717593496134304,7.17745298069366
7.423288668206222,-2.3534797464254176,8.789368025941242,6.998112226695091
7.399753870741968,-2.1879300812831666,8.859349148208192,6.8520618192353915
7.377874569929136,-2.036201743963397,8.927869766400546,6.735143272061353
7.357512552489502,-1.8955936877282216,8.99522119912116,6.64404889678612
7.3385566156122195,-1.7638075910520534,9.061661688089021,6.576194235810272
7.320918539701699,-1.6388827828560157,9.127423630447124,6.52958934904216
7.304529711873139,-1.5191396397037489,9.192719523937546,6.502723365024064
7.289338315476101,-1.403137322260526,9.257746757587787,6.494463351953133
7.275306942253496,-1.2896480862947541,9.322691391107318,6.503963307463399
7.262410461390549,-1.1776496282892472,9.387731024181951,6.530576955559725
7.250633965107657,-1.0663373624832904,9.453036793737548,6.57376702964455
7.239970591482824,-0.9551593861965214,9.518774464033994,6.6330030759755845
7.230418997620859,-0.843877647437977,9.58510449479375,6.707639485405988
7.221980221146479,-0.732658887609567,9.652180889647811,6.796765928956075
7.214653632270384,-0.6221973941625589,9.720148548937372,6.8990246829054405
7.208431658328759,-0.5138671017146971,9.789138795766426,7.012395209641063
7.203292987311611,-0.4098913280114045,9.859262747862838,7.133958157563552
7.199194074031498,-0.3135027068682915,9.930602329438473,7.259670967122455
7.196059046962815,-0.2290435414527043,10.003199039109697,7.3842158986515996
7.193768611548288,-0.16193213575042842,10.077041198096213,7.501013314388682
7.192149290190784,-0.11840596237067583,10.152051331240099,7.602513009782456
7.190965230567077,-0.10496911941944866,10.228076461337924,7.680857207821168
7.189915539372882,-0.12754186331769662,10.304885033416136,7.728921793333625
7.188640120739706,-0.19043607618394465,10.382174251349472,7.741584633771768
7.186735759977866,-0.2954182238198997,10.45959009768719,7.716897059791359
7.183781577739667,-0.44118201764699505,10.536759068285104,7.656758528415539
7.179369757563197,-0.623459832242534,10.61332665356926,7.5668109968573765
7.173135159240772,-0.8357712433801184,10.688994763537833,7.455556499238265
7.164777446806971,-1.0705644138441643,10.763550328530215,7.333000781665381
7.154071802668529,-1.3203938041037888,10.83688033634687,7.2092617178617155
7.1408678646274915,-1.5788396281484904,10.908972953525486,7.093502625899946
7.125079468346007,-1.8410379073444472,10.979907979784485,6.993349978827569
7.106669089272562,-2.10384655534692,11.04984147957276,6.9147657097473365
7.0856306237190925,-2.3657595176615853,11.118989136670233,6.862242039564524
7.061973028542477,-2.626696033919785,11.187611557065878,6.839171818012402
7.035706068203279,-2.887765848442438,11.256003275246002,6.848282413508759
7.006828409718854,-3.151074133277678,11.324486099381089,6.892069590546293
6.975317668386078,-3.4195993958852617,11.393406795286552,6.973209192855626
6.941121674427225,-3.697159014454864,11.463138887215107,7.0949529576054085
6.904150084282676,-3.988468905770736,11.534088416791162,7.261532072568686
6.864265395224969,-4.299302249897955,11.606703737516849,7.4786013442878225
6.821272372725989,-4.636751774074639,11.681489750959727,7.753758559962321
6.774904854985243,-5.009591392826454,11.75902733655935,8.097160372689936
6.7248089410569785,-5.42869339454389,11.83999894028625,8.52220005128297
6.67052200711154,-5.907325526059889,11.92522094079908,9.04603081679802
6.611448751850941,-6.46075900819002,12.015681248967061,9.689177139956413
6.5468411617690405,-7.103513251232326,12.112573020366625,10.471946790445537
6.4758060292567174,-7.839700484144787,12.217292488271081,11.401370087034717
6.3974090244152695,-8.63600145805253,12.331306189141428,12.43407467163705
6.311049009834744,-9.363512094464966,12.455646935857798,13.39571666011535
6.2174138888900945,-9.740356254595211,12.589604102458951,13.900894853452815
6.1200103263441425,-9.471571078685637,12.728613050993479,13.546565390446679
6.025294615557286,-8.650236568013636,12.864078704897945,12.465697732578395
5.9387922498771495,-7.688461101147144,12.98873568222373,11.225167178214457
5.861907638865678,-6.834730835936224,13.100987354005875,10.16004505128812
5.793560330506316,-6.131605068501625,13.202587804518757,9.322924600678924
5.7322442798213,-5.554198486688998,13.295817050525546,8.676813726616432
5.67670229495441,-5.070734439541015,13.38258518779171,8.177490193415128
5.625994950559,-4.655630140133169,13.464360089725862,7.790530706094902
5.579438649157669,-4.290002444686708,13.54226539678681,7.491455219039619
5.5365386247108015,-3.9600384339928216,13.617179948977206,7.263183261250109
5.4969382403708735,-3.6554919862684017,13.689811781589707,7.093767215566157
5.460383320508189,-3.3686223441151544,13.760749453745369,6.974752509360828
5.426697097067038,-3.093511287646204,13.830496978838978,6.900024068844106
5.3957619841905755,-2.8256605117222184,13.899497219527419,6.864962932522779
5.367505379073354,-2.5617967048794776,13.968146848852646,6.865778732860225
5.341887412024559,-2.2998370411327516,14.036804636181248,6.898927424515522
5.3188890416132315,-2.038980085349078,14.105793910426403,6.960561801899524
5.298499240759741,-1.7798836045717892,14.175399528445398,7.046001784411358
5.280700404714023,-1.5248702620749324,14.245859546289513,7.149259628607118
5.265451702093273,-1.2780669740935047,14.317352142575583,7.262713531861818
5.252671032352338,-1.0453458963409135,14.3899792778942,7.377078644739064
5.2422175733889285,-0.8339226001763604,14.46375006434159,7.481842960626643
5.233878347387165,-0.6515204256200993,14.538568493947857,7.566266857981479
5.227363143130964,-0.5051560589023016,14.614231162527672,7.620858201626448
5.222311582541941,-0.39980773677800285,14.690439744543935,7.6389761305804855
5.218313505174161,-0.33738005904301577,14.76682950584974,7.6180351191028075
5.214939704583731,-0.31634282738365405,14.843009857040768,7.5598458170677345
5.2117762763098945,-0.33216787775166184,14.918608315211445,7.469964316159156
5.208454597532378,-0.3783605659246904,14.993307958373038,7.35633388013522
5.204670991873131,-0.4476872055457614,15.066871297174389,7.227732548945579
5.200194119817674,-0.5332271482993406,15.139148622663845,7.092484538311776
5.19486184833468,-0.6290530739441119,15.210073468046962,6.957661383304428
5.1885713175952395,-0.7305275355883963,15.279650081880007,6.828767490922941
5.181266042239356,-0.8343124566827445,15.347937756789236,6.709776269802819
5.172922917672529,-0.938214359270297,15.415035519487263,6.603358871367978
5.163540774079826,-1.040965482712701,15.481069108200943,6.511181605279198
5.153131119252699,-1.1420040843316779,15.546180924253735,6.43419669224447
5.141711078409383,-1.2412853655324476,15.61052289117618,6.372891170432108
5.129298224754058,-1.3391334383330908,15.6742518028805,6.327484425284655
5.115906890370727,-1.4361334018053065,15.737526647133347,6.29807815815817
5.101545556352674,-1.5330577835488461,15.800507428714928,6.284767930920448
5.0862149785171855,-1.6308204525717493,15.863355108024132,6.287726377263207
5.069906773991468,-1.7304516692007976,15.926232371796765,6.307267140399714
5.05260225729946,-1.8330890570936282,15.989305043200762,6.343896875902782
5.034271366728524,-1.9399803416523174,16.05274401195979,6.39836080364604
5.014871563312001,-2.0524943405125167,16.116727619996247,6.471685387855092
4.994346619906875,-2.1721366077437536,16.181444473874798,6.565219503780569
4.972625253829438,-2.300564871323189,16.247096668912604,6.68067226800643
4.949619605116206,-2.439596123740703,16.313903391592667,6.82014032828107
4.925223643878799,-2.5911903238314578,16.382104794875477,6.986107523955255
4.899311740640485,-2.7573821498114692,16.45196587011503,7.181381208026168
4.871737919142371,-2.940106786591662,16.52377968219529,7.408894662549864
4.842336851276454,-3.140819765160542,16.597868628820788,7.671241766236422
4.810928653624849,-3.359733761892155,16.67458104648315,7.969702901665245
4.777331316005927,-3.5943856749038163,16.754278075499805,8.30236646187328
4.741387459256889,-3.8371591585333222,16.837301740118537,8.660819615330906
4.703015867671556,-4.0715619737776025,16.923909936271848,9.025103906473628
4.662300247933779,-4.268147974485336,17.014160975336583,9.358108226191396
4.619618768188926,-4.38387874518893,17.107742057598497,9.604554358302039
