th1 (rad),w1 (rad/s),th2 (rad),w2 (rad/s)
5.554953331747345,1.2283143076346408,1.3371101932772231,-0.8267504725881818
5.567236474823692,1.2761592155254615,1.3288426885513414,-0.9126578887539647
5.579998066978947,1.3241649424971422,1.3197161096638017,-1.0003817025564568
5.593239716403918,1.3724668809995357,1.3097122926382372,-1.0899800506931236
5.606964385213914,1.4212130996877708,1.298812492131306,-1.1815192838543835
5.621176516210792,1.470564961435611,1.286997299292762,-1.275076366111737
5.635882165825148,1.520697865585187,1.2742465356316448,-1.3707415580430264
5.651089144480999,1.5718021571052532,1.2605391200512146,-1.4686214088304466
5.666807166052052,1.6240842519507106,1.2458529059629102,-1.5688420900955522
5.683048008571559,1.677768035117933,1.2301644850619546,-1.671553114125901
5.699825688922738,1.7330965958092928,1.2134489539206956,-1.7769314916404315
5.7171566548808315,1.7903343728916472,1.1956796390042914,-1.8851863995035758
5.735059998609748,1.8497697935381012,1.1768277750092557,-1.9965644468660253
5.753557696545129,1.9117184985057074,1.1568621305405955,-2.1113556488666663
5.772674881530186,1.9765272585159626,1.1357485740519289,-2.2299002395902456
5.792440154115345,2.0445786966151833,1.1134495716560264,-2.35259647888635
5.812885941081497,2.1162969389485435,1.089923606867163,-2.4799096277799637
5.834048910470982,2.192154316682007,1.0651245105893632,-2.612382278538848
5.855970453637802,2.2726792266142266,1.0390006878039748,-2.7506462168617007
5.878697245903944,2.3584652123104117,1.0114942256353578,-2.895435944784003
5.902281898027049,2.45018122433599,0.9825398661875178,-3.047603867084583
5.926783710270408,2.5485828091313762,0.952063827516672,-3.2081368754569235
5.952269538361722,2.6545235755184566,0.9199824587621027,-3.378173536071864
5.978814774116906,2.7689655438511047,0.8862007234013841,-3.5590200884222427
6.0065044295554175,2.8929856272527936,0.8506105225171617,-3.752161626075234
6.035434285827946,3.027773057232367,0.8130889062564094,-3.9592615014344954
6.065712016400269,3.174608235309577,0.7734962912420644,-4.182136046792175
6.097458098753365,3.3348059051470305,0.7316749307741427,-4.422681228699759
6.130806157804836,3.5095925367899072,0.687448118487145,-4.6827098222571575
6.1659020831727345,3.699866386349634,0.6406210202645735,-4.963627856138023
6.202900747036231,3.905755976817989,0.5909847417031933,-5.2658333211918045
6.241958306804411,4.125850665341119,0.5383264084912752,-5.587660900387638
6.2832168134578215,4.355946993208161,0.48244979948739886,-5.923653325589374
6.326776283389903,4.587213869145862,0.4232132662315051,-6.262020175471809
6.372648422081362,4.8040196798271335,0.360593064476787,-6.581615513720207
6.420688618879633,4.9825794381343504,0.29477690933958495,-6.8500387333773265
6.470514413260976,5.093022379095255,0.22627652200581166,-7.02647430513181
6.521444637051928,5.107783848965603,0.15601177895449356,-7.073310900532939
6.572522475541584,5.01486369693741,0.08527866994916417,-6.974498311518381
6.622671112510958,4.826376201577469,0.015533686833980348,-6.747305724803248
6.670934874526733,4.573014546700158,-0.05193937041405214,-6.434496829082065
6.7166650199937346,4.288981488530761,-0.1162843387048728,-6.0833764872446405
6.759554834879042,4.000424632812578,-0.17711810357731922,-5.729855707987511
6.799559081207168,3.7226563671425925,-0.23441666065719433,-5.394755428633808
6.836785644878593,3.462602981617975,-0.2883642149435324,-5.087311641646728
6.871411674694773,3.2221630006481536,-0.3392373313599997,-4.80987235242966
6.903633304701255,3.000689260082961,-0.38733605488429634,-4.561337529247428
6.9336401973020845,2.796449655767107,-0.4329494301767706,-4.33916705671572
6.961604693859756,2.607385561728853,-0.4763411007439278,-4.140412737468327
6.987678549477044,2.431469063540901,-0.5177452281186111,-3.9621968702595267
7.011993240112453,2.266851548451167,-0.5573671968212064,-3.8019052977531107
7.034661755596964,2.111910448933982,-0.5953862497987374,-3.6572425219552547
7.055780860086304,1.9652494195450678,-0.63195867501829,-3.5262247640425306
7.0754333542817545,1.8256793661373478,-0.6672209226587152,-3.4071483005886813
7.093690147943128,1.6921934144471509,-0.701292405664602,-3.298550705601522
7.110612082087599,1.563941740098586,-0.7342779127206173,-3.1991728495754166
7.126251499488585,1.440208681223571,-0.7662696412163714,-3.107924773145687
7.140653586300821,1.3203928925499877,-0.7973488889478283,-3.0238563341414197
7.153857515226321,1.2039905477979678,-0.8275874522892425,-2.9461325433027907
7.1658974207043,1.0905812891217037,-0.8570487777222704,-2.874013116191149
7.176803233595517,0.9798165253981606,-0.8857889088841819,-2.806835659810021
7.186601398849499,0.8714096801513258,-0.9138572654822822,-2.7440019264208835
7.195315495651012,0.7651280284939,-0.941297284746491,-2.6849666286926026
7.202966775935951,0.6607858138167818,-0.968146951033417,-2.6292283843821633
7.2095746340741185,0.5582383868482466,-0.9944392348772386,-2.5763224296644145
7.215157017942601,0.45737715709609533,-1.0202024591738827,-2.5258148020692923
7.219730789513561,0.35812518794518766,-1.0454606071945756,-2.477297745340513
7.223312041393013,0.2604333017111748,-1.0702335846479807,-2.4303861300151084
7.225916374410125,0.1642765902611422,-1.0945374459481318,-2.384714716543817
7.227559140312736,0.069651251088521,-1.11838459311357,-2.3399361139364343
7.228255652823621,-0.023428311360970733,-1.1417839542529344,-2.2957193077659523
7.228021369710011,-0.11493216319643335,-1.164741147330594,-2.2517486482628586
7.226872048078047,-0.20481732869937996,-1.1872586338132225,-2.2077232033179452
7.224823874791053,-0.29303010944051666,-1.209335865846402,-2.163356393401964
7.221893573696647,-0.3795082489761695,-1.2309694297804217,-2.1183758363964933
7.218098491206885,-0.46418295217072464,-1.2521531881443866,-2.0725233405992145
7.213456661685178,-0.5469807651340501,-1.2728784215503788,-2.02555499401763
7.207986854033837,-0.6278253203781419,-1.293133971490555,-1.9772413076317756
7.201708600830056,-0.7066389517664098,-1.3129063845668727,-1.9273673795828006
7.194642211312392,-0.783344184817684,-1.3321800583627006,-1.8757330561137877
7.186808769464215,-0.8578651095904908,-1.3509373889238385,-1.8221530733562072
7.17823011836831,-0.9301286453668183,-1.3691589196574006,-1.7664571714779334
7.168928831914641,-1.0000657083473687,-1.38682349137218,-1.7084901790308593
7.158928174831168,-1.0676122952595144,-1.4039083931624885,-1.6481120703181018
7.148252051878573,-1.1327104969050616,-1.4203895138656695,-1.5851980020456098
7.136924946909522,-1.1953094560334618,-1.4362414938861257,-1.5196383372978988
7.124971852349187,-1.2553662833789727,-1.4514378772591046,-1.4513386649297266
7.112418189515397,-1.312846944181633,-1.4659512639084018,-1.380219820831564
7.099289720073581,-1.36772712503142,-1.4797534621167174,-1.3062179143367967
7.085612448823267,-1.4199930875174551,-1.4928156412600855,-1.2292843585145077
7.071412517948092,-1.4696425110858338,-1.5051084848452305,-1.1493858975399993
7.056716092837234,-1.5166853229314126,-1.5166023438206304,-1.066504618135933
7.041549239607919,-1.5611445079463258,-1.5272673900019897,-0.9806379256675017
7.025937794528456,-1.6030568870387574,-1.5370737692586647,-0.8917984593301833
7.009907225658068,-1.6424738478634582,-1.5459917538519665,-0.8000139154758564
6.993482487179434,-1.6794620085219694,-1.5539918930067251,-0.7053267439542029
6.976687867094214,-1.7141037924326759,-1.5610451604462672,-0.6077936798254355
6.959546829169888,-1.7464978916378746,-1.5671230972445216,-0.5074850722697215
6.942081850253509,-1.7767595965436933,-1.5721979479672188,-0.40448397420450743
6.924314254288072,-1.8050209726292112,-1.576242787709264,-0.29888496010247845
6.90626404456178,-1.8314308690571102,-1.5792316373102888,-0.1907926456877524
6.887949735871209,-1.8561547502923097,-1.5811395637671664,-0.08031989129834224
6.869388188368286,-1.8793743495839748,-1.5819427626801499,0.03241431972381921
6.8505944448724465,-1.9012871521668644,-1.5816186194829116,0.14728732584842585
6.831581573350777,-1.9221057258660565,-1.5801457462244273,0.26417554313663905
6.812360516092117,-1.9420569269507533,-1.5775039907930608,0.38295751004632317
6.792939946822609,-1.961381019056204,-1.5736744156925975,0.5035171912679858
6.773326136632047,-1.9803307522763023,-1.5686392437799177,0.6257475049989537
6.753522829109284,-1.999170457692124,-1.5623817687299282,0.7495540356248963
6.733531124532362,-2.0181752193289704,-1.5548862283736793,0.8748588950298385
6.7133493723390725,-2.037630190663945,-1.546137639423381,1.0016047010213567
6.692973070432433,-2.05783012634827,-1.5361215924131675,1.1297586507363513
6.67239476916895,-2.079079201949239,-1.524824005905804,1.2593166802686913
6.651603977149457,-2.10169119559881,-1.5122308391031172,1.3903077188293451
6.630587065193469,-2.1259901059199318,-1.4983277619148236,1.5227980660599005
6.609327164134269,-2.1523112810044234,-1.4830997812542246,1.6568959441076216
6.587804051324225,-2.1810031340235922,-1.4665308218131483,1.7927563010743153
6.5659940199839895,-2.2124295225988764,-1.4486032588024051,1.9305859686823528
6.543869724758001,-2.246972871352149,-1.4292973991155815,2.0706493034165216
6.5213999960444795,-2.2850381195073868,-1.4085909060814163,2.213274465429659
6.498549614849406,-2.32705757641521,-1.3864581614271199,2.358860510516738
6.475279039085254,-2.3734967640598654,-1.3628695563219524,2.507885482826635
6.451544071444655,-2.424861310640787,-1.337790701493686,2.6609156913521286
6.427295458338247,-2.481704921728282,-1.3111815445801647,2.8186163166213225
6.402478409120964,-2.544638374948205,-1.2829953814139514,2.981763398600207
6.3770320253714825,-2.614339324952937,-1.2531777474279493,3.151257054969623
6.350888632121953,-2.691562405126999,-1.2216651768782532,3.328135386418172
6.323973008070683,-2.777148562010837,-1.1883838230140715,3.5135877940075946
6.296201522450575,-2.8720315679214306,-1.1532479450739956,3.708965102765307
6.267481206771361,-2.9772378978417406,-1.1161582940463426,3.9157815020365523
6.237708827792944,-3.0938730653044084,-1.077000479025977,4.135699096531381
6.2067700971399,-3.2230821467672173,-1.0356434880606633,4.370478500782068
6.174539275672228,-3.3659630797808218,-0.9919387030528426,4.621866297270097
6.1408796448744205,-3.5233962138743014,-0.9457200400801417,4.891369238266833
6.105645682735678,-3.695730054338708,-0.8968063476974734,5.1798322734663875
6.068688382192291,-3.882230674365175,-0.8450080249628095,5.486691952886887
6.0298660754486395,-4.080170075086484,-0.7901411054339406,5.808730952741302
5.989064374697775,-4.283436164298383,-0.7320537959065275,6.1381676831169605
5.946230013054791,-4.48070352741945,-0.670672119075358,6.460129347765781
5.901422977780596,-4.6537220914957445,-0.6060708255977001,6.750273622297708
5.854885756865639,-4.7773312942503185,-0.538568089374723,6.97478358857359
5.807112443923136,-4.8238216498801725,-0.4688202534889871,7.096372007152954
5.758874227424334,-4.772937780256385,-0.3978565334174575,7.088081608585867
5.71114484962177,-4.62300383460514,-0.32697571733159886,6.948583463075535
5.664914811275719,-4.393497375484315,-0.2574898827008435,6.705557009721811
5.620979837520876,-4.115412858051365,-0.1904343126036254,6.40219137528806
5.579825708940362,-3.81801015711849,-0.1264123988507448,6.078854527408321
5.541645607369177,-3.521585735598958,-0.06562385357666158,5.763253307317115
5.506429750013187,-3.2371979555708257,-0.007991320503490426,5.47023347099272
5.474057770457479,-2.9694039224928277,0.04671101420643677,5.205676070759706
5.444363731232551,-2.7190402076914983,0.09876777491403384,4.9703834988257025
5.417173329155636,-2.4851199868378977,0.14847160990229086,4.762702727110826
5.392322129287257,-2.265917393629665,0.19609863717339912,4.580008538420105
5.369662955350961,-2.0595242661113176,0.24189872255760017,4.419454019501508
5.349067712689847,-1.8641104321208988,0.28609326275261526,4.2783129515716425
5.330426608368638,-1.6780301000705202,0.3288763922683317,4.154112500553419
5.313646307367933,-1.4998529299663999,0.3704175172738659,4.0446647122440655
5.298647778068269,-1.32836063003661,0.4108641643963066,3.948052767394893
5.285364171767903,-1.1625294951683092,0.4503446920702555,3.8625997086142845
5.27373887681622,-1.0015087020690217,0.48897068915639835,3.7868328088549066
5.26372378979553,-0.8445988143796862,0.5268390172449474,3.719449464103033
5.255277801651733,-0.6912322986228232,0.5640335118859777,3.6592869308414078
5.248365478665505,-0.540956577310979,0.6006263811943918,3.605296545318079
5.242955912892396,-0.39341956306549863,0.6366793466475726,3.5565223111517574
5.239021717261741,-0.2483573778588717,0.6722445697590902,3.512083445547755
5.236538143483152,-0.1055838877596485,0.7073654042145677,3.471160391818813
5.235482304605555,0.03501831287278806,0.7420770081327559,3.4329838173266505
5.2358324877342834,0.17350579687354117,0.7764068463060224,3.3968261629039165
5.237567545703019,0.30988135959532165,0.8103751079350616,3.3619953647077936
5.240666359298972,0.4441004631703775,0.8439950615821395,3.3278304202547218
5.245107363930676,0.5760772500774287,0.8772733657846867,3.2936985127785716
5.25086813643145,0.7056902617609345,0.9102103509124725,3.2589934414942427
5.257925039049059,0.8327879582085588,0.9428002853274149,3.2231351310320933
5.266252918631145,0.9571940995717029,0.9750316366377358,3.185570013139476
5.275824859626862,1.078713021248705,1.0068873367691307,3.145772089786322
5.286611989839349,1.1971348094657066,1.038345057666994,3.103244500978505
5.298583337934006,1.3122403653886898,1.069377502676779,3.057521434464168
5.311705741587893,1.4238063321996575,1.0999527170214205,3.0081702292628894
5.3259438049098895,1.531609851228994,1.1300344193140495,2.9547935412013877
5.34125990342218,1.6354331097918489,1.1595823547260633,2.8970314565290067
5.357614234520098,1.7350676442111825,1.1885526692913533,2.834563458849486
5.37496491096221,1.8303183657563546,1.2168983038798482,2.7671101742706536
5.393268094619773,1.9210072838125012,1.2445694056225547,2.6944348387812735
5.412478167457898,2.0069769083304343,1.2715137540103674,2.6163444492232975
5.432547936541202,2.088093321286744,1.2976771985026003,2.532690573689031
5.45342886975407,2.1642489134187084,1.3230041042394907,2.443369807800661
5.475071358888258,2.2353647870294986,1.3474378023174973,2.3483238695517312
5.497425006758553,2.3013928276577325,1.3709210410130146,2.2475393271053137
5.52043893503513,2.362317446739929,1.3933964342840677,2.141046951574772
5.544062109502529,2.4181569943519765,1.4148069037998154,2.0289206812958445
5.568243679446049,2.4689648363766636,1.435096110612774,1.9112761768051976
5.592933327809815,2.5148300850094905,1.454208872380826,1.7882689383421797
5.61808162865991,2.555877966591917,1.4720915617642478,1.6600919519747608
5.64364040832583,2.592269807620227,1.4886924812839955,1.526972828107962
5.669563106402032,2.6242026195928676,1.503962209565075,1.38917039853699
5.695805132597961,2.6519082670488885,1.517853913550445,1.246970746213924
5.72232421526845,2.6756522112439503,1.5303236210125841,1.1006826556896858
5.749080737380889,2.6957318344501675,1.541330447569481,0.9506324911975291
5.77603805572539,2.712474366365515,1.5508367724814562,0.7971585322298264
5.803162799389045,2.726234453587572,1.5588083578037546,0.6406048212387355
5.830425143924921,2.7373914341436554,1.565214406016142,0.4813146023088518
5.857799058266357,2.7463464000145152,1.5700275520392304,0.31962345064884756
5.885262522266502,2.7535191497171385,1.5732237865457188,0.15585220797367577
5.912797713763673,2.7593451487458114,1.5747823086254555,-0.009700153851012555
5.940391165251132,2.7642726267743987,1.5746853070869453,-0.17676362064071738
5.968033891518876,2.7687599462561083,1.5729176708805381,-0.34510406710452635
5.9957214909814365,2.773273377255637,1.5694666302094928,-0.5145299453009136
6.023454224753993,2.7782854084223096,1.5643213307564836,-0.6848986748223191
6.051237078838216,2.7842737148549865,1.5574723440082605,-0.8561227166233383
6.079079815986766,2.791720891424109,1.548911116842027,-1.0281753542463548
6.106997024901007,2.8011150461729626,1.5386293632995636,-1.2010962496935753
6.135008175362737,2.8129513337423484,1.5266184008026278,-1.3749968833400363
6.16313768870016,2.827734493738455,1.5128684319692274,-1.550066024756217
6.191415033637544,2.8459824428371134,1.4973677717216651,-1.7265754101272952
6.219874858065915,2.8682309495667644,1.4801020176203923,-1.9048858166861395
6.248557167561583,2.895039391530995,1.461053159453531,-2.0854537168592975
6.277507561476893,2.926997545895611,1.4401986222849381,-2.2688386507817078
6.30677753693585,2.9647332769337202,1.417510235777121,-2.4557113516372318
6.336424869705187,3.008920827733762,1.3929531222607487,-2.646862452610413
6.366514077982525,3.0602891429631844,1.3664844977346446,-2.8432112254788198
6.397116969412156,3.1196291541924928,1.3380523854798565,-3.0458131254265823
6.428313260954082,3.187798093224316,1.3075942542255907,-3.2558637324445856
6.460191241886325,3.265717399944129,1.275035616901145,-3.474694626132455
6.492848415885766,3.3543582231185494,1.2402886706398204,-3.703753204065204
6.526391998116952,3.454704168258642,1.2032511385991684,-3.9445524705486266
6.560939039799538,3.5676737385524167,1.163805613893682,-4.198566861841537
6.596615777185062,3.693973345356301,1.1218199452752666,-4.467034127826594
6.633555510638625,3.8338343046771484,1.0771496039970008,-4.750598974157357
6.671893853685397,3.986564056659645,1.0296436142554273,-5.0487017091890465
6.711759494251993,4.149820217255496,0.9791565971635368,-5.358584469616841
6.753257696424548,4.31852382675041,0.9255707524673683,-5.673797225263067
6.796442934692052,4.483438842547276,0.8688327802147376,-5.98223795676613
6.841277323117525,4.629797685886836,0.8090104006470763,-6.264250264357299
6.887575299976393,4.737069213025879,0.7463678980035033,-6.492297620913299
6.934945992106652,4.78174184728733,0.6814449217943703,-6.634813143114739
6.982763410579525,4.744436830236507,0.615096790363223,-6.666042639069331
7.03020777888189,4.619052471823602,0.5484363639725296,-6.578661275241888
7.076398303600127,4.417178164178371,0.4826497512201107,-6.389755460950156
7.12057008524191,4.1630067219829545,0.41875219661060914,-6.133601653614048
7.16220015246174,3.8828089401499915,0.3574161800744687,-5.846998018115085
7.20102824186324,3.597061320833553,0.29894619989331783,-5.558414096100121
7.236998855071575,3.318321842614405,0.24336205893231663,-5.285174758168
7.270182073497719,3.0527185946973066,0.19051031135063662,-5.035631525851287
7.300709259444692,2.8022843513698654,0.14015399609212376,-4.812456925708344
7.328732102958391,2.566825292329692,0.09202942683504031,-4.61525454883855
7.354400355881688,2.345102763962688,0.04587688134665481,-4.442196524973163
7.377851383521315,2.135492068649284,0.0014549160969231853,-4.290928077437374
7.399206304207808,1.9363184171012144,-0.041454364677450554,-4.159022702803906
7.41856948837882,1.7460130127524207,-0.08304459170548961,-4.044188575231673
7.436029618506344,1.5631751091025194,-0.12348647745780635,-3.9443458567786083
7.451661369597369,1.3865875349576957,-0.16292993602559241,-3.8576407685230043
7.465527244946946,1.2152107635786151,-0.20150634371082246,-3.7824310037209563
7.477679352582732,1.0481683063128397,-0.23933065374803203,-3.7172600102395257
7.48816103564586,0.8847296948642691,-0.2765032538504273,-3.660828686906642
7.497008332594503,0.7242939392406454,-0.3131115407194937,-3.611968418361702
7.504251271986909,0.5663746341615604,-0.3492312249031107,-3.5696170515235797
7.509915018328525,0.4105870403962487,-0.38492739541834653,-3.5327982873936
7.514020888732487,0.25663706905742156,-0.42025537829228254,-3.500604442017336
7.516587259423061,0.10431192651326154,-0.4552614227124559,-3.4721823162436385
7.517630378688194,-0.046527878866812034,-0.4899832458748923,-3.446721848085462
7.517165099899526,-0.1959554682223685,-0.5244504643557469,-3.4234472231748896
7.515205545217302,-0.34398373806516214,-0.5586849365874959,-3.4016101470988214
7.511765707836651,-0.4905709621133874,-0.5927010380584841,-3.3804850181882453
