th1 (rad),w1 (rad/s),th2 (rad),w2 (rad/s),a1 (rad/s^2),a2 (rad/s^2)
3.307142935501124,-1.847164045720564,3.452717420566731,0.8196715795775009,0.831328799807364,1.6825845934229429
3.288671295043918,-1.8388507577224904,3.460914136362506,0.8364974255117303,0.517144972869794,1.987405388994961
3.270282787466693,-1.8336793079937925,3.4692791106176233,0.8563714794016799,0.21173155459238485,2.281916772466324
3.2519459943867552,-1.8315619924478688,3.4778428254116402,0.8791906471263431,-0.08322939272118661,2.563251487882371
3.2336303744622765,-1.8323942863750806,3.4866347318829036,0.9048231620051668,-0.3662045121694193,2.8287909730734295
3.215306431598526,-1.8360563314967748,3.495682963502955,0.933111071735901,-0.6358149720380162,3.0761691764443237
3.196945868283558,-1.842414481217155,3.505014074220314,0.9638727635003442,-0.8908465063714637,3.3032821844029505
3.1785217234713863,-1.8513229462808696,3.5146528018553176,0.9969055853443738,-1.1302633317241582,3.5083031574887245
3.1600084940085775,-1.8626255795981113,3.524621857708761,1.0319886169192611,-1.3532249376337944,3.6897011305274554
3.1413822382125964,-1.8761578289744492,3.534941743877954,1.0688856282245356,-1.5591042176709253,3.8462614763401297
3.122620659922852,-1.8917488711511583,3.545630600160199,1.1073482429879369,-1.747505045775917,3.9771053219100017
3.10370317121134,-1.9092239216089175,3.556704082590078,1.147119296207037,-1.9182772436499698,4.081704988370351
3.084610931995251,-1.9284066940454172,3.5681752755521488,1.1879363460907404,-2.0715269502751057,4.159892629674275
3.0653268650547965,-1.9491219635481682,3.5800546390130563,1.229535272387483,-2.207620694589468,4.211859667556273
3.0458356454193147,-1.9711981704940629,3.5923499917369313,1.271653869063046,-2.327181961764079,4.238145324183539
3.0261236637143742,-1.9944699901117036,3.6050665304275618,1.3140353223048813,-2.431079681003024,4.239613463477051
3.006178963813257,-2.018780786921734,3.6182068836506107,1.3564314569396518,-2.520408775346651,4.2174179621342995
2.9859911559440397,-2.0439848746752007,3.631771198220007,1.398605636560995,-2.5964636167861763,4.1729578205564435
2.9655513071972877,-2.0699495108430623,3.645757254585617,1.4403352147665593,-2.660705839451168,4.107824073373798
2.944851812088857,-2.096556569237574,3.6601606067332826,1.4814134555002973,-2.714728410667332,4.023741171879429
2.923886246396481,-2.123703853344247,3.6749747412882856,1.5216508672190916,-2.7602181006566977,3.9225058259733454
2.9026492078630386,-2.151306034350814,3.6901912499604763,1.5608759254788251,-2.7989185140318718,3.8059262953240056
2.8811361475195305,-2.179295219491133,3.7058000092152645,1.5989351884320653,-2.832595668172676,3.675764836165016
2.859343195324619,-2.20762117617286,3.721789361099585,1.6356928367937154,-2.863007767879775,3.533685504078139
2.8372669835628903,-2.2362512538516577,3.7381462894675224,1.6710296918344967,-2.8918803900862042,3.3812088676436
2.8149044710243736,-2.2651700577525196,3.754856586385867,1.7048417805109326,-2.920887818493435,3.2196744914178326
2.7922527704468485,-2.294378935937454,3.7719050041909763,1.7370385254251108,-2.9516408115049106,3.0502113789823153
2.769308981087474,-2.3238953440525028,3.7892753894452276,1.767540639214934,-2.9856806906442652,2.8737159889646824
2.746070027646949,-2.3537521509589454,3.806950795837377,1.7962777991045809,-3.0244793274569868,2.6908369871169957
2.7225325061373598,-2.383996944233515,3.8249135738284226,1.823186168975751,-3.069444395171151,2.501965591150298
2.6986925366950247,-2.4146913881852266,3.84314543551818,1.848205824887254,-3.1219291338271296,2.3072301985421206
2.6745456228131723,-2.445910679523498,3.8616274937670525,1.8712781268726753,-3.183245840879892,2.106493944255717
2.650086516017937,-2.477743137932297,3.8803402750357794,1.8923430663152325,-3.2546823242013754,1.8993538915738113
2.6253090846386145,-2.5102899611743106,3.8992637056989317,1.9113366052309706,-3.3375206193453937,1.6851406899930812
2.600206185026871,-2.5436651673677644,3.9183770717512414,1.9281880121309014,-3.4330573564454716,1.4629177172206176
2.5747695333531935,-2.577995740932219,3.9376589518725504,1.9428171893031077,-3.5426252443974833,1.2314789415273628
2.5489895759438714,-2.613421993376194,3.9570871237655814,1.9551319787183812,-3.66761520329261,0.9893449874827334
2.5228553560101097,-2.65009814540912,3.976638443552765,1.9650254285932085,-3.8094987042992123,0.7347571624686748
2.4963543745560184,-2.6881931324521124,3.9962886978386973,1.9723730002178952,-3.969849853811147,0.4656695125313582
2.4694724432314974,-2.727891630990224,4.016012427840876,1.9770296953432087,-4.1503666692594505,0.1797393428520775
2.4421935269215953,-2.7693952976828187,4.035782724794308,1.9788270887717294,-4.352890818487703,-0.1256829105369906
2.414499573944767,-2.8129242058676955,4.055570995682026,1.9775702596663596,-4.579424809536547,-0.4535629948178356
2.38637033188609,-2.858718453963061,4.07534669827869,1.973034629718181,-4.832145193349492,-0.8071891228079774
2.3577831473464594,-2.907039905896556,4.095077044575872,1.9649627384901014,-5.113409740818599,-1.1901720064887453
2.328712748287494,-2.9581740033047423,4.1147266719607725,1.953061018425214,-5.425755731658877,-1.6064340968173745
2.2991310082544465,-3.012431560621331,4.1342572821450245,1.9369966774570402,-5.771885391769967,-2.060181732991818
2.269006692648233,-3.0701504145390306,4.153627248919595,1.916394860127122,-6.154633079306379,-2.5558516214601035
2.2383051885028427,-3.1316967453320945,4.1727911975208665,1.8908363439125209,-6.5769069925144725,-3.0980201467538624
2.2069882210495217,-3.1974658152572393,4.191699560959992,1.8598561424449822,-7.041595919412055,-3.691260384376509
2.1750135628969494,-3.26788177445136,4.210298122384442,1.8229435386012172,-7.551428885032176,-4.3399273328741605
2.1423347451524357,-3.343396063301682,4.228527557770454,1.7795442652724756,-8.108772589324676,-5.047846946556753
2.108900784519419,-3.424483789194929,4.246323000423179,1.729065795806908,-8.715348556033696,-5.817879436978024
2.0746559466274697,-3.511637274755266,4.2636136583812485,1.6708870014371278,-9.371849503510862,-6.651322868034608
2.039539573879917,-3.6053557697903744,4.28032252839562,1.6043737727567817,-10.077433606826883,-7.5471208258763145
2.003486016182013,-3.706130105858643,4.296366266123187,1.5289025644980185,-10.82907764725979,-8.500840394745042
1.9664247151234266,-3.814420882331241,4.311655291768168,1.4438941605505682,-11.620777875163816,-9.503397532141502
1.9282805063001143,-3.930628661082879,4.326094233373674,1.348860185229153,-12.44260382210976,-10.539531237908403
1.8889742196892856,-4.055054699303977,4.339582835225965,1.243464872850069,-13.279638800697796,-11.586071607848288
1.8484236726962457,-4.187851087310954,4.352017483954466,1.1276041567715862,-14.110884489996408,-12.610115569156584
1.8065451618231363,-4.3289599322109185,4.363293525522182,1.0015030010800203,-14.908266690069146,-13.567320429092389
1.763255562501027,-4.4780425991116095,4.373308555532982,0.8658297967890964,-15.63595098778926,-14.400644605003707
1.718475136509911,-4.6344021089895024,4.381966853500873,0.7218233507390593,-16.250248445430696,-15.039989415631135
1.6721311154200158,-4.796904593443809,4.389185087008263,0.571423456582748,-16.70043959607737,-15.403290293204897
1.6241620694855776,-4.963908989404583,4.394899321574091,0.417390553650699,-16.93083751608347,-15.399617295554197
1.5745229795915319,-5.133217364565418,4.3990732271105975,0.263394380695157,-16.88431320682908,-14.934713032240085
1.5231908059458776,-5.302060496633708,4.401707170917549,0.11404725037275618,-16.507298574748,-13.91907706823302
1.4701702009795405,-5.467133482381189,4.402847643421276,-0.025143520309574036,-15.755977463735194,-12.278204853824123
1.4154988661557286,-5.62469325701854,4.40259620821818,-0.14792556884781527,-14.603033566172435,-9.963987161414048
1.3592519335855433,-5.770723592680265,4.401116952529702,-0.24756544046195575,-13.044042890671207,-6.965725323309674
1.3015446976587406,-5.901164021586977,4.398641298125082,-0.3172226936950525,-11.102474557684594,-3.3188935671332094
1.2425330574428708,-6.012188767163823,4.395469071188132,-0.3504116293663846,-8.832343095124143,0.8901962453373065
1.1824111697712325,-6.100512198115065,4.391964954894468,-0.34150966691301154,-6.31780691347727,5.525288504210559
1.1214060477900818,-6.163690267249837,4.388549858225338,-0.286256781870906,-3.669349908663865,10.407438216777164
1.0597691451175835,-6.200383766336476,4.385687290406629,-0.18218239970313432,-1.0165543539433615,15.328594369412528
0.9977653074542188,-6.210549309875909,4.383865466409598,-0.02889645600900903,1.5021157765086353,20.070522889383927
0.9356598143554596,-6.195528152110823,4.383576501849508,0.17180877288483024,3.751594649292968,24.427022777398946
0.8737045328343515,-6.158012205617894,4.385294589578357,0.4160790006588197,5.613033881432529,28.226361508990355
0.8121244107781725,-6.101881866803568,4.389455379584945,0.6983426157487232,6.995121600514032,31.350194458282374
0.7511055921101368,-6.031930650798428,4.396438805742432,1.011844560331547,7.841738688648482,33.745400536249356
0.6907862856021526,-5.953513263911943,4.406557251345747,1.3492985656940406,8.134322088583446,35.42654949607238
0.6312511529630331,-5.872170043026109,4.4200502370026875,1.7035640606547644,7.888466732822811,36.46890388792197
0.5725294525327721,-5.793285375697881,4.437085877609235,2.068253099533984,7.1456961217609045,36.994203109592064
0.5145965987757933,-5.721828414480272,4.457768408604575,2.4381951306299046,5.962398264925861,37.15306264598155
0.4573783146309906,-5.662204431831013,4.482150359910873,2.80972575708972,4.398249776059892,37.10809627893882
0.40075627031268046,-5.618221934070414,4.51024761748177,3.1808067198791083,2.506009661123869,37.02093342360372
0.3445740509719763,-5.593161837459175,4.5420556846805615,3.5510160541151454,0.3236666917258515,37.04476310016684
0.28864243259738454,-5.589925170541917,4.577565845221713,3.9214636851168136,-2.1310148678190215,37.32258770874474
0.23274318089196538,-5.611235319220107,4.6167804820728815,4.294689562204261,-4.864190875998666,37.990453528530885
0.17663082769976432,-5.659877227980093,4.659727377694924,4.67459409748957,-7.908844400015486,39.18461825298654
0.1200320554199634,-5.738965671980248,4.70647331866982,5.066440280019435,-11.32788354933757,41.05172167381939
0.06264239870016092,-5.852244507473624,4.757137721470015,5.476957496757629,-15.218121841967339,43.761179288000726
0.00411995362542468,-6.004425725893297,4.811907296437591,5.914569289637637,-19.715072783694406,47.51864078765106
-0.05592430363350829,-6.201576453730241,4.871052989333967,6.389755697514147,-24.996528435431145,52.57724322419638
-0.11794006817081071,-6.451541738084552,4.934950546309109,6.915528129756111,-31.27756676361784,59.23647576719686
-0.18245548555165625,-6.764317405720731,5.00410582760667,7.5078928874280795,-38.775001169599996,67.79849247909434
-0.25009865960886357,-7.152067417416731,5.079184756480951,8.185877812219022,-47.57974590267035,78.39689466929701
-0.32161933378303087,-7.627864876443435,5.161043534603142,8.969846758911993,-57.274819362421084,90.47243993665968
-0.3978979825474652,-8.200613070067647,5.250742002192261,9.87457115827859,-65.92368865045363,101.37150174493205
-0.4799041132481417,-8.859849956572182,5.349487713775047,10.88828617572791,-67.88550549445826,103.30368858461891
-0.5685026128138635,-9.538705011516765,5.458370575532326,11.921323061574098,-51.44573128889661,80.02894324238495
-0.6638896629290312,-10.053162324405731,5.577583806148067,12.721612493997947,-5.2228100918293086,15.787916401927154
-0.7644212861730885,-10.105390425324025,5.704799931088047,12.87949165801722,55.64163759484633,-68.21255004142529
-0.8654751904263287,-9.54897404937556,5.833594847668219,12.197366157602966,90.12136331090318,-115.01814202827919
-0.9609649309200843,-8.647760416266529,5.955568509244249,11.047184737320174,89.92967411230812,-113.59486834631792
-1.0474425350827496,-7.748463675143448,6.06604035661745,9.911236053856996,76.3568871709261,-93.71979382174781
-1.1249271718341842,-6.984894803434187,6.16515271715602,8.974038115639518,62.51538511043952,-73.49477343442902
-1.194776119868526,-6.359740952329792,6.254893098312415,8.239090381295227,51.5698932380314,-57.19492865391641
-1.258373529391824,-5.8440420199494785,6.337284002125368,7.667141094756063,43.445795452985315,-44.6482164670495
-1.3168139495913187,-5.409584065419625,6.413955413072928,7.220658930085569,37.50332918244137,-34.92883646341855
-1.370909790245515,-5.034550773595211,6.486162002373784,6.871370565451383,33.17057091314506,-27.219619206510526
-1.421255297981467,-4.7028450644637605,6.554875708028298,6.599174373386278,30.028242712303943,-20.92307410750065
-1.4682837486261047,-4.402562637340721,6.620867451762161,6.3899436323112715,27.782234695008547,-15.622320127129155
-1.5123093749995118,-4.124740290390636,6.6847668880852735,6.23372043103998,26.225178985629608,-11.030247901133553
-1.553556777903418,-3.86248850053434,6.7471040923956735,6.123417952028644,25.205692160029276,-6.9519731627342125
-1.5921816629087615,-3.6104315789340475,6.80833827191596,6.053898220401302,24.605740447949447,-3.261131787351609
-1.6282859786981019,-3.3643741744545532,6.868877254119973,6.021286902527786,24.323642318275663,0.1133808814783808
-1.6619297204426473,-3.1211377512717964,6.929090123145251,6.022420711342569,24.260610191373207,3.193458640123114
-1.6931410979553654,-2.8785316493580644,6.989314330258677,6.0543552977438,24.309772409815867,5.95342101199729
-1.7219264144489461,-2.6354339252599055,7.049857883236115,6.113889507863774,24.347843042291114,8.320184409051455
-1.7482807537015452,-2.3919554948369943,7.110996778314752,6.197091351954288,24.23098506946646,10.175709911629205
-1.7722003086499152,-2.1496456441423297,7.1729676918342955,6.2988484510705804,23.79776081370885,11.366545214991412
-1.7936967650913385,-1.9116680360052412,7.2359561763450015,6.4125139032204945,22.88273030326008,11.725650315623465
-1.812813445451391,-1.6828407329726405,7.300081315377207,6.529770406376729,21.343004223736862,11.109674935849027
-1.8296418527811174,-1.4694106907352718,7.365379019440974,6.6408671557352195,19.09555698761412,9.448729532618573
-1.84433595968847,-1.2784551208591306,7.431787690998326,6.735354451061405,16.155499388424843,6.79576813488852
-1.8571205108970614,-1.1169001269748822,7.49914123550894,6.803312132410291,12.658397243112896,3.353812701525206
-1.8682895121668102,-0.9903161545437532,7.567174356833043,6.8368502594255425,8.849895635281399,-0.5398190604219323
-1.8781926737122476,-0.9018171981909392,7.635542859427298,6.831452068821323,5.038087550700108,-4.476704372453846
-1.887210845694157,-0.8514363226839381,7.703857380115512,6.7866850250967845,1.5235601629575568,-8.067234669975303
-1.8957252089209964,-0.8362007210543625,7.7717242303664795,6.706012678397031,-1.4648916709182969,-11.020810471349652
-1.90408721613154,-0.8508496377635455,7.83878435715045,6.595804573683535,-3.8049682732871872,-13.186535751352086
-1.9125957125091755,-0.8888993204964174,7.904742402887285,6.463939216170014,-5.479581272563924,-14.547868521794864
-1.9214847057141398,-0.9436951332220567,7.969381795048985,6.318460530952065,-6.550176347654368,-15.18609233661872
-1.9309216570463603,-1.0091968966986005,8.032566400358506,6.166599607585878,-7.121578115190357,-15.234589616887233
-1.9410136260133464,-1.080412677850504,8.094232396434366,6.014253711417006,-7.311461615899935,-14.840240494451049
-1.9518177527918514,-1.1535272940095034,8.154374933548537,5.8658513064724955,-7.2301024071623345,-14.138500144040552
-1.9633530257319465,-1.2258283180811267,8.213033446613261,5.72446630503209,-6.970235106806651,-13.241417549129354
-1.9756113089127578,-1.2955306691491932,8.270278109663582,5.592052129540797,-6.604205260129904,-12.23474211117982
-1.9885666156042499,-1.3615727217504923,8.32619863095899,5.469704708428998,-6.185306254888772,-11.18009219812897
-2.002182342821755,-1.42342578429938,8.380895678043279,5.357903786447708,-5.7509466288530975,-10.119224413503295
-2.0164166006647486,-1.480935250587911,8.434474715907756,5.256711542312675,-5.3262138843976565,-9.078647154082244
-2.031225953170628,-1.5341973894318874,8.487041831330883,5.165925070771852,-4.92711802514158,-8.073730262895928
-2.0465679270649466,-1.5834685696833033,8.538701082038601,5.085187768142893,-4.563247550249644,-7.112017897169103
-2.0624026127617796,-1.6291010451857997,8.58955295972003,5.014067589171201,-4.239809298622638,-6.195738705565895
-2.0786936232136375,-1.671499138172026,8.639693635611742,4.952110202115542,-3.959128222764265,-5.323628170143122
-2.0954086145953577,-1.7110904203996689,8.689214737632897,4.898873920414111,-3.7217143858654733,-4.492209910918695
-2.1125195187993544,-1.7483075642583237,8.738203476837038,4.853951821304924,-3.5270007432589616,-3.696674024325322
-2.1300025944419376,-1.7835775716909132,8.786742995050087,4.816985081061671,-3.3738380216664665,-2.931467414095321
-2.147838370158847,-1.8173159519075779,8.834912845860703,4.787670406920718,-3.260812801383841,-2.1906863215680548
-2.1660115296779225,-1.8499240799214163,8.88278954992991,4.765763543705037,-3.18643616161468,-1.4683402049366925
-2.1845107704771367,-1.881788441537563,8.93044718536696,4.75108014165567,-3.1492342474824295,-0.7585404509628125
-2.203328654892512,-1.9132807840123873,8.977957986783517,4.743494737146042,-3.1477586707102247,-0.05565728798610181
-2.2224614627326362,-1.9447583707194895,9.025392934154977,4.742938164266181,-3.1805229687041727,0.6455166038985587
-2.2419090464398312,-1.9765636004065312,9.072822315797639,4.749393330305167,-3.2458604274451894,1.349557215405221
-2.2616746824438967,-2.009022204680983,9.120316249100691,4.762888902459219,-3.3416874443847093,2.0601116065011573
-2.2817649044907067,-2.04243907912483,9.167945138125283,4.783490018524231,-3.4651444862258614,2.779458511645577
-2.302189295281955,-2.077090523987089,9.215780038310525,4.811284603640686,-3.6120733212807794,3.5078602202113696
-2.322960200521826,-2.1132112571998967,9.263892884346932,4.8463632058428,-3.776275533367087,4.2426225463105185
-2.344092313093825,-2.1509740125335677,9.31235651640536,4.888789431305905,-3.9484869556126534,4.976766315005517
-2.3656020532191606,-2.190458882089694,9.36124441071842,4.93855709445596,-4.1150045181609896,5.697215679703947
-2.3875066420400577,-2.231608927271304,9.41062998166298,4.995529251252999,-4.255934776206917,6.382451552818331
-2.409822731312771,-2.2741682750333734,9.46058527417551,5.059353766781182,-4.3431316208841,6.999710260671723
-2.432564414063105,-2.3175995912422143,9.511178811843322,5.1293508693879,-4.338109502749742,7.502104840825775
-2.455740409975527,-2.360980686269712,9.562472320537202,5.204371917796157,-4.1906263223022515,7.8266050369807205
-2.479350216838224,-2.4028869494927343,9.614516039715163,5.2826379681659645,-3.839263486007618,7.894685159977501
-2.5033790863331515,-2.4412795843528103,9.667342419396823,5.361584819765739,-3.216068840867457,7.618473727933514
-2.52779188217668,-2.473440272761485,9.72095826759448,5.437769557045074,-2.2576675400103037,6.915722420878502
-2.5525262849042947,-2.496016948161588,9.775335963164931,5.50692678125386,-0.9241122550515991,5.735369824783866
-2.5774864543859106,-2.5052580707121037,9.830405230977469,5.564280479501699,0.7771407150707681,4.090136872037133
-2.6025390350930317,-2.497486663561396,9.886048035772486,5.60518184822207,2.771205749969115,2.083695242458944
-2.6275139017286455,-2.469774606061705,9.942099854254707,5.626018800646659,4.913741083557154,-0.08686606327345038
-2.6522116477892625,-2.4206371952261336,9.998360042261174,5.6251501400139245,7.0170704780878,-2.167087879224014
-2.676418019741524,-2.3504664904452555,10.054611543661313,5.603479261221684,8.89894750371776,-3.9118674033306426
-2.6999226846459763,-2.2614770154080777,10.110646336273529,5.564360587188378,10.43140322091055,-5.151658017019418
-2.722537454800057,-2.157162983198972,10.166289942145413,5.512844007018184,11.565533366573979,-5.825122978075752
