th1 (rad),w1 (rad/s),th2 (rad),w2 (rad/s)
2.2730038494803484,2.1503839885935836,2.946589617617819,-1.3956645591917431
2.2945076893662844,2.0783294089213733,2.9326329720259015,-1.387181951577571
2.315290983455498,2.0056905566578234,2.918761152510126,-1.3748973421610784
2.335347889022076,1.9324809045249782,2.905012179088515,-1.3591053206913701
2.3546726980673256,1.8587446163148986,2.891421125881601,-1.3401244346115049
2.3732601442304744,1.7845551973632305,2.878019881535486,-1.3182963093280082
2.391105696204107,1.7100130573995973,2.864836918442206,-1.293983179636491
2.408205826778103,1.6352420306563311,2.851897086645841,-1.2675639056172003
2.4245582470846663,1.560384985260931,2.8392214475896687,-1.2394286699486483
2.4401620969372755,1.4855987338403907,2.8268271608901823,-1.2099726658595111
2.4550180842756792,1.411048518595313,2.814727434231587,-1.1795891700335406
2.4691285694616325,1.3369023780098357,2.8029315425312515,-1.1486624404511492
2.482497593241731,1.263325704330274,2.7914449181267402,-1.1175608793031706
2.4951308502850336,1.1904762716623123,2.7802693093337085,-1.086630857028427
2.5070356130016567,1.1184999595825982,2.769403000763424,-1.0561915133713489
2.518220612597483,1.047527325607795,2.7588410856297108,-1.0265307481745176
2.5286958858535606,0.9776711022548805,2.7485757781479654,-0.99790250346101
2.5384725968761095,0.9090246207020242,2.7385967531133555,-0.970525333336764
2.5475628430831296,0.8416611009492123,2.728891499779988,-0.944582170263068
2.555979454092622,0.7756337025401249,2.7194456780773573,-0.9202211318190108
2.5637357911180234,0.7109762018504411,2.710243466759167,-0.8975571732059053
2.570845553136528,0.6477041505588481,2.701267895027108,-0.8766743757270893
2.5773225946421165,0.5858163723136111,2.692501151269837,-0.8576286660963256
2.583180758365253,0.525296667051606,2.683924864608874,-0.8404507802815477
2.588433725035769,0.46611561109664534,2.6755203568060586,-0.8251493131802391
2.5930948811467354,0.40823236268962904,2.667268863674256,-0.8117137269170981
2.5971772047736317,0.3515964043503037,2.659151726405085,-0.8001172221901278
2.6006931688171346,0.2961491736172516,2.6511505541831837,-0.7903194062758762
2.6036546605533073,0.24182555118384924,2.6432473601204247,-0.7822687165198347
2.6060729160651457,0.18855518977263375,2.635424672955226,-0.7759045787330162
2.607958467962872,0.13626367823641322,2.627665627167896,-0.771159295866835
2.609321104745236,0.08487354359099528,2.619954034209228,-0.7679596740240323
2.610169840181146,0.03430509937412031,2.6122744374689875,-0.7662284008789916
2.610512891174887,-0.015522847651573808,2.6046121534601974,-0.7658851966021255
2.6103576626983713,-0.06469241842239248,2.596953301494176,-0.7668477600750241
2.6097107385141474,-0.11328619528432655,2.5892848238934256,-0.7690325341462374
2.608577876561304,-0.16138685369064892,2.581594498551963,-0.7723553134224215
2.606964008024397,-0.20907687769291447,2.573870945417739,-0.7767317170298875
2.604873239247468,-0.25643834598428417,2.5661036282474403,-0.7820775472394039
2.602308855787625,-0.3035527763866208,2.5582828527750463,-0.7883090530637811
2.599273328023759,-0.3505010178659502,2.5503997622444086,-0.7953431160875765
2.5957683178450996,-0.3973631803318452,2.542446331083533,-0.8030973739919334
2.5917946860417813,-0.44421859357045773,2.534415357343614,-0.811490295574812
2.5873525001060766,-0.49114578764455036,2.526300454387866,-0.8204412195869728
2.582441042229631,-0.5382224879481031,2.5180960421919965,-0.8298703684346201
2.5770588173501503,-0.5855256188192027,2.50979733850765,-0.839698846753344
2.5712035611619584,-0.6331313101908373,2.5014003500401167,-0.8498486340380085
2.56487224806005,-0.6811149021967217,2.4929018636997364,-0.8602425799167916
2.558061099038083,-0.7295509429521871,2.4842994379005687,-0.8708044102788501
2.5507655896085613,-0.7785131749030806,2.4755913937977803,-0.8814587522968436
2.5429804578595303,-0.8280745051830611,2.4667768062748117,-0.8921311864203274
2.5346997128077,-0.8783069553458284,2.4578554944106084,-0.9027483336463992
2.5259166432542415,-0.9292815856473382,2.4488280110741445,-0.9132379867925642
2.516623827397768,-0.9810683887475169,2.439695631206219,-0.9235292950955427
2.506813143510293,-1.0337361472853583,2.4304603382552634,-0.9335530122288385
2.4964757820374395,-1.0873522492609955,2.421124808132975,-0.9432418187580154
2.4856022595448297,-1.1419824545416006,2.411692389945395,-0.9525307311165544
2.4741824349994137,-1.197690605107674,2.4021670826342296,-0.9613576103586221
2.462205528948337,-1.254538270892492,2.3925535065306436,-0.9696637851866411
2.4496601462394123,-1.3125843222705589,2.382856868678777,-0.9773948050014561
2.436534303016707,-1.3718844194655058,2.3730829206287627,-0.9845013398966677
2.422815458822052,-1.4324904084377756,2.363237907229796,-0.990940245499489
2.408490554737674,-1.4944496122661999,2.353328504774801,-0.996675811190126
2.393546058615012,-1.5578040067749341,2.3433617466628998,-1.0016812103008674
2.377968018547263,-1.6225892693357586,2.333344934559891,-1.005940170134228
2.3617421258539055,-1.688833690597085,2.3232855328585487,-1.009448877705488
2.3448537889479346,-1.7565569406053316,2.313191044081494,-1.0122181335908822
2.3272882195418814,-1.8257686836911937,2.303068862745585,-1.0142757606534578
2.3090305327049694,-1.896467040935958,2.2929261051390504,-1.015669266162135
2.29006586229561,-1.9686369053821007,2.282769412477429,-1.0164687443131428
2.270379493241789,-2.042248123774926,2.272604725034298,-1.0167699908136187
2.2499570120040397,-2.1172535698291726,2.2624370251261614,-1.016697781493186
2.228784476305748,-2.193587147984175,2.2522700473112294,-1.01640924258241
2.206848604825906,-2.2711617832812667,2.2421059548854054,-1.0160972114281743
2.1841369869930936,-2.349867471931369,2.2319449827711235,-1.0159934536841528
2.16063831227378,-2.4295694873767193,2.221785048234282,-1.0163715679231788
2.1363426174000124,-2.510106856551279,2.2116213325550502,-1.0175493737270953
2.1112415488344998,-2.5912912381916926,2.2014458388177793,-1.0198905484040381
2.0853286364525827,-2.6729063462370184,2.1912469333337388,-1.0238052555981643
2.0585995729902127,-2.754708062740014,2.1810088807777572,-1.0297495022532457
2.0310524923628126,-2.8364253722113983,2.170711385755225,-1.0382229751802252
2.002688238640699,-2.917762219269077,2.1603291560034226,-1.0497651508287256
1.973510616448008,-2.9984003415501688,2.1498315044951353,-1.0649495458127844
1.9435266130325064,-3.0780030601629345,2.1391820090370075,-1.0843760817799364
1.9127465824308771,-3.156219924007723,2.128338248219208,-1.1086616717580327
1.8811843831908,-3.232692009556866,2.117251631501628,-1.1384292855818037
1.8488574630952312,-3.3070575854140163,2.10586733864581,-1.1742959029953108
1.8157868872410912,-3.3789577750026734,2.094124379615857,-1.21685989404831
1.7819973094910644,-3.4480418052074553,2.081955780675374,-1.26668845611726
1.7475168914389898,-3.513971425235216,2.0692888961142013,-1.3243057674448697
1.7123771771866376,-3.5764241243540775,2.0560458384397524,-1.3901824785589958
1.6766129359430968,-3.6350948678946415,2.0421440136541626,-1.4647270564214925
1.6402619872641504,-3.689696198352201,2.0274967430899475,-1.5482793346691177
1.6033650252806284,-3.7399566965525946,2.0120139497432565,-1.641106429666571
1.5659654583151024,-3.7856179473070917,1.9956028854465908,-1.743400984416578
1.5281092788420314,-3.8264302861363686,1.978168875602425,-1.8552815282879322
1.4898449759806678,-3.862147704141836,1.9596160603195456,-1.9767946117170005
1.4512234989392494,-3.892522349217037,1.9398481142023756,-2.107918303591251
1.412298275447079,-3.9172990829782552,1.918768931166463,-2.2485666262507005
1.3731252846172963,-3.9362105396155873,1.896283264903956,-2.398594540750935
1.3337631792211404,-3.948973094864582,1.8722973194964467,-2.5578031684015174
1.2942734482724947,-3.955284101572177,1.8467192878124317,-2.725945025629772
1.254720607256773,-3.954820693496159,1.819459837556134,-2.9027291397884007
1.2151724003218114,-3.9472404099236598,1.79043254615825,-3.0878259873874474
1.1756999962225747,-3.932183857233573,1.7595542862843756,-3.2808722398838963
1.136378157650239,-3.9092796048242766,1.7267455638855367,-3.481475304632967
1.0972853616019962,-3.878151516360841,1.691930810839207,-3.6892176005135586
1.0585038464383878,-3.838428748090253,1.6550386348340715,-3.903660399971106
1.0201195589574852,-3.789758710852965,1.6160020308343606,-4.124346891500549
0.9822219718489555,-3.731823401041416,1.5747585619193551,-4.350803856220399
0.9449037378385414,-3.6643596711171287,1.5312505233571512,-4.582540993238606
0.9082601411273701,-3.587184248174251,1.4854251134247651,-4.819046452069072
0.8723882986456276,-3.5002246353403588,1.4372346489040744,-5.059776517019362
0.8373860522922241,-3.403557454913297,1.3866368837338807,-5.30413662553095
0.8033504777430911,-3.297456302703329,1.3335955174785712,-5.551450000422279
0.7703759147160578,-3.1824517204091145,1.2780810174743484,-5.800909202496961
0.7385513975119666,-3.05940629899101,1.2200719254493788,-6.0515050537890485
0.7079573345220566,-2.9296078610378555,1.1595568749114884,-6.301927063290277
0.678661255911678,-2.7948824883612837,1.0965376042785857,-6.550430528224156
0.6507124310280652,-2.6577257643244065,1.0310332989963442,-6.794669318848805
0.6241351733848212,-2.5214433601685546,0.9630866058078562,-7.031502166899559
0.5989207397831356,-2.390279098513181,0.8927715841388606,-7.2567967290329545
0.5750179487980038,-2.2694887703810376,0.820203616848531,-7.465281549528861
0.5523230610941935,-2.165293606611474,0.7455508013532425,-7.650528708986363
0.5306701250280788,-2.084628509909908,0.6690455142633789,-7.805176702159513
0.5098238399289797,-2.034608265074768,0.5909937472417838,-7.921496277902281
0.48947775727823206,-2.0216975695100716,0.5117787844627609,-7.992325187682825
0.46926078158313134,-2.0506986930052835,0.4318555325859327,-8.012236133202022
0.4487537946530785,-2.123821685347751,0.35173317125391246,-7.978610186043515
0.42751557779960103,-2.2401720196594304,0.2719470693934773,-7.8922011451245675
0.4051138576030067,-2.395882047187659,0.19302505794223163,-7.756919512179148
0.38115503713113014,-2.5848502982592607,0.11545586282044014,-7.578901250755726
0.3553065341485375,-2.7998027906063223,0.039666850312882876,-7.365236759372364
0.3273085062424743,-3.033317119292634,-0.033985517280840774,-7.122810975736998
0.296975335049548,-3.278564251622382,-0.10521362703821076,-6.857542811441159
0.26418969253332414,-3.529703592278501,-0.17378905515262236,-6.57407573831672
0.22889265661053912,-3.7819964369561294,-0.23952981253578956,-6.275811870755931
0.19107269224097784,-4.031746764222282,-0.30228793124334885,-5.965136826228781
0.150755224598755,-4.2761637571605275,-0.36193929950563664,-5.643710649825288
0.10799358702714973,-4.513205967635615,-0.41837640600388953,-5.31274953293729
0.06286152735079358,-4.741435903377777,-0.4715039013332624,-4.973264824173472
0.0154471683170158,-4.959893305306358,-0.5212365495749971,-4.626252218650608
-0.03415176473604778,-5.16798444736326,-0.5674990717615032,-4.272837636422046
-0.08583160920968039,-5.365380132592467,-0.6102274481257236,-3.9143920349104793
-0.13948541053560506,-5.551913827653425,-0.6493713684748283,-3.5526290414380206
-0.1950045488121393,-5.727471843103854,-0.6848976588892085,-3.1896989217886884
-0.25227926724317784,-5.8918689386217595,-0.7167946481070954,-2.828290640230198
-0.3111979566293954,-6.044705383965621,-0.7450775545093974,-2.471750085609329
-0.37164501046905163,-6.185206281991299,-0.7697950553654906,-2.1242154133595954
-0.43349707328896464,-6.312052476782296,-0.7910372094990866,-1.7907575313846555
-0.4966175980567876,-6.423226481408172,-0.8089447848129332,-1.477492519421943
-0.5608498628708694,-6.515917257853373,-0.8237197100071526,-1.1916025845073328
-0.6260090354494031,-6.586550813201399,-0.835635735852226,-0.9411687320155021
-0.6918745435814171,-6.631027100151081,-0.845047423172381,-0.7347001947488637
-0.7581848145829279,-6.645224142089214,-0.8523944251198696,-0.5802772615622703
-0.82463705600382,-6.625751975807867,-0.8581971977354923,-0.4843424302115543
-0.8908945757618987,-6.570802935197104,-0.8630406220376079,-0.45037701372464145
-0.9566026051138697,-6.480813789150945,-0.8675443921748544,-0.4778931270332846
-1.0214107430053792,-6.358643140828858,-0.8723233234451871,-0.5621866394636581
-1.0849971744136677,-6.20914242364168,-0.8779451898398237,-0.6950345780804721
-1.1470885986500845,-6.038276839779429,-0.8848955356206284,-0.8661032749957961
-1.2074713670478787,-5.852139252451628,-0.8935565683705864,-1.0645483133259876
-1.265992759572395,-5.656175957845817,-0.9042020515038462,-1.2803144236649726
-1.3225545191508532,-5.454769724262327,-0.917005195740496,-1.5048978933019637
-1.3771022163934765,-5.251150376787485,-0.9320541746735156,-1.7315985870666404
-1.4296137201613515,-5.047516407564666,-0.949370160544182,-1.9554265411584748
-1.4800888842369981,-4.8452488740598145,-0.9689244259557668,-2.1728397278956075
-1.5285413729775963,-4.645136171915517,-0.9906528232347228,-2.3814390771063016
-1.5749927346967514,-4.447568424276597,-1.0144672140057858,-2.579688714339651
-1.6194684189395174,-4.252688130665842,-1.0402641011491822,-2.7666873659333837
-1.6619953002461758,-4.060498544742676,-1.067930974808516,-2.941993498718024
-1.7026002856936027,-3.870937136664505,-1.0973509097956962,-3.1054966417302587
-1.7413096570602478,-3.6839225872923653,-1.1284058762129987,-3.257324633159918
-1.7781488829331713,-3.4993828000038407,-1.1609791225445978,-3.397777219086663
-1.8131427109332097,-3.3172698612301126,-1.1949568947354645,-3.527278267869189
-1.8463154095455108,-3.137566378786032,-1.2302296774141563,-3.6463408086438767
-1.8776910733333712,-2.960286396160097,-1.2666930855005951,-3.7555407552687594
-1.9072939372949722,-2.7854731479632973,-1.3042484930532827,-3.8554964460207914
-1.9351486687746051,-2.6131952432302312,-1.3428034575134906,-3.94685204656001
-1.9612806212069074,-2.4435423803058365,-1.3822719779790906,-4.0302634990757715
-1.9857160450099658,-2.2766213561708173,-1.4225746129698484,-4.106386125855064
-2.008482258571674,-2.112552891707908,-1.463638474228399,-4.175863272150258
-2.0296077874887533,-1.9514696202407,-1.5053971069499015,-4.239315550423141
-2.04912248369116,-1.79351545486962,-1.5477902624541329,-4.297330364966162
-2.067057638239856,-1.638846440531943,-1.5907635661037944,-4.350451484706132
-2.083446102645176,-1.4876330914612381,-1.6342680809508559,-4.399168520728858
-2.098322433559788,-1.3400640967108048,-1.6782597661581444,-4.4439062797517845
-2.1117230745268962,-1.1963511289644517,-1.7226988289556622,-4.48501413006966
-2.123686585816541,-1.0567343002157332,-1.7675489702563587,-4.5227557540160594
-2.134253928818698,-0.9214875632535183,-1.8127765277965193,-4.557299984087448
-2.143468804451233,-0.7909230649121071,-1.8583495276373938,-4.588713823721155
-2.151378035100354,-0.6653931449209483,-1.9042366658746053,-4.616959200171658
-2.1580319665495633,-0.5452884094464391,-1.950406257876322,-4.641895396730164
-2.1634848506440276,-0.4310302038394138,-1.9968252118436236,-4.663289311239984
-2.1677951526824217,-0.3230560180691352,-2.0434581049560236,-4.6808354762653455
-2.171025712863113,-0.2217970403270645,-2.090266459718677,-4.694186930046474
-2.1732436832663837,-0.12764832160209835,-2.137208329019142,-4.702996410275978
-2.1745201664824045,-0.040933749086328214,-2.1842382931219015,-4.706965046244981
-2.1749295039732677,0.03813008562536602,-2.2313079435843512,-4.705893189833973
-2.174548203117014,0.10946558272151734,-2.278366875482691,-4.69972603891884
-2.1734535472897987,0.17315550377878247,-2.3253641358718795,-4.688586178113678
-2.171721992252011,0.22944932329162004,-2.3722499976530163,-4.672786702532611
-2.1694274990190947,0.2787525283179854,-2.418977864678342,-4.65282209049633
-2.166639973735915,0.3216002325703949,-2.4655060855833053,-4.629338497505214
-2.1634239714102113,0.3586195320070158,-2.5117994705583575,-4.603089207327511
-2.159837776090141,0.3904867951477256,-2.5578303626316328,-4.574883317874618
-2.155932908138664,0.41788615327884665,-2.603579195810379,-4.545535828871061
-2.151754046605875,0.44147409636949714,-2.6490345540990896,-4.515825493722015
-2.14733930564218,0.46185298093505617,-2.6941928090363096,-4.486464027412367
-2.1427207758328297,0.47955415834357235,-2.739057449310433,-4.458077514389566
-2.137925234249394,0.49502984286877666,-2.7836382244543287,-4.431198802102121
-2.1329749358207066,0.5086519403996073,-2.8279502124753497,-4.40626852795764
-2.1278884164167104,0.5207157797076678,-2.872012897754926,-4.383642104232589
-2.1226812586196337,0.5314468342944679,-2.9158493187972523,-4.36360021230723
-2.117366790276689,0.5410088877468238,-2.9594853209203245,-4.346360858923873
-2.1119567013992206,0.5495125206802058,-3.002948929509563,-4.332091614643559
-2.1064615761924186,0.5570231871460577,-3.0462698456559987,-4.320921165368719
-2.100891344320958,0.5635684600654827,-3.0894790573096857,-4.312949709116211
-2.095255659720303,0.56914425075155,-3.1326085544008477,-4.308258014848636
-2.0895642172127875,0.5737199569887886,-3.175691134549334,-4.306915143806987
-2.0838270176428995,0.5772425842738736,-3.2187602859874036,-4.308984940030348
-2.0780545918001607,0.5796399327560364,-3.261850135387707,-4.314531448701162
-2.0722581924726002,0.5808229625567839,-3.3049954498747187,-4.323623437609178
-2.0664499628470323,0.5806874534547944,-3.3482316842508104,-4.336338192415869
-2.060643088312484,0.5791150691682683,-3.391595066174969,-4.352764740072312
-2.0548519376208016,0.5759739269048013,-3.4351227135756925,-4.373006632691848
-2.0490921983517536,0.5711187629204397,-3.478852779902611,-4.397184399787511
-2.043381010722549,0.5643907767936531,-3.5228246239004863,-4.425437751597808
-2.0377371029546127,0.5556172325490192,-3.5670790014164644,-4.457927590506631
-2.0321809306291225,0.5446108949268875,-3.611658277321531,-4.4948378606547195
-2.0267348216798537,0.5311693852453396,-3.656606655928078,-4.536377236351456
-2.0214231278274,0.515074554921786,-3.7019704282915926,-4.58278061576731
-2.0162723822781823,0.4960919977301782,-3.7477982344492657,-4.634310344847065
-2.0113114623008803,0.4739708568140649,-3.794141337897736,-4.6912570438229775
-2.00657175373274,0.44844413272958655,-3.841053908335966,-4.753939840493076
-2.002087312405444,0.4192297687403483,-3.888593306740897,-4.822705724687312
-1.9978950147180405,0.3860328847638691,-3.93682036398777,-4.8979276197495825
-1.994034685870402,0.3485496584856002,-3.985799640185266,-4.9800006105509045
-1.9905491892855458,0.30647351884237606,-4.035599646290775,-5.069335563307488
-1.9874844540971222,0.25950453108754723,-4.08629300192385,-5.166349109570764
-1.9848894087862468,0.20736312003788435,-4.137956493019558,-5.271448635941776
-1.982815777585868,0.14980959957491172,-4.190670979378975,-5.385010518775222
-1.9813176815901188,0.08667134069940625,-4.244521084566728,-5.507349379370183
-1.9804509681831248,0.017879782529490976,-4.29959457836043,-5.638675647255281
-1.9802721703578299,-0.05648020645358723,-4.3559813348329826,-5.779038294562877
-1.9808369724223658,-0.13610602291705562,-4.413771717778611,-5.9282494150760865
-1.9821980326515363,-0.22039586893971727,-4.473054211929372,-6.0857876710254075
-1.9844019913409334,-0.3083491858902132,-4.533912088639626,-6.250679008466538
-1.9874854831998356,-0.3984507390818083,-4.5964188787242914,-6.421356160458681
-1.9914699905906537,-0.4885449864629618,-4.660632440328878,-6.595504216153051
-1.9963554404552832,-0.5757150750629436,-4.726587482490409,-6.769908804592299
-2.0021125912059126,-0.6561915123911859,-4.794286570536332,-6.940336511234633
-2.0086745063298244,-0.7253280600450139,-4.863689935648678,-7.1014926752420084
-2.0159277869302743,-0.7776929911734922,-4.934704862401098,-7.247115306373916
-2.0237047168420093,-0.8073254694934204,-5.007176015464837,-7.370266929513357
-2.0317779715369433,-0.8081898131945061,-5.080878684759971,-7.463866860766627
-2.0398598696688883,-0.7748169356823754,-5.155517353367637,-7.521454858627056
-2.047608039025712,-0.7030544753769599,-5.230731901953908,-7.538095494371517
