th1 (rad),w1 (rad/s),th2 (rad),w2 (rad/s)
0.5950254010535027,2.435816061976801,1.4211425616663165,2.6301687727117797
0.6193835616732707,2.4593424252448304,1.4474442493934343,2.4736923424691053
0.643976985925719,2.476972670234611,1.4721811728181253,2.319959996301814
0.6687467126280651,2.4889560392773347,1.4953807727811435,2.169132417013815
0.6936362730208384,2.49554471268032,1.5170720969512816,2.021374951881921
0.7185917201476416,2.4969903623057492,1.537285846470101,1.8768541357936188
0.7435616237706991,2.493541110364005,1.556054387828037,1.7357345288231132
0.7684970348743392,2.4854388774650618,1.5734117331162683,1.5981759347577227
0.7933514236489898,2.4729171126903045,1.5893934924638455,1.4643310297861463
0.8180805947758929,2.456198901933987,1.604036802761707,1.3343434020161684
0.8426425837952328,2.4354954509590723,1.6173802367818686,1.208345981033809
0.8669975383048235,2.4110049378929785,1.6294636965922067,1.086459821145758
0.8911075876837533,2.3829117271885845,1.6403282948036644,0.9687931913658189
0.9149367049556392,2.3513859339831087,1.6500162267173226,0.8554409189210627
0.9384505642954702,2.3165833246252823,1.6585706359065333,0.7464839305089971
0.9616163975417231,2.278645536035244,1.6660354752116233,0.6419889362727003
0.9844028529020755,2.237700593499793,1.6724553645743503,0.5420082050806684
1.0067798588370735,2.1938637033920854,1.6778754466251569,0.44657938584554646
1.0287184958709945,2.1472382940094965,1.6823412404836122,0.3557253379479034
1.0501908788110894,2.0979172741283025,1.6858984938630912,0.26945394398977407
1.0711700515523725,2.0459844749156515,1.688593033302989,0.18775788968372045
1.091629896301529,1.991516236546132,1.6904706121998263,0.11061440820542164
1.1115450586669904,1.9345830963900588,1.6915767562818804,0.03798499921678722
1.130890889630891,1.8752515312572573,1.6919566062740483,-0.030184854699852492
1.1496434049434634,1.8135857023123279,1.6916547577270498,-0.09396594008278576
1.1677792619665868,1.7496491484560754,1.6907150983262218,-0.15344548967758334
1.1852757534511476,1.6835063727899973,1.689180643429446,-0.20872723479829133
1.2021108171790476,1.615224267839612,1.687093371081463,-0.2599312806711401
1.2182630598574438,1.544873329009798,1.6844940582747516,-0.3071937544293438
1.2337117931475416,1.4725286125962858,1.6814221207304583,-0.3506661822229959
1.2484370792735044,1.3982704046229026,1.6779154589082284,-0.39051456347463936
1.2624197833197335,1.3221845795186946,1.674010313273482,-0.42691812609610913
1.2756416291149204,1.24436264254127,1.669741132012521,-0.46006776543231287
1.288085255540333,1.16490146591951,1.665140454358198,-0.49016419032223046
1.299734270199528,1.0839027447257332,1.6602388124549756,-0.5174158201794431
1.3105732976467854,1.001472213195946,1.6550646542531813,-0.5420364955128277
1.320588019778745,0.917718674367811,1.649644289298053,-0.5642430790922255
1.329765206522423,0.8327529045014515,1.6440018585071308,-0.5842530346408048
1.3380927355674375,0.7466864981521552,1.6381593281607227,-0.6022820736772336
1.345559600548959,0.6596307197781932,1.6321365074239504,-0.6185419587490172
1.3521559077467409,0.5716954236392029,1.6259510878364603,-0.6332385432445263
1.3578728619831328,0.48298809610711024,1.619618702404015,-0.646570115239467
1.362702742944204,0.3936130642873831,1.6131530012516202,-0.6587260967939315
1.3666388735870778,0.30367090308904043,1.6065657402836808,-0.6698861323106056
1.3696755826179683,0.2132580606425735,1.5998668789605748,-0.6802195815030742
1.371808163224394,0.12246671018006906,1.593064683145544,-0.689885415512497
1.3730328303261945,0.031384825889859455,1.586165828990419,-0.6990324997387427
1.3733466785850932,-0.05990352868121747,1.5791755039930315,-0.707800234632053
1.372747643298281,-0.15131771815302164,1.572097501646711,-0.7163195162669335
1.3712344661167508,-0.24277988239110956,1.5649343064840415,-0.7247139719134309
1.3688066672928396,-0.3342141401875459,1.5576871667649073,-0.7331014217104811
1.3654645258909641,-0.4255456785656465,1.5503561525478025,-0.7415955154547049
1.3612090691053076,-0.5166997575959742,1.5429401973932555,-0.7503074929006536
1.3560420715293477,-0.6076006607116721,1.535437122464249,-0.7593480162867311
1.349966064922231,-0.6981706201574719,1.5278436423013817,-0.768829024582406
1.3429843587206562,-0.7883287466451072,1.5201553520555577,-0.7788655598320284
1.335101071254205,-0.8779899916838734,1.5123666964572375,-0.7895775167169253
1.3263211713373664,-0.9670641704844302,1.5044709212900682,-0.801091266984106
1.3166505296325222,-1.05545507278163,1.496460008620227,-0.8135411107567972
1.306095978904706,-1.143059688287969,1.488324597512659,-0.8270705071470129
1.2946653820218263,-1.229767572599101,1.480053892441189,-0.8418330373523022
1.2823677062958354,-1.3154603779960967,1.471635562067666,-0.857993054951668
1.2692131025158744,-1.4000115714622257,1.4630556315181493,-0.8757259808927427
1.255212986801252,-1.4832863590891228,1.454298371709222,-0.8952182051699483
1.2403801232103608,-1.5651418316570118,1.4453461896575224,-0.9166665638737083
1.2247287048937907,-1.6454273403819106,1.4361795240187853,-0.9402773694758902
1.2082744314899716,-1.7239851045961472,1.4267767503240265,-0.9662649840583586
1.1910345804440101,-1.8006510445957857,1.4171141004834429,-0.9948499395943793
1.1730280699980522,-1.8752558233710734,1.407165601087499,-1.026256625960933
1.1542755117643415,-1.9476260709600643,1.3969030348278897,-1.0607105853706844
1.1347992510547409,-2.0175857554487426,1.3862959289741827,-1.0984354703261652
1.1146233935002534,-2.084957656046892,1.375311574270921,-1.1396497397182555
1.0937738169397846,-2.1495648871298894,1.3639150768737385,-1.1845631828684764
1.0722781680684856,-2.211232418548792,1.3520694450450537,-1.2333733727021807
1.0501658438829977,-2.2697885376150646,1.339735711318032,-1.2862621555667682
1.0274679585068471,-2.3250662024300617,1.3268730897623642,-1.343392285559274
1.0042172964825464,-2.3769042447551363,1.3134391669067715,-1.4049043051864756
0.980448254034995,-2.425148393092637,1.2993901238549068,-1.470913761922339
0.9561967701040687,-2.469652102349224,1.2846809862356834,-1.5415088325209763
0.9315002490805764,-2.5102771943185718,1.2692658979104736,-1.616748405068018
0.9063974771373906,-2.546894331968407,1.2530984138597934,-1.6966606443367034
0.8809285338177065,-2.5793833687994603,1.2361318074164263,-1.7812420408147585
0.8551347001297119,-2.607633631111401,1.2183193870082787,-1.8704569194378544
0.8290583638185979,-2.63154420485486,1.1996148178139001,-1.9642373619425553
0.8027429217700492,-2.6510243092050976,1.1799724441944746,-2.0624834777023486
0.7762326786779983,-2.6659938457888344,1.159347609417451,-2.165063942253304
0.7495727402201099,-2.6763842157379627,1.137696969994918,-2.271816710232605
0.7228088980627303,-2.6821394968538024,1.114978802892592,-2.3825497994776272
0.6959875030941922,-2.6832180707741666,1.0911533048978157,-2.497042034604198
0.6691553223864506,-2.6795947858497353,1.0661828845517738,-2.615043630439623
0.6423593745279532,-2.671263736089056,1.0400324482473775,-2.7362764872902385
0.6156467371670626,-2.658241730418831,1.012669683374475,-2.8604340605964738
0.5890643198628743,-2.6405725196080168,0.9840653427685103,-2.987180657109736
0.5626585946667941,-2.6183318398794944,0.954193536197413,-3.116149999258425
0.5364752762679992,-2.5916333209740774,0.9230320362048288,-3.2469428910389357
0.5105589430582584,-2.560635289567347,0.8905626072944394,-3.379123816398802
0.48495259016258496,-2.525548472288652,0.8567713691304514,-3.51221631061749
0.45969710543969844,-2.486644560095963,0.8216492060242765,-3.6456969752098347
0.4348306598387388,-2.4442655291922137,0.7851922362721782,-3.7789880690280313
0.4103880045468167,-2.398833512592764,0.7474023555818978,-3.9114487173962615
0.38639966942088905,-2.3508608687789105,0.7082878684079352,-4.042364954804688
0.36289106073309996,-2.3009598875214934,0.6678642188598883,-4.170939073103353
0.33988146185788504,-2.24985129938303,0.6261548281288548,-4.296279100723763
0.3173829488640547,-2.198370415777541,0.5831920371216172,-4.417389691983033
0.2953992447062793,-2.1474693411221706,0.5390181402017868,-4.533166237683145
0.2739245512950576,-2.098213319343765,0.4936864778249554,-4.64239455716716
0.25294241810161994,-2.0517689995207573,0.4472625322532838,-4.743758978140086
0.23242472810641235,-2.009382375672531,0.39982494247188294,-4.835861766791068
0.21233090434968704,-1.9723445590565363,0.3514663248039723,-4.917256494448349
0.1926074587591217,-1.941944561593041,0.3022937598594888,-4.986496771720894
0.17318801314319127,-1.9194100084707435,0.25242879214227987,-5.042199699828825
0.15399391305848384,-1.9058390681617077,0.2020067951439916,-5.08312047707918
0.13493552237686676,-1.9021295129886509,0.15117559037319983,-5.1082313229340555
0.11591422724698025,-1.9089130279572986,0.10009327714385927,-5.116795099054104
0.09682509696740726,-1.9265038420057015,0.048925326153318224,-5.108422773458008
0.07756005854735025,-1.9548697960107444,-0.002158901581261856,-5.083105043319516
0.05801136058724281,-1.9936309437206354,-0.05298995201445701,-5.041212176936666
0.038075051150036454,-2.042086298403605,-0.10340207378382367,-4.98346168249606
0.017654188166000406,-2.0992645881810685,-0.15323669060878425,-4.910859218483905
-0.0033384577158102786,-2.163991209234519,-0.2023452827936233,-4.824622525839208
-0.024978369808155466,-2.2349618959745725,-0.25059150805201535,-4.726099945580726
-0.04732798876790119,-2.310814133069382,-0.2978525075078226,-4.61669413518912
-0.070436130098595,-2.3901894774748125,-0.3440194488597138,-4.497798664046289
-0.09433802487334314,-2.4717828361898277,-0.3889974355001767,-4.370751440554452
-0.11905585323524143,-2.5543774990631594,-0.43270494990572117,-4.2368054918780915
-0.14459962822587302,-2.636866807636449,-0.4750730048245021,-4.097115144026727
-0.1709682963022375,-2.7182645695711454,-0.5160441562647694,-3.9527343158874877
-0.19815094199794897,-2.7977067962272377,-0.5555714994236443,-3.804623281454447
-0.22612800996022134,-2.8744472728066217,-0.5936177322381887,-3.6536605519050775
-0.25487248268828755,-2.9478491056059477,-0.6301543377572395,-3.5006571625527836
-0.28435097374434704,-3.01737391941121,-0.6651609093827673,-3.3463713741710386
-0.31452471293845913,-3.0825699218031954,-0.6986246231244777,-3.191522463352252
-0.3453504121564911,-3.143059671967956,-0.7305398477580002,-3.0368028115346495
-0.37678100887617066,-3.198528109314377,-0.7609078758733466,-2.8828878897403833
-0.4087662899693144,-3.2487112071729918,-0.7897367547707504,-2.7304439882422504
-0.44125340204104435,-3.2933855031150503,-0.8170411946531729,-2.580133682427183
-0.47418725707219483,-3.3323587006496074,-0.8428425314774448,-2.4326190861133177
-0.507510844078691,-3.36546151850427,-0.867168722338578,-2.2885629479702225
-0.5411654592637336,-3.392540966641678,-0.8900543518182802,-2.14862761908905
-0.5750908689301504,-3.4134552378531082,-0.9115406280091707,-2.0134718812415997
-0.6092254213086814,-3.428070406890928,-0.9316753468215867,-1.8837455953503683
-0.6435061253775907,-3.4362591133697262,-0.9505128027750904,-1.7600821263360218
-0.6778687165112879,-3.437901358973959,-0.9681136240384507,-1.6430885403272886
-0.7122477301010275,-3.432887464929719,-0.9845445094417236,-1.5333336663795
-0.7465766047503247,-3.4211231074411335,-0.9998778461055186,-1.4313342741558996
-0.7807878358247361,-3.4025361789141075,-1.0141911888470776,-1.3375398379251977
-0.8148131976138772,-3.377085022996103,-1.0275665872263295,-1.252316617810842
-0.8485840478438382,-3.3447673848803237,-1.040089753404438,-1.1759320568777778
-0.8820317216926414,-3.30562923883502,-1.0518490739732158,-1.1085407173756712
-0.9150880140809916,-3.259772542778351,-1.0629344811469725,-1.0501731026701882
-0.9476857395087751,-3.207360963176289,-1.0734362121736745,-1.0007286783792855
-0.979759349140538,-3.1486227377888962,-1.0834434989574673,-0.959974182396835
-1.011245576518427,-3.083850100414348,-1.0930432407814357,-0.9275478995752998
-1.0420840775225704,-3.0133950529267963,-1.1023187197771886,-0.9029700170079178
-1.0722180280518383,-2.9376616806893114,-1.1113484199472679,-0.8856585535434331
-1.1015946448587315,-2.85709559739526,-1.1202050054827022,-0.8749497777514723
-1.1301656008326841,-2.772171406106858,-1.1289545032602168,-0.8701215931703462
-1.1578873148937527,-2.6833792260699174,-1.1376557191919203,-0.8704181489933275
-1.184721107154452,-2.5912113426066736,-1.1463599006818537,-0.8750739516136554
-1.2106332205805186,-2.4961499060215964,-1.1551106401979903,-0.8833359812357086
-1.2355947196407346,-2.398656376226641,-1.1639440000103474,-0.8944826941093825
-1.2595812834030011,-2.2991631354604087,-1.1728888269514413,-0.90783923393025
-1.2825729147576053,-2.1980674222238137,-1.1819672192907438,-0.9227886088031031
-1.3045535889798434,-2.0957275128293475,-1.1911951053787748,-0.938778955522215
-1.3255108641081368,-1.9924609131510358,-1.200582894933997,-0.9553272793231408
-1.3454354732396472,-1.888544226582511,-1.2101361677272284,-0.9720202177459499
-1.3643209155054723,-1.7842143273886941,-1.2198563699046878,-0.9885124429464646
-1.3821630587793592,-1.6796704776459257,-1.2297414943341525,-1.0045233088927312
-1.3989597635558184,-1.5750770651215404,-1.2397867274230798,-1.0198322925230925
-1.4147105342070339,-1.4705666945327787,-1.2499850503483108,-1.0342736932417156
-1.4294162011523617,-1.3662434245630921,-1.260327787280728,-1.0477309605884626
-1.4430786353979925,-1.2621860002653433,-1.2708050968866125,-1.06013092769663
-1.455700495400646,-1.1584509806961854,-1.2814064061635788,-1.0714381455221733
-1.4672850052076079,-1.0550757029192293,-1.2921207876188006,-1.081649443235227
-1.4778357622368001,-0.9520810556807882,-1.302937282051153,-1.0907887843857615
-1.487356572793608,-0.8494740598878695,-1.3138451698950104,-1.0989024456376464
-1.4958513133924867,-0.74725026976044,-1.3248341943513868,-1.1060545133309598
-1.503323816090091,-0.645396019559398,-1.3358947394846965,-1.1123226709352372
-1.509777776285685,-0.5438905473755,-1.347017966194049,-1.1177942357331316
-1.51521668175944,-0.44270803065151126,-1.3581959085513802,-1.1225623942384195
-1.519643762065955,-0.3418195686828804,-1.3694215324937644,-1.126722581684639
-1.523061957752784,-0.24119514581119939,-1.3806887583106109,-1.1303689505919783
-1.525473909210896,-0.14080560564258654,-1.3919924478165306,-1.1335908764789664
-1.5268819652673218,-0.04062466141422212,-1.4033283565813204,-1.136469455123781
-1.527288211881464,0.05936903957069378,-1.4146930511325582,-1.1390739555825107
-1.526694521485757,0.1591897890275379,-1.4260837906883832,-1.1414582068499834
-1.5251026235954817,0.25884263208728936,-1.437498372756883,-1.1436569141494253
-1.5225141972746088,0.358321142083408,-1.4489349418983772,-1.145681923913688
-1.5189309858537747,0.4576051934223799,-1.4603917611375141,-1.1475184849548576
-1.514354933919551,0.5566587921378096,-1.4718669459870628,-1.1491215870810505
-1.508788345998173,0.6554280483820689,-1.4833581618578733,-1.1504124967660458
-1.5022340655143522,0.7538394012368007,-1.4948622868255337,-1.151275650605661
-1.4946956715019841,0.8517982315867448,-1.5063750433315903,-1.1515561079963876
-1.4861776891861167,0.9491880200382645,-1.517890604411554,-1.151057799880809
-1.476685808985734,1.045870219483636,-1.5294011824103622,-1.1495428339669043
-1.4662271067908976,1.1416850105636416,-1.5408966107500313,-1.1467321206627266
-1.4548102566852612,1.2364530874050252,-1.5523639319566584,-1.142307559775796
-1.4424457258112109,1.329978575931388,-1.5637870075544165,-1.1359159686478026
-1.429145940051897,1.4220531154520266,-1.5751461672408944,-1.1271748339308858
-1.4149254088973768,1.512461037789374,-1.5864179155802032,-1.1156798333847402
-1.3998007985194831,1.6009854638812104,-1.5975747139140506,-1.101013910201432
-1.383790943880671,1.6874150183001815,-1.608584853016065,-1.0827575081054397
-1.3669167936976692,1.771550754925165,-1.6194124280971194,-1.0604994155410516
-1.3492012861484175,1.853212811574173,-1.6300174222525299,-1.0338475496825397
-1.3306691580326757,1.9322462851925903,-1.6403558977493553,-1.0024389613443077
-1.3113466951807498,2.0085258529509065,-1.6503802873627984,-0.9659483766483244
-1.2912614366512407,2.0819587587989594,-1.6600397711292816,-0.9240947126584922
-1.2704418490632512,2.15248592846578,-1.6692807182558664,-0.8766451977286782
-1.2489169897785934,2.220081147519381,-1.6780471702331532,-0.8234169643327516
-1.2267161783033997,2.2847484105087785,-1.6862813398764807,-0.7642762258458904
-1.2038686941983119,2.346517698672092,-1.6939241021349396,-0.6991353625986652
-1.180403517211591,2.4054395497469474,-1.7009154557609263,-0.6279483982220312
-1.1563491217141215,2.461578836401014,-1.7071949397431465,-0.5507054299180045
-1.1317333333501114,2.515008170524498,-1.7127019940423265,-0.46742658548070576
-1.1065832516448664,2.565801308436662,-1.7173762598971336,-0.37815602739469495
-1.0809252385604997,2.6140268612979307,-1.7211578201710807,-0.28295642919271435
-1.0547849699475205,2.6597425311970975,-1.7239873844630078,-0.18190423251268387
-1.0281875446355495,2.7029900100872726,-1.7258064267881346,-0.07508587368414656
-1.0011576445346768,2.7437906058312205,-1.726557285524976,0.03740493998408588
-0.9737197384763646,2.7821416026981396,-1.7261832361251352,0.15546891364478554
-0.9458983224493832,2.8180133245514165,-1.7246285469886873,0.2790018851030764
-0.917718189203869,2.851346846689331,-1.7218385281376565,0.407894705250266
-0.8892047207369758,2.8820522941444287,-1.7177595810851538,0.5420324308078512
-0.8603841977955314,2.91000766675433,-1.7123392567770752,0.6812929963430061
-0.8312841211279881,2.9350581409686214,-1.7055263268136451,0.8255455379595384
-0.8019335397183018,2.9570158119901624,-1.6972708714340496,0.9746485406913451
-0.7723633815984002,2.9756598548441984,-1.6875243860271363,1.1284479781773789
-0.7426067830499582,2.9907370972769547,-1.6762399062453626,1.286775608484066
-0.7126994120771887,3.001963009473246,-1.6633721501605219,1.449447584905433
-0.6826797819824562,3.009023124339057,-1.6488776743114675,1.6162635354393158
-0.6525895507390655,3.011574906743307,-1.6327150389570744,1.7870062590899596
-0.6224738016716325,3.0092500901464496,-1.6148449763661747,1.961442180482109
-0.5923813007701679,3.0016574941955265,-1.5952305545613537,2.1393226955563125
-0.5623647258282126,2.988386327115882,-1.5738373276057904,2.320386529311982
-0.5324808625570538,2.969009962347069,-1.5506334623126705,2.5043632106352813
-0.5027907629335832,2.943090160484149,-1.5255898302063178,2.6909777482291988
-0.4733598613287417,2.910181686288742,-1.4986800527240258,2.879956564701246
-0.44425804446585426,2.8698372480143344,-1.4698804870770135,3.071034712202098
-0.4155596719857109,2.8216126649941073,-1.4391701399549925,3.263964351879132
-0.38734354533576987,2.765072152784703,-1.4065304964362013,3.458524429804935
-0.35969282380792283,2.6997936078244615,-1.3719452521381519,3.6545314222889553
-0.3326948877296782,2.625373781908611,-1.3353999379152623,3.851850950525811
-0.30644114991059207,2.541433269485706,-1.2968814284100043,4.050409972794003
-0.281026817215735,2.4476212998424343,-1.2563773286820643,4.250209142001686
-0.2565506042173107,2.3436204485824197,-1.2138752372620474,4.451334750357134
-0.23311439973148648,2.229151582732427,-1.169361889758476,4.653969443269836
-0.2108228839041622,2.1039796668470165,-1.1228221953257778,4.858400526033588
-0.18978308723569204,1.967921535962689,-1.0742381900654419,5.065024138280014
-0.17010387187606515,1.8208574620388118,-1.0235879486826418,5.274342723645649
-0.15189529725567705,1.662749414363628,-0.9708445214461853,5.486951913907209
-0.13526780311204076,1.4936704939601242,-0.9159750023071132,5.703510949415116
-0.12033109817243952,1.3138522990900516,-0.858939892812962,5.924687773848797
-0.107192575181539,1.123760145762907,-0.7996930150744741,6.151065649436147
-0.09595497372390993,0.9242101823676228,-0.7381823585801126,6.382992362193775
-0.0867128719002337,0.7165470694113443,-0.6743524349581749,6.620346263585794
-0.07954740120612026,0.502904302534572,-0.6081489723223169,6.862187681401915
-0.07451835818077454,0.2865667571990621,-0.5395270955082978,7.106265738569084
