th1 (rad),w1 (rad/s),th2 (rad),w2 (rad/s)
5.378426975756523,1.4655001724370655,5.062056916881815,-2.898191083371712
5.393081977480893,1.496615373926368,5.033075006048098,-2.8290105194175657
5.4080481312201565,1.5230348139502905,5.004784900853923,-2.7528418366769993
5.423278479359659,1.5455927977685342,4.977256482487153,-2.670647094727339
5.4387344073373445,1.565094929181742,4.95055001153988,-2.5833538181226396
5.454385356629162,1.5822867226238517,4.924716473358654,-2.4918147423802806
5.4702082238554,1.5978336463170328,4.899798325934851,-2.3967825806743503
5.486186560318571,1.6123112502487267,4.8758305001281075,-2.2988980398211014
5.502309672821059,1.6262031972927335,4.852841519729896,-2.198688196689202
5.518571704793986,1.6399048347771352,4.830854637763005,-2.0965721093930294
5.534970753141757,1.6537301804584548,4.809888916669074,-1.9928708603055358
5.551508054946342,1.6679206300498202,4.789960208066018,-1.887819811112291
5.56818726124684,1.6826541651411056,4.771082009954895,-1.781581481224409
5.585013802898251,1.6980542607927345,4.753266195142651,-1.6742580200607249
5.601994345506179,1.7141980244045216,4.736523614942044,-1.5659026826175124
5.619136325750224,1.7311233377009476,4.720864588115869,-1.456530032152925
5.636447559127234,1.748834934294564,4.706299287794339,-1.3461248012746025
5.65393590847018,1.7673094442859256,4.692838039781593,-1.2346494678889726
5.671609002913039,1.786499492319928,4.680491545102703,-1.122050669178297
5.689473997836238,1.8063369610636284,4.669271038410921,-1.0082646046614192
5.707537367446874,1.8267355392353448,4.659188392364307,-0.8932215831854289
5.725804722839228,1.847592669874771,4.650256176532452,-0.7768498586792463
5.744280649537975,1.8687910056728194,4.64248767794566,-0.6590788824680142
5.762968559594704,1.8901994671349578,4.635896889120979,-0.5398420801387059
5.781870554266053,1.9116739880563507,4.630498468319592,-0.41907924084871095
5.8009872941466165,1.9330580222782066,4.6263076759111055,-0.2967385879216364
5.820317874369398,1.9541828764439935,4.623340290031889,-0.17277858220882197
5.839859703133838,1.9748679256071042,4.621612504209801,-0.047169494226341424
5.859608382389909,1.994920761981531,4.621140809267537,0.08010523250194937
5.879557590009724,2.0141373216869027,4.621941861592557,0.20904781626384966
5.899698963226593,2.0323020297770094,4.624032339755195,0.33964516966717684
5.920021983524363,2.049187999893812,4.627428791451867,0.47186813800813665
5.940513863523301,2.0645573212924297,4.6321474728319485,0.6056709588990333
5.961159436736225,2.0781614624822025,4.638204182420939,0.7409909644252995
5.981941051361047,2.089741817087102,4.645614092065192,0.8777485516368131
6.002838469531918,2.0990304135303175,4.65439157758156,1.0158474503693355
6.023828773667221,2.105750805604589,4.664550052085254,1.1551753192097145
6.044886281723267,2.1096191557456856,4.676101805277351,1.2956047008258504
6.065982473280724,2.110345516762833,4.689057852285609,1.4369943668470553
6.087085928448352,2.1076353108223445,4.70342779595408,1.579191079989394
6.1081622815565755,2.101190996605163,4.719219706753974,1.7220317971948476
6.129174191522627,2.090713906798752,4.736440024725923,1.8653463322615744
6.150081330590615,2.0759062285355934,4.755093488048538,2.008960489914971
6.17084039287597,2.056473089220339,4.775183092947688,2.1526996757072485
6.191405123768173,2.032124699633819,4.79671008970476,2.2963929778179137
6.211726370764511,2.002578495577556,4.819674019482939,2.439877708122337
6.231752155720287,1.9675612090134473,4.844072796564162,2.5830043812427324
6.251427767810421,1.9268107901162679,4.869902840376589,2.7256421022033894
6.270695875711584,1.8800780934133443,4.897159261398623,2.867684326328433
6.289496656645717,1.8271282348186526,4.925836104661907,3.0090549496926067
6.307767938993903,1.7677415225220836,4.955926654158833,3.1497146852435685
6.3254453542191245,1.7017138640883864,4.987423801011269,3.289667678974431
6.342462492860008,1.6288565555890473,5.020320477801013,3.428968322249083
6.358751058415899,1.5489953671697876,5.054610161023504,3.5677282200688887
6.374241012087596,1.4619688545479932,5.090287443224193,3.706123279396301
6.388860700633076,1.3676258495991982,5.127348676018157,3.844400884012528
6.402536959129068,1.265822118650726,5.165792684858282,3.9828871181745864
6.415195180315576,1.1564162295642566,5.205621556040028,4.121993982814388
6.426759342611218,1.0392647467086236,5.246841495868172,4.262226502522189
6.437151990078305,0.9142169905683347,5.289463760893394,4.404189528585663
6.446294159983988,0.781109779067726,5.333505656179251,4.548593869916947
6.454105257774665,0.6397628482905797,5.37899159487842,4.696261076772174
6.46050288625757,0.48997609184442037,5.425954205646142,4.84812567675819
6.465402647176014,0.3315304576434419,5.474435462413724,5.0052327832269325
6.468717951752448,0.16419545080968226,5.524487790245994,5.168727549238024
6.470359906260545,-0.01225205489462941,5.576175065738374,5.339830596727143
6.470237385711599,-0.1979902559897413,5.6295733717056455,5.519789823923071
6.468257483151701,-0.39308448745886815,5.684771269944877,5.709793221879597
6.464326638277113,-0.5973711828416292,5.741869202163673,5.910818764899001
6.458352926448696,-0.8102677309719544,5.800977389812663,6.123385674568551
6.450250249138977,-1.0304728888063952,5.862211246558348,6.347157638411816
6.439945520250912,-1.2555166740540729,5.925682822942466,6.5803390501359225
6.427390353510372,-1.4811297652167323,5.991486213443825,6.818817878273926
6.412579055858204,-1.700459570355613,6.059674392226564,7.055083349552618
6.3955744601546485,-1.903311598708688,6.13022522572209,7.2771502736542555
6.376541344167562,-2.075879761757816,6.202996728458633,7.46811054344533
6.3557825465499835,-2.201764292439422,6.277677833893086,7.607395245234536
6.333764903625589,-2.265059731861624,6.353751786345431,7.674819935611501
6.311114306306973,-2.255267405737281,6.430499985701546,7.6570944305151105
6.2885616322496,-2.171796879260463,6.507070930006697,7.55377555278592
6.266843663456995,-2.0248435174023163,6.582608685534557,7.378333929650828
6.246595228282971,-1.8316333742611164,6.656392024831065,7.153037015430127
6.22827889454036,-1.6106526150206608,6.727922394985366,6.901255328061292
6.212172368390154,-1.3773459019253975,6.796934948265979,6.641878798561137
6.1983989093708995,-1.142571799730639,6.86335373625159,6.38748036371024
6.1869731913735935,-0.9130123109518011,6.927228539888692,6.1450545386496405
6.1778430682640755,-0.6923013767103224,6.988679085275189,5.917639587969075
6.170920054496972,-0.4821219826523063,7.04785548115488,5.70583024694692
6.166098834670449,-0.28301970136746724,7.104913783624349,5.508870044546104
6.163268637656774,-0.0949315981940593,7.16000248406981,5.325343970615161
6.1623193216748335,0.08249592002827455,7.213255923775962,5.153583384688515
6.163144280875116,0.24972685715922005,7.264791757622847,4.991888055916135
6.1656415494467085,0.40723919021130084,7.314710638182008,4.838639851949973
6.169713941348822,0.5554774064949624,7.363097036701508,4.692355179982876
6.175268715413772,0.6948327887811648,7.410020588501337,4.551704172863351
6.182217043301583,0.825638936562098,7.45553763022997,4.4155126330405645
6.190473432667204,0.9481752912009707,7.499692756560376,4.282755629411147
6.199955185579214,1.0626745392267751,7.542520312854487,4.15254754127813
6.2105819309714825,1.1693315666379431,7.584045788267268,4.024131029405744
6.222275246637862,1.2683126689980169,7.624287098561325,3.896866132250448
6.234958373327842,1.359764311122561,7.66325575988383,3.7702199917691965
6.248556016439068,1.443821065660115,7.700957959801522,3.6437573515996124
6.262994227095668,1.5206125512939792,7.7373955333175175,3.517131794582103
6.278200352608608,1.5902693013746878,7.772566851263338,3.3900776133282906
6.294103045622355,1.6529275582376741,7.806467627396621,3.2624021895144386
6.310632321204731,1.7087330273773134,7.839091649291766,3.133978767861123
6.327719651478504,1.7578436501847348,7.870431436970377,3.004739534015925
6.3452980879803516,1.8004314701398156,7.900478832310537,2.8746689330834334
6.363302402681749,1.8366836783195852,7.929225521641371,2.743797192480921
6.381669239464945,1.8668029314056875,7.95666349356618,2.6121940365254925
6.400337268779002,1.8910070397787382,7.982785433931435,2.479962599415386
6.419247339176789,1.9095281251257867,8.007585059925589,2.3472335576158936
6.438342620428047,1.9226113464620953,8.031057395501747,2.214159512172289
6.457568733892668,1.9305132907647868,8.05319899062347,2.0809096565373073
6.476873866800315,1.933500119755746,8.074008087188842,1.9476647666945641
6.496208867997873,1.9318455580295781,8.093484734855787,1.814612548354269
6.515527323578168,1.9258288000204895,8.11163086033933,1.681943371498553
6.534785611578373,1.9157324045892843,8.128450294054316,1.5498464162520917
6.553942935624266,1.9018402366459382,8.143948758216837,1.4185062465944862
6.5729613379907255,1.884435505550726,8.158133820682782,1.2880998203911034
6.591805693046233,1.863798940376754,8.171014818886693,1.158793936094738
6.610443682450001,1.840207132749218,8.18260275824764,1.0307431086703223
6.628845753777493,1.8139310691358679,8.192910189334343,0.9040878601398213
6.6469850644688515,1.7852348663333975,8.201951067935742,0.778953403870387
6.664837413132186,1.7543747166101107,8.209740601974445,0.6554486964929945
6.682381160298287,1.7215980426125412,8.216295088939376,0.533665827227386
6.699597140724412,1.6871428567647455,8.22163174721165,0.4136797114267618
6.71646856929206,1.6512373154865705,8.225768544325916,0.2955480533150642
6.732980942446925,1.6140994551006962,8.228724024859067,0.1793115421021807
6.749121936997932,1.5759370937296975,8.230517140280089,0.0649942458279679
6.764881307935229,1.536947881724727,8.231167082738368,-0.047395831716732006
6.780250786752476,1.4973194821224811,8.230693124421201,-0.15786606394850222
6.7952239815737006,1.4572298621930755,8.229114463781716,-0.26643841502948684
6.8097962801956315,1.4168476772098229,8.226450079631421,-0.373148582002687
6.8239647569677295,1.3763327280335262,8.222718593811395,-0.4780450905567479
6.837728084248065,1.3358364748523184,8.217938142905828,-0.5811883662753375
6.851086448996588,1.2955025903516653,8.212126259243075,-0.6826497999489707
6.864041474900104,1.255467536612601,8.205299761243586,-0.782510822221299
6.876596150266231,1.2158611510608706,8.197474653021372,-0.880861999556528
6.888754761776839,1.17680722773292,8.188666033025806,-0.9778021602752546
6.900522834054168,1.1384240809089266,8.178888011423053,-1.0734375562139151
6.911907074863258,1.1008250787134437,8.168153635860914,-1.1678810623945306
6.922915325650393,1.0641191345258527,8.15647482523697,-1.261251413897043
6.933556516995651,1.0284111438973105,8.143862311098,-1.3536724758295984
6.943840628434624,0.9938023540523706,8.130325586339703,-1.445272538786692
6.953778651975147,0.960390651863781,8.115872860951836,-1.5361836283328694
6.963382558493786,0.9282707543126063,8.100511024668506,-1.6265408126759802
6.972665266036912,0.8975342827443028,8.084245616541747,-1.7164814875825682
6.981640608864355,0.8682696985377033,8.06708080166592,-1.8061446114751991
6.990323305849732,0.8405620729175509,8.049019355551168,-1.89566985622037
6.998728926578908,0.8144926573250025,8.030062656988965,-1.985196629991153
7.0068738531521575,0.7901382127408634,8.010210690689053,-2.07486291733719
7.014775235279566,0.7675700463309988,7.989462061515681,-2.164803867731233
7.022450935742876,0.7468526914419613,7.967814022838369,-2.255150046873274
7.029919462657296,0.7280421520408605,7.945262522369636,-2.346025244430462
7.037199884177705,0.7111836150023908,7.921802269925331,-2.4375437073035333
7.044311720327729,0.6963085132803339,7.897426832852296,-2.5298066388609386
7.051274805460532,0.683430800513758,7.872128766463686,-2.6228977723748934
7.05810911346567,0.6725422743873355,7.8458997887399375,-2.7168777926824688
7.064834536209543,0.6636067648348545,7.818731010813113,-2.8117773472023546
7.071470603857891,0.6565529888480621,7.7906132373410895,-2.9075883620223526
7.078036133746372,0.6512658743897853,7.761537353720866,-3.004253371320926
7.08454879249027,0.6475761845381238,7.731494820007656,-3.1016525956515957
7.091024554335651,0.6452483485910058,7.70047829405114,-3.199588591842766
7.0974770378215615,0.6439665561219482,7.6684824081327125,-3.2977684801256117
7.103916703382781,0.6433194273130031,7.635504723331456,-3.3957840790971865
7.110349897655912,0.6427839775086943,7.601546882540484,-3.4930907998946648
7.116777737430999,0.6417101808180633,7.566615974541538,-3.588986916432163
7.123194839239179,0.6393082183312098,7.530726105377216,-3.6825958573704014
7.129587921422491,0.6346414262501636,7.493900146803512,-3.77285540144927
7.1359343356849925,0.6266288900555991,7.456171592789019,-3.8585189066787517
7.1422006245855485,0.6140622633676205,7.417586403722232,-3.938174567249921
7.148341247219225,0.5956412555932077,7.378204658049732,-4.010288542045207
7.154297659775157,0.5700307613845008,7.3381017726292805,-4.0732758704170475
7.1599979673890015,0.5359393448003755,7.29736901392511,-4.125598776863208
7.165357360837005,0.49221378033649865,7.256113026156478,-4.165885323164824
7.17027949864037,0.4379385184234766,7.21445417292483,-4.193053652425622
7.174658883824605,0.37252420545046194,7.172523636400574,-4.206420879910306
7.178384125879109,0.29576812548510345,7.130459427601471,-4.205774212911999
7.18134180713396,0.20787326974157228,7.088401685472351,-4.1913872683818525
7.183420539831376,0.10942128757972377,7.046487812788532,-4.163976183754492
7.184514752707173,0.0013050975032398437,7.004848050950987,-4.124604210204256
7.184527803682205,-0.11536444722457306,6.9636020088489445,-4.074554770493188
7.18337415920996,-0.23935971732125716,6.922856461144013,-4.015197506262043
7.180980562036747,-0.36942892558695967,6.882704486081392,-3.9478689797506235
7.1772862727808775,-0.5043693562820224,6.843225796283886,-3.8737819028608076
7.172242579218057,-0.6430769312976545,6.804487977255278,-3.7939677678993537
7.1658118099050805,-0.7845732467531831,6.766548299576285,-3.7092505329110996
7.157966077437549,-0.928014438508059,6.7294557942471736,-3.6202448668357787
7.148685933052469,-1.0726873515971285,6.693253345578816,-3.5273711946769346
7.137959059536497,-1.2179981453479847,6.6579796336320465,-3.4308804578610754
7.125779078083017,-1.3634573964339725,6.623670829053435,-3.3308830972107235
7.112144504118677,-1.508664519202208,6.590361998081328,-3.2273785250851583
7.0970578589266555,-1.6532932179544,6.5580882128304765,-3.120282870681982
7.0805249267471115,-1.797078838901403,6.5268853841236565,-3.009453914549984
7.062554138358098,-1.939807904366443,6.496790844978157,-2.8947128859574214
7.043156059314433,-2.081309740545988,6.467843716118582,-2.7758632572939868
7.022342961908973,-2.221449891914488,6.440085083545642,-2.6527069239296033
7.000128462989828,-2.3601248953732332,6.413558014306346,-2.525058285218242
6.976527214036095,-2.4972579230128957,6.388307431454164,-2.392756802916432
6.951554634805967,-2.632794763684733,6.3643798634249995,-2.255678649302005
6.925226687169119,-2.7666995801515455,6.34182307693198,-2.113748096396881
6.897559691367603,-2.8989498373918954,6.320685595968011,-1.9669493569105414
6.868570192993684,-3.029529741085583,6.301016102398906,-1.8153396756621387
6.8382748955828285,-3.158421450740136,6.282862705642285,-1.6590645886186175
6.806690681075427,-3.2855932426801875,6.266272059756099,-1.4983764073284753
6.773834748648625,-3.4109837069296054,6.251288295682814,-1.333657127312645
6.739724911579328,-3.5344809972244233,6.237951724409688,-1.1654470546633664
6.704380101607084,-3.655896169017452,6.226297253863054,-0.9944804132365399
6.667821139916909,-3.7749298300988032,6.216352449730689,-0.8217288961652067
6.630071841615921,-3.891131842157321,6.208135160769037,-0.648453341674089
6.591160523194348,-4.003854866969759,6.201650627352296,-0.4762621320044713
6.5511219745246505,-4.112204423754934,6.1968880060322515,-0.307172146511178
6.509999930287101,-4.214991082878488,6.19381628456714,-0.14366377801495367
6.467850019458316,-4.3106945517301645,6.19237964678699,0.011284445933721549
6.4247430739410145,-4.397454278213918,6.192492491246327,0.15420303678431976
6.380768531158876,-4.473105369720746,6.19403452161417,0.2812077046077178
6.336037477461669,-4.535279258298676,6.1968465986602475,0.3881721932044122
6.2906846848786815,-4.581581660891871,6.200728320592291,0.47101494923378906
6.244868868269763,-4.609842686256382,6.205438470084629,0.5260905215950064
6.198770441407199,-4.618406431485298,6.210699375300579,0.5506361716307894
6.152586377092346,-4.606399037143157,6.216205737016887,0.5431826910659867
6.106522386720915,-4.573901006490917,6.221637563927547,0.5038192642359859
6.060783376656006,-4.521965947824982,6.2266757565699065,0.43422620783669813
6.015563717177756,-4.4524732325634595,6.231018018648274,0.3374559307002686
5.971038984852121,-4.3678561732707,6.234392577955276,0.21752226272453967
5.9273604231194135,-4.270782386817785,6.236567800582522,0.07891085588887617
5.884652599251235,-4.163863716662709,6.237356909141411,-0.07387406580883049
5.843013962084608,-4.049445919512744,6.236618168483323,-0.23664994374724005
5.802519502889481,-3.929492708893157,6.234251669045851,-0.4057583100345175
5.76322457580055,-3.805551596349738,6.230194085945506,-0.5781449628776395
5.725169059837052,-3.6787765027715302,6.224412636316729,-0.7513527893104002
5.688381294809337,-3.5499816673714477,6.216899108423625,-0.9234638622817493
5.6528814781356225,-3.419707145645917,6.207664469800807,-1.0930197869660816
5.618684406679163,-3.2882833438307033,6.196734271931146,-1.2589392221487317
5.585801573240857,-3.1558880334305757,6.184144879709659,-1.420442864895926
5.554242692906551,-3.0225933789412336,6.169940451060699,-1.5769901657267706
5.5240167591171385,-2.8884028904086163,6.154170549403432,-1.7282284478628285
5.495132730213053,-2.753279375458206,6.136888264924804,-1.8739532755320822
5.467599936458471,-2.6171653861060715,6.118148732169483,-2.014078192294665
5.44142828259741,-2.4799976801177297,6.0980079502465365,-2.148611835772943
5.416628305796232,-2.3417170628601043,6.076521831888807,-2.2776406108038243
5.393211135167631,-2.2022747659514725,6.053745425780769,-2.401315384246198
5.371188387508116,-2.061636314868193,6.029732271938307,-2.519840954815879
5.350572024359434,-1.9197836651326656,6.004533862390148,-2.6334673055879794
5.331374187708107,-1.7767162535206549,5.978199189334268,-2.7424818484117273
5.3136070251729,-1.6324515160922188,5.950774370850151,-2.8472020154122317
5.2972825100119785,-1.4870253646966727,5.922302350696028,-2.9479676459962656
5.282412256365012,-1.3404930830144814,5.892822674236065,-3.045132663559435
5.269007325534867,-1.1929310971439466,5.862371347600471,-3.13905554056324
5.257078014563428,-1.0444400886466607,5.830980792194838,-3.230088021227627
5.246633613676961,-0.8951499423637252,5.798679911982561,-3.3185615181355073
5.237682114253324,-0.7452270454738088,5.765494296801206,-3.4047705390252343
5.230229843798585,-0.5948844586251759,5.731446591410954,-3.488952460371424
5.224280999212334,-0.444395432223169,5.69655706680724,-3.5712629902726216
5.2198370448901015,-0.29411058998777684,5.660844436904513,-3.651746826342895
5.216895938990223,-0.14447877204848733,5.624326968641085,-3.7303034212990647
5.215451151269739,0.0039290808418134815,5.587023934428094,-3.806648564403981
5.215490442078157,0.15039462989523694,5.548957448784054,-3.8802738405604664
5.21699438837711,0.2940285618734935,5.510154710378449,-3.950408086771798
5.219934673995844,0.43375386857681286,5.4706506295107316,-4.01598774024556
5.224272212681613,0.5683033717598558,5.430490752108276,-4.075646150622088
5.229955246399212,0.6962407346632401,5.389734290602055,-4.127734621945236
5.236917653745844,0.8160144519129446,5.348456944382603,-4.170388512024948
5.2450777982649734,0.9260513541566296,5.306753059262354,-4.201647917593262
5.254338311806539,1.0248886537153346,5.264736580086421,-4.219632402642226
5.264587198343693,1.1113316678597973,5.2225402560599985,-4.222753043520716
5.275700515022291,1.1846111129411319,5.180312725624791,-4.209926846429617
