th1 (rad),w1 (rad/s),th2 (rad),w2 (rad/s),a1 (rad/s^2),a2 (rad/s^2)
5.3427354848612465,2.801961040506131,6.024359173999363,-1.2379083844489278,13.380606520353965,-12.8289999979185
5.370755095266308,2.9357671057096706,6.011980090154873,-1.3661983844281127,13.733486774099305,-13.535696884394955
5.400112766323405,3.0731019734506635,5.998318106310592,-1.5015553532720622,14.070975685260708,-14.191884885793318
5.4308437860579115,3.2138117303032705,5.983302552777871,-1.6434742021299955,14.366027351845737,-14.754144480201116
5.462981903360944,3.357472003821728,5.966867810756571,-1.7910156469320067,14.579766866014243,-15.161997629230608
5.496556623399162,3.50326967248187,5.948957654287251,-1.9426356232243127,14.658724441355517,-15.334076601351006
5.53158932012398,3.649856916895425,5.929531298055008,-2.0959763892378227,14.533101639066263,-15.165834183576141
5.568087889292935,3.795187933286088,5.90857153416263,-2.247634731073584,14.117896879065244,-14.53141795826396
5.606039768625796,3.9363669020767404,5.886095186851894,-2.392948910656224,13.319646892912491,-13.293648883638843
5.645403437646563,4.069563371005866,5.862165697745332,-2.525885399492612,12.051865401934606,-11.326492965578062
5.686099071356622,4.1900820250252115,5.8369068437504055,-2.639150329148393,10.26058780129405,-8.552013343152877
5.727999891606874,4.292687903038152,5.810515340458921,-2.7246704625799216,7.9562291026986145,-4.986361301184753
5.770926770637256,4.3722501940651375,5.783268635833122,-2.7745340755917693,5.239705687727926,-0.7775811847510163
5.814649272577907,4.424647250942416,5.755523295077204,-2.7823098874392795,2.3048241353064087,3.790512430692007
5.858895745087331,4.44769549229548,5.727700196202811,-2.7444047631323594,-0.5956103002253612,8.346446906369772
5.903372700010285,4.441739389293227,5.700256148571487,-2.6609402940686615,-3.2126670731886007,12.521044716031705
5.947790093903218,4.409612718561341,5.6736467456308,-2.5357298469083442,-5.3647702540496125,16.038941227069046
5.991886221088832,4.355965016020845,5.648289447161717,-2.375340434637654,-6.971503582947259,18.768357602439917
6.03544587124904,4.286249980191373,5.62453604281534,-2.1876568586132548,-8.047881655418506,20.714593619881146
6.078308371050954,4.205771163637188,5.602659474229207,-1.9805109224144433,-8.672506664824851,21.975841278621463
6.120366082687326,4.1190460969889395,5.582854365005063,-1.7607525096282286,-8.950831364595407,22.69131840837233
6.161556543657215,4.0295377833429855,5.565246839908781,-1.5338393255445053,-8.987665357598967,23.001966758511408
6.201851921490645,3.939661129766996,5.549908446653336,-1.3038196579593913,-8.872490085667453,23.02906549536254
6.241248532788315,3.8509362289103213,5.536870250073742,-1.0735290030057658,-8.67478870617298,22.867034342004843
6.279757895077418,3.7641883418485915,5.526134960043684,-0.8448586595857174,-8.445077482158656,22.58443566362182
6.317399778495904,3.679737567027005,5.517686373447828,-0.6190143029494992,-8.218270987865852,22.228436414339132
6.354197154166174,3.5975548571483467,5.511496230418333,-0.39672993880610785,-8.017440492991028,21.829965024741213
6.390172702737658,3.517380452218436,5.507528931030271,-0.17843028855869572,-7.857101795780137,21.408307032740446
6.425346507259842,3.438809434260635,5.505744628144685,0.03565278176870873,-7.745782446964201,20.974751993590722
6.459734601602449,3.361351609790993,5.506101155962372,0.24540030170461596,-7.687900586534355,20.535309636863374
6.493348117700359,3.284472603925649,5.508555158979418,0.4507533980732497,-7.685085242689682,20.09265807709523
6.526192843739615,3.207621751498752,5.513062692960151,0.651679978844202,-7.737079709548969,19.647509105974446
6.558269061254602,3.1302509544032624,5.519579492748593,0.8481550699039465,-7.842349127025654,19.199550730003978
6.589571570798635,3.051827463133006,5.528061043447633,1.0401505772039863,-7.998485566939844,18.748090703292334
6.620089845429965,2.9718426074636075,5.538462549219673,1.2276314842369096,-8.202478574478906,18.292491067520846
6.649808271504601,2.8898178217188186,5.550738864062042,1.410556394912118,-8.450898994608828,17.83245689680234
6.67870644972179,2.8053088317727304,5.564844428011163,1.5888809638801416,-8.740028968943552,17.368222702542106
6.706759538039517,2.7179085420832947,5.580733237649965,1.7625631909055626,-9.065960260838565,16.90066607058328
6.73393862346035,2.6272489394749092,5.5983588695590205,1.9315698516113953,-9.424675490913565,16.43136864851064
6.7602111128550995,2.5330021845657735,5.6176745680751345,2.0958835380965017,-9.812121543829088,15.962638326837196
6.7855411347007575,2.434880969127483,5.638633403456099,2.2555099213648737,-10.224280661451562,15.497502390491436
6.809889944392032,2.3326381625129673,5.661188502669748,2.410484945269788,-10.657242083019964,15.03967883481368
6.833216326017162,2.226065741682768,5.685293352122446,2.560881733617925,-11.10727519305476,14.593531418609686
6.85547698343399,2.11499298975222,5.710902169458625,2.7068170478040217,-11.57090375931658,14.16401298381009
6.876626913331512,1.9992839521590544,5.737970339936665,2.8484571776421226,-12.04497981891556,13.756600822160669
6.896619752853102,1.8788341539698987,5.766454911713087,2.986023185863729,-12.526754969532952,13.377227190066298
6.9154080943928005,1.7535666042745692,5.796315143571724,3.119795457764392,-13.013946124827235,13.032207269727115
6.932943760435546,1.623427143026297,5.827513098149368,3.2501175304616634,-13.504792067740404,12.728165757088533
6.949178031865809,1.488379222348893,5.860014273453985,3.3773991880325487,-13.998096218149652,12.471961606154863
6.964061824089298,1.3483982601673965,5.893788265334311,3.5021188040940974,-14.493249697097232,12.270607990639439
6.977545806690972,1.2034657631964243,5.928809453375251,3.6248248840004917,-14.990226698152188,12.13118085679773
6.989580464322936,1.0535634962149023,5.965057702215256,3.746136692568469,-15.48954090358203,12.060703946378993
7.000116099285084,0.898668087179082,6.002519069140941,3.8667437320322593,-15.992146536694852,12.065989989118385
7.0091027801568755,0.7387466218121335,6.041186506461264,3.987403631923443,-16.49925965586119,12.15340560432649
7.016490246374997,0.5737540252535216,6.081060542780498,4.108937687966708,-17.012063112011038,12.32850944078295
7.022227786627532,0.4036333941334112,6.122149919660165,4.232222782374537,-17.531240381790667,12.595486643384698
7.026264120568866,0.22832099031550454,6.16447214748391,4.358177648808383,-18.056257000740647,12.956264595530872
7.028547330472021,0.04775842030809807,6.2080539239719945,4.487740294763692,-18.584271306553266,13.409141623859636
7.029024914675102,-0.13808429275743458,6.252931326919631,4.621831711002288,-19.10850783167035,13.946690260774204
7.0276440717475275,-0.32916937107413813,6.299149644029654,4.76129861361003,-19.61587123688278,14.552614762452178
7.024352378036786,-0.5253280834429659,6.346762630165754,4.906824761234552,-20.08353402955242,15.197172298645066
7.019099097202357,-0.7261634237384901,6.3958308777781,5.058796484221003,-20.47424644561896,15.8307747060323
7.011837462964972,-0.9309058881946797,6.44641884262031,5.217104231281326,-20.73030343045496,16.375625994954973
7.002528404083026,-1.1382089224992293,6.498589884933123,5.380860491230876,-20.766680350760257,16.716023027159444
6.9911463148580335,-1.345875726006832,6.552398489845432,5.54802072150247,-20.465167337832515,16.689745085887782
6.9776875575979656,-1.5505273993851572,6.607878697060457,5.714918172361348,-19.67376186398677,16.086311149827143
6.962182283604114,-1.7472650180250249,6.665027878784071,5.875781283859619,-18.21896606952614,14.662610923915134
6.944709633423863,-1.9294546787202862,6.723785691622667,6.022407393098771,-15.94097820463694,12.189790396047332
6.925415086636661,-2.0888644607666556,6.784009765553654,6.144305297059244,-12.757603226241566,8.539756660627459
6.9045264420289945,-2.2164404930290713,6.8454528185242465,6.229702863665518,-8.74466413135058,3.7950085808537635
6.882362037098703,-2.303887134342577,6.907749847160901,6.267652949474056,-4.190413265130151,-1.6761704263982011
6.859323165755278,-2.3457912669938787,6.970426376655642,6.250891245210074,0.43428015896511063,-7.258905347769514
6.835865253085339,-2.341448465404228,7.032935289107742,6.178302191732379,4.6093872133984854,-12.2718702370611
6.812450768431297,-2.295354593270243,7.0947183110250664,6.0555834893617675,7.938454844032689,-16.200165383655598
6.7894972224985946,-2.2159700448299158,7.155274145918684,5.893581835525212,10.254049887214688,-18.835683364399888
6.767337522050296,-2.1134295459577688,7.214209964273936,5.705225001881213,11.60628942299616,-20.258684043324934
6.746203226590718,-1.9973666517278073,7.271262214292748,5.502638161447964,12.175098845864955,-20.71752286394861
6.72622956007344,-1.8756156632691576,7.3262885959072275,5.295462932808477,12.176986595134315,-20.503157211715564
6.707473403440749,-1.7538457973178145,7.379243225235312,5.090431360691322,11.806181802287115,-19.87159350065614
6.68993494546757,-1.6357839792949433,7.430147538842225,4.891715425684761,11.2121211748932,-19.01574853624732
6.673577105674621,-1.5236627675460113,7.4790646930990725,4.701557940322288,10.499210605986299,-18.066930106938955
6.658340477999161,-1.4186706614861482,7.526080272502296,4.520888639252898,9.735588231871365,-17.10779876717202
6.6441537713843,-1.3213147791674345,7.571289158894825,4.349810651581178,8.963302808413776,-16.18667563075597
6.630940623592625,-1.2316817510832967,7.614787265410636,4.1879438952736185,8.206865272703666,-15.329282004572368
6.618623806081793,-1.14961309835626,7.6566667043633725,4.034651075227895,7.479524436224174,-14.547199873768168
6.60712767509823,-1.0748178539940183,7.697013215115652,3.8891790764902137,6.787551626333976,-13.843548163622607
6.596379496558289,-1.0069423377306785,7.735905005880554,3.750743594853988,6.133042019456946,-13.216623994656542
6.586310073180982,-0.9456119175361091,7.773412441829094,3.6185773549074223,5.515694390082293,-12.66216489171915
6.576853954005621,-0.8904549736352861,7.809598215378168,3.4919557059902306,4.933917432891632,-12.174716352218974
6.567949404269268,-0.8411157993063698,7.844517772438071,3.370208542468041,4.385503720014328,-11.748434869511339
6.559538246276205,-0.7972607621062265,7.878219857862751,3.2527241937729277,3.868030796244656,-11.377541675123108
6.551565638655142,-0.75858045414378,7.9107470998004805,3.1389487770216964,3.379092252776241,-11.056563964101088
6.5439798341137045,-0.7247895316160176,7.9421365875706975,3.0283831373806853,2.916424073717087,-10.780449059325733
6.536731938797544,-0.6956252908788467,7.9724204189445045,2.920578646787428,2.477967312877309,-10.544604279804904
6.5297756858887555,-0.6708456177500737,8.001626205412379,2.8151326039893787,2.0618927431031717,-10.344894763364737
6.523067229711255,-0.650226690319042,8.029777531452272,2.7116836563557314,1.6666033978003902,-10.17761874311863
6.516564962808064,-0.6335606563410381,8.05689436801583,2.609907468924545,1.2907248212251283,-10.0394719049781
6.510229356244654,-0.6206534081287868,8.082993442705074,2.509512749874764,0.933089024303126,-9.927507622123102
6.504022822163366,-0.6113225178857555,8.108088570203822,2.410237673653533,0.5927157575064379,-9.839096916982447
6.497909596984508,-0.6053953603106912,8.132190946940357,2.3118467044837083,0.2687932269012332,-9.771890221954093
6.491855643381401,-0.6027074280416789,8.155309413985194,2.2141278022641675,-0.03934054189661899,-9.7237819497235
6.485828569100984,-0.603100833460645,8.177450692007834,2.1168899827669323,-0.33221505505205684,-9.692878265432652
6.479797560766378,-0.6064229840111656,8.198619591835504,2.019961200112606,-0.6102431269144037,-9.67746810438024
6.473733330926266,-0.6125254152803096,8.21881920383663,1.9231865190688036,-0.8737349994698885,-9.675997294040679
6.467608076773463,-0.6212627652750085,8.238051069027318,1.8264265461283968,-1.1229108446992457,-9.687045552163832
6.4613954491207135,-0.6324918737220009,8.256315334488601,1.7295560906067584,-1.3579117579900406,-9.70930610291022
6.455070530383494,-0.6460709913019013,8.273610895394668,1.6324630295776563,-1.5788093859918344,-9.741567655372119
6.448609820470475,-0.6618590851618196,8.289935525690446,1.535047353023935,-1.7856143473297017,-9.782698508130991
6.441991229618857,-0.6797152286351166,8.305285999220684,1.4372203679426252,-1.978283607407706,-9.831632570447335
6.435194077332506,-0.6994980647091936,8.319658202900111,1.338904042238152,-2.1567269640824422,-9.887357119762838
6.428199096685414,-0.7210653343500181,8.333047243322493,1.2400304710405237,-2.3208127922949204,-9.948902143234887
6.420988443341914,-0.7442734622729673,8.3454475480329,1.1405414496081747,-2.4703731846507933,-10.015331136277531
6.413545708719184,-0.7689771941194753,8.356852962528981,1.0403881382453994,-2.60520861253325,-10.085733252698757
6.405855936777989,-0.7950292802448078,8.367256843911434,0.9395308057184119,-2.725092219282268,-10.159216718700643
6.397905643975541,-0.8222802024376304,8.376652151968619,0.8379386385314054,-2.8297738436885242,-10.23490343679138
6.389682841951164,-0.8505779408745157,8.385031538353934,0.7355896041634916,-2.918983858809751,-10.311924715811962
6.381177062542419,-0.8797677794626132,8.392387434395568,0.632470357005372,-2.9924368981428433,-10.389418070217866
6.372379384747793,-0.9096921484440417,8.39871213796562,0.5285761763031933,-3.0498355286834067,-10.46652503599191
6.363282463263353,-0.9401905037308758,8.403997899728653,0.4239109259432742,-3.090873918591156,-10.54238995268645
6.353880558226044,-0.9710992429167873,8.408237008988086,0.3184870264164097,-3.115241536284443,-10.616159661740262
6.344169565796876,-1.0022516582796317,8.41142187925225,0.21232542979900706,-3.1226269080515414,-10.686984071058994
6.33414704921408,-1.033477927360147,8.41354513355024,0.10545558908841712,-3.1127214529276817,-10.75401753556538
6.323812269940478,-1.064605141889424,8.414599689441124,-0.0020845862672366766,-3.085223406858896,-10.816421003674064
6.313166218521584,-1.095457375958013,8.414578843578452,-0.11024879630397731,-3.03984184321955,-10.873364881027918
6.302211644762004,-1.1258557943902086,8.413476355615412,-0.2189824451142565,-2.9763007936503336,-10.92403256585412
6.290953086818101,-1.155618802326712,8.411286531164269,-0.3282227707727977,-2.894343471906157,-10.967624615326487
6.279396898794834,-1.1845622370457736,8.40800430345654,-0.4378990169260626,-2.793736603770584,-11.003363509536054
6.267551276424377,-1.2124996030834794,8.403625313287279,-0.5479326520214232,-2.674274867757558,-11.030498989026245
6.255426280393542,-1.239242351761055,8.398145986767064,-0.6582376419116857,-2.5357854537415707,-11.04831395302534
6.243033856875932,-1.2646002062984707,8.391563610347948,-0.768720781441939,-2.3781327490948394,-11.056130917896704
6.230387854812947,-1.288381533789419,8.383876402533529,-0.879282090620906,-2.201223163431474,-11.053319048009987
6.2175040394750525,-1.3103937654237339,8.37508358162732,-0.9898152811010059,-2.005010102562174,-11.039301783006813
6.2044001018208155,-1.3304438664493556,8.36518542881631,-1.100208298931074,-1.7894990985229744,-11.013565094828595
6.191095663156322,-1.3483388574345854,8.354183345827,-1.21034394987936,-1.554753094277818,-10.975666413245573
6.177612274581976,-1.3638863883773635,8.342079906328205,-1.3201006140118157,-1.3008978676648044,-10.925244258245908
6.163973410698202,-1.3768953670540116,8.328878900188087,-1.4293530565942747,-1.0281275582694887,-10.862028609838418
6.1502044570276615,-1.3871766426367065,8.314585369622144,-1.537973342692659,-0.7367102323641146,-10.785852029144422
6.136332690601295,-1.3945437449603477,8.299205636195216,-1.6458318629841031,-0.4269933844815513,-10.696661518074684
6.122387253151691,-1.3988136788051633,8.282747317565375,-1.75279847816485,-0.09940922981604948,-10.594531068010975
6.10839911636364,-1.3998077711033237,8.265219332783728,-1.8587437888449598,0.24552040959430743,-10.479674801187523
6.094401038652607,-1.3973525670073805,8.246631894895279,-1.963540536856835,0.6071798782619571,-10.352460553387612
6.080427512982533,-1.391280768224761,8.22699648952671,-2.067065142390711,0.9848564322797058,-10.21342368582169
6.0665147053002855,-1.381432203901964,8.206325838102803,-2.169199379248928,1.3777383255463682,-10.063280851604336
6.052700383261266,-1.3676548206465002,8.184633844310314,-2.2698321877649716,1.784914658669366,-9.9029433833314
6.039023835054801,-1.3498056740598066,8.161935522432664,-2.3688616215982856,2.205377453401925,-9.733529919237291
6.025525778314202,-1.3277518995257873,8.138246906216681,-2.4661969207906584,2.638026441096709,-9.55637785348524
6.012248259318945,-1.3013716351148201,8.113584937008774,-2.561760699325511,3.0816770585421907,-9.373053188914048
5.9992345429677965,-1.2705548645293983,8.08796733001552,-2.6554912312146515,3.535072124492591,-9.185358395456168
5.986528994322502,-1.2352041432844723,8.061412417703373,-2.747344815169213,3.996897622434148,-8.995337941008334
5.974176952889658,-1.1952351670601309,8.03393896955168,-2.8372981945792963,4.465802938948813,-8.805281268728129
5.962224601219057,-1.1505771376706428,8.005565987605888,-2.9253510072665776,4.940425804392156,-8.617723148192031
5.950718829842351,-1.1011728796267213,7.976312477533222,-3.011528238748498,5.419422058515637,-8.435441527360528
5.939707101046084,-1.0469786590415648,7.946197195145737,-3.095882654022103,5.901500226397776,-8.261453254450183
5.929237314455668,-0.9879636567775871,7.915238368605515,-3.178497186566605,6.385460750954395,-8.099008317051188
5.919357677887892,-0.9241090492680432,7.883453396739849,-3.2594872697371167,6.870239601289866,-7.951583550866586
5.910116587395212,-0.8554066532551445,7.850858524042478,-3.3390031052457827,7.354955876803591,-7.822877091117987
5.901562520862661,-0.7818570944871086,7.81746849299002,-3.4172318761569627,7.838962971273662,-7.716805164099005
5.8937439499177895,-0.7034674647743719,7.78329617422845,-3.4943999277979527,8.321902864014062,-7.63750313338648
5.886709275270046,-0.6202484361342313,7.748352174950471,-3.5707749591318176,8.80376317879922,-7.589333015675953
5.880506790908703,-0.5322108043462391,7.712644425359152,-3.646668289288577,9.28493680318484,-7.5768999588456
5.875184682865241,-0.43936143631439073,7.676177742466266,-3.722437288877033,9.766284092262476,-7.605080426340879
5.870791068502097,-0.34169859539176595,7.638953369577496,-3.798488093140442,10.249197984084429,-7.679065055295446
5.86737408254818,-0.23920661555092165,7.6009684886460915,-3.8752787436933964,10.735672709140095,-7.804419346043452
5.864982016392671,-0.1318498884595207,7.5622157012091575,-3.953322937153831,11.228377145793853,-7.987165481532873
5.863663517508075,-0.01956611700158216,7.522682471837619,-4.03319459196916,11.730734192252182,-8.233888623378707
5.863467856338059,0.09774122492093966,7.482350525917927,-4.115533478202947,12.2470076821218,-8.55187088910027
5.864445268587269,0.22021130174215767,7.441195191135898,-4.201052187093949,12.782398173952767,-8.949255681368772
5.8666473816046905,0.34803528348168533,7.399184669264958,-4.2905447439076365,13.343148063263428,-9.435243724104696
5.8701277344395075,0.4814667641143196,7.356279221825882,-4.384897181148683,13.936654314093978,-10.020319327524183
5.87494240208065,0.6208333072552594,7.312430250014395,-4.485100374423925,14.5715826486802,-10.716499699631367
5.881150735153203,0.7665491337420615,7.267579246270156,-4.592265371420239,15.257968415277478,-11.5375890694288
5.888816226490624,0.9191288178948362,7.221656592555953,-4.707641262114527,16.007273253207195,-12.499398486009387
5.8980075146695725,1.0792015504269081,7.174580179934808,-4.832635246974621,16.832337125479906,-13.619853247205294
5.908799530173842,1.2475249216817073,7.126253827465062,-4.968833779446674,17.74711159667682,-14.918838249073234
5.921274779390659,1.4249960376484754,7.076565489670595,-5.1180221619374064,18.765963338297755,-16.41750069033903
5.935524739767144,1.612655671031453,7.025385268051221,-5.2821971688407965,19.90216329524798,-18.136492803576054
5.951651296477458,1.811677303983933,6.9725632963628135,-5.463562096876557,21.16486988534361,-20.09221465419977
