th1 (rad),w1 (rad/s),th2 (rad),w2 (rad/s),a1 (rad/s^2),a2 (rad/s^2)
4.049397490789185,-1.8052141348969435,3.8739265636740665,0.7993081932672412,8.078218092866528,-0.8329296179997592
4.031345349440215,-1.7244319539682782,3.881919645606739,0.7909788970872437,7.983008652973276,-0.8409738988953954
4.014101029900533,-1.6446018674385454,3.8898294345776114,0.7825691580982898,7.867064041186615,-0.803733922312978
3.9976550112261475,-1.5659312270266792,3.8976551261585946,0.77453181887516,7.7328829174095635,-0.7260374141002335
3.9819956989558807,-1.4886023978525835,3.9054004443473462,0.7672714447341576,7.583203952180721,-0.6129763928427671
3.9671096749773547,-1.4127703583307762,3.913073158794688,0.76114168080573,7.420869448918796,-0.4697037421509122
3.952981971394047,-1.3385616638415883,3.920684575602745,0.7564446433842208,7.248707686560182,-0.30125972931116124
3.939596354755631,-1.2660745869759864,3.9282490220365873,0.7534320460911091,7.0694387207088205,-0.11243494549155202
3.926935608885871,-1.1953801997688982,3.9357833424974986,0.7523076966361936,6.88560506405501,0.0923286893785171
3.914981806888182,-1.1265241491283482,3.9433064194638607,0.7532309835299787,6.699526094635711,0.3090009387635939
3.903716565396899,-1.059528888181991,3.9508387292991607,0.7563209929176147,6.513273332461522,0.5339948123958891
3.893121276515079,-0.9943961548573759,3.9584019392283367,0.7616609410415736,6.328662825385831,0.7641724799041213
3.883177314966505,-0.9311095266035175,3.9660185486387523,0.7693026658406148,6.147260636605513,0.9968316494800289
3.87386621970047,-0.8696369202374624,3.9737115752971586,0.7792709823354151,5.970397635229184,1.2296781732614346
3.8651698504980954,-0.8099329438851706,3.9815042851205127,0.7915677640680295,5.799190273682214,1.4607898922829203
3.8570705210592435,-0.7519410411483485,3.989419962761193,0.8061756629908587,5.6345646414771124,1.688575808609209
3.8495511106477602,-0.6955953947335773,3.9974817193911014,0.8230614210769508,5.477281706890275,1.9117337276986617
3.8425951567004244,-0.6408225776646745,4.0057123336018705,0.8421787583539374,5.32796222941121,2.1292086481705605
3.8361869309237777,-0.5875429553705624,4.01413412118541,0.863470844835643,5.187110311947464,2.3401534394134598
3.830311501370072,-0.5356718522510878,4.022768829633766,0.8868723792297776,5.055134951301624,2.543892756325794
3.8249547828475614,-0.48512050273807156,4.031637553426064,0.9123113067930355,4.932369241676685,2.739890689810804
3.8201035778201806,-0.4357968103213047,4.040760666493995,0.9397102136911436,4.819087100191265,2.9277223245795194
3.8157456097169677,-0.387605939319392,4.050157768630906,0.9689874369369388,4.715517530155325,3.1070491506260884
3.811869550323774,-0.34045076401783875,4.059847643000276,1.0000579284431996,4.621856532027809,3.2775981292600744
3.8084650426835953,-0.2942321986975607,4.069848222284707,1.0328339097358004,4.538276827046648,3.4391441286445477
3.8055227206966196,-0.2488494304270942,4.080176561382065,1.0672253510222458,4.464935585870781,3.5914954003633497
3.8030342263923487,-0.2042000745683864,4.090848814892287,1.1031403050258792,4.401980363294764,3.734481753989507
3.800992225646665,-0.16018027093543877,4.101880217942546,1.1404851225657744,4.34955343712625,3.867945090521655
3.7993904229373103,-0.11668473656417627,4.113285069168204,1.179164573470991,4.307794739730921,3.9917319702455103
3.7982235755716687,-0.07360678916686705,4.125076714902914,1.2190818931734462,4.276843558096803,4.10568791069995
3.79748750768,-0.030838353585899023,4.137267533834648,1.2601387722804456,4.256839164895165,4.209653132424306
3.797179124144141,0.01173003806305263,4.149868921557452,1.3022353036046885,4.247920530344481,4.30345949186191
3.7972964245247716,0.05420924336649744,4.162891274593499,1.3452698985233076,4.250225253459367,4.386928361052585
3.7978385169584365,0.0967114959010911,4.176343973578732,1.3891391821338335,4.263887841738056,4.459869232166352
3.7988056319174475,0.13935037431847166,4.190235365400071,1.433737874455497,4.289037460418497,4.522078841634729
3.800199135660632,0.18224074892265663,4.204572744144626,1.4789586628718443,4.3257952658019745,4.573340624084842
3.8020215431498587,0.22549870158067636,4.219362330773344,1.5246920691126926,4.374271431367747,4.613424321132151
3.8042765301656654,0.26924141589435385,4.234609251464471,1.570826312324014,4.434561970001176,4.642085585074305
3.806968944324609,0.3135870355943656,4.250317514587712,1.617247168174757,4.506745450170846,4.659065433372274
3.8101048146805527,0.3586544900960741,4.26648998626946,1.6638378225084798,4.590879697932351,4.664089427132349
3.8136913595815134,0.40456328707539757,4.283128364494544,1.7104787167798032,4.686998569942818,4.656866466089465
3.8177369924522675,0.45143327277482576,4.300233151662343,1.757047381440698,4.795108875127628,4.637087114117525
3.822251325180016,0.49938436152610205,4.31780362547675,1.8034182525818732,4.915187514308268,4.604421393113479
3.827245168795277,0.5485362366691847,4.335837808002569,1.849462466513008,5.047178898215038,4.558516009048121
3.832730531161969,0.599008025651335,4.354332432667698,1.8950476266034892,5.1909926952766305,4.498991001659557
3.838720611418482,0.6509179526041013,4.373282908933733,1.9400375366200848,5.346501951953011,4.425435838110371
3.845229790944523,0.7043829721236314,4.392683284299934,1.9842918950011885,5.513541620818806,4.33740500021951
3.8522736206657595,0.7595183883318195,4.4125262032499455,2.027665945003384,5.69190752583253,4.234413143811351
3.8598688045490777,0.8164374635901448,4.43280286269998,2.0700100764414975,5.881355790967035,4.115929936467967
3.868033179184979,0.8752510214998152,4.453502963464395,2.111169375806177,6.0816027582966,3.9813747057335522
3.876785689399977,0.9360670490827812,4.474614657222457,2.150983122863513,6.292325425288039,3.8301110528966515
3.886146359890805,0.9989903033356615,4.496124488451092,2.1892842333924794,6.513162438808301,3.661441607292696
3.8961362629241614,1.0641219277237446,4.518017330785017,2.2258986494654063,6.74371569539846,3.474603112210863
3.9067774822013988,1.1315590846777293,4.5402763172796705,2.260644680587515,6.983552613573973,3.268762045709848
3.9180930730481762,1.201394610813469,4.562882764085546,2.293332301044613,7.2322091638981805,3.0430109878726945
3.9301070191563108,1.2737167024524507,4.585816087095992,2.32376241092334,7.489193765624155,2.7963659503517526
3.942844186180835,1.3486086401086923,4.609053711205226,2.3517260704268574,7.753992183744102,2.5277648847252245
3.9563302725819223,1.4261485619461334,4.6325709719094945,2.37700371927411,8.026073585879987,2.236067583639564
3.9705917582013837,1.5064092978049333,4.656341009102236,2.3993643951105055,8.30489794272407,1.9200571836098386
3.985655851179433,1.589458277232174,4.6803346530533405,2.418564966946604,8.589924976329597,1.578443471693451
4.0015504339517545,1.67535752699547,4.704520302722806,2.4343494016635385,8.880624874500773,1.2098681915689649
4.018304009221709,1.7641637757404776,4.728863796739442,2.446448083579228,9.176490993122002,0.812912540209778
4.035945646979114,1.8559286856716977,4.753328277575235,2.454577208981326,9.477054756794098,0.3861070480225409
4.0545049338358305,1.9506992332396387,4.777874049665048,2.4584382794615514,9.78190293555933,-0.07205595127781678
4.074011926168227,2.048518262595232,4.802458432459663,2.457717719948773,10.09069741388219,-0.5631070209328257
4.0944971087941795,2.1494252367340536,4.827035609659151,2.452086649739445,10.403197466852026,-1.0885811839142805
4.11599136116152,2.2534572114025737,4.851556476156546,2.4412008379003023,10.719284403443112,-1.649995919688163
4.138525933275546,2.360650055437005,4.875968484535549,2.4247008787034208,11.038988207777683,-2.2488249630506454
4.162132433829917,2.4710399375147816,4.900215493322583,2.402212629072914,11.362515478863155,-2.8864669446179745
4.1868428332050645,2.584665092303413,4.924237619613312,2.3733479596267344,11.690277497708019,-3.564207397207992
4.212689484128099,2.7015678672804935,4.94797109920958,2.3377058856546546,12.022916581491986,-4.283171861306429
4.239705162800903,2.821797033095413,4.971348158066126,2.2948741670415904,12.361327936199043,-5.044266629058191
4.267923133131857,2.945410312457404,4.9942968997365424,2.2444315007510087,12.70667287469086,-5.848101889534699
4.297377236256431,3.0724770412043125,5.016741214744052,2.1859504818556617,13.06037735868881,-6.694889424927359
4.328102006668474,3.2030808147912007,5.038600719562609,2.119001587606388,13.424107112104592,-7.584303205757218
4.360132814816386,3.3373218859122464,5.059790735438673,2.043158555548816,13.799706706710364,-8.515285763447931
4.393506033675508,3.4753189529793502,5.080222320994161,1.9580056979143365,14.189084587394612,-9.485775446744618
4.428259223205302,3.6172097988532963,5.099802377973305,1.8631479434468903,14.594018398211707,-10.49231879973752
4.464431321193835,3.7631499828354134,5.118433857407774,1.7582247554495152,15.015844497214836,-11.529517432638333
4.502062821022189,3.9133084278075616,5.136016104962269,1.642929581123132,15.454981523733828,-12.589239089734967
4.541195905300265,4.0678582430449,5.1524454007735,1.5170371902257822,15.910219976894568,-13.659497987281899
4.5818744877307145,4.226960442813846,5.167615772675758,1.3804422103529632,16.37768881388801,-14.722881594047728
4.624144092158853,4.390737330952726,5.181420194779287,1.233213394412486,16.849389797301892,-15.754375954702775
4.6680514654683805,4.5592312289257455,5.193752328723412,1.0756696348654582,17.311180644656968,-16.71843475810464
4.713643777757638,4.732343035372315,5.204509025072067,0.9084852872844118,17.74011097439952,-17.56518165099657
4.760967208111361,4.90974414511631,5.213593877944911,0.732833470774446,18.10111360437043,-18.225794086303694
4.810064649562524,5.090755281160014,5.220922212652655,0.5505755299114091,18.343301807219746,-18.607497383621705
4.860972202374125,5.274188299232211,5.22642796795177,0.36450055607519205,18.396626010738917,-18.58935002145581
4.913714085366447,5.4581545593396,5.230072973512521,0.17860705586063394,18.170500512934826,-18.021262564353993
4.968295630959843,5.639859564468948,5.231859044071127,-0.0016055697829059912,17.5571826785518,-16.73039229100089
5.024694226604533,5.815431391254466,5.231842988373298,-0.1689094926929149,16.44370483780626,-14.540493581714047
5.082848540517078,5.979868439632529,5.230153893446369,-0.31431442851005537,14.735743077341317,-11.309104744217702
5.142647224913403,6.127225870405942,5.227010749161268,-0.4274054759522324,12.392907240161966,-6.981633665504795
5.2039194836174625,6.2511549428075615,5.222736694401746,-0.4972218126072803,9.466313563454339,-1.6486811028325472
5.266431033045538,6.345818078442105,5.217764476275673,-0.5137086236356058,6.119158712728144,4.422015048098396
5.329889213829959,6.407009665569386,5.212627390039317,-0.4694884731546218,2.609232163494316,10.810422367445451
5.393959310485653,6.433101987204329,5.20793250530777,-0.3613842494801673,-0.7714259810102954,17.03363397845176
5.458290330357697,6.4253877273942255,5.204318662812969,-0.19104790969564966,-3.776185412110917,22.666016526725848
5.522544207631639,6.387625873273116,5.202408183716012,0.035612255571608825,-6.263369565472666,27.432056431585814
5.58642046636437,6.324992177618389,5.202764306271728,0.309932819887467,-8.210155921388694,31.23302835955322
5.649670388140554,6.242890618404503,5.205863634470603,0.6222631034829993,-9.685720374237881,34.11272862423063
5.712099294324599,6.146033414662124,5.212086265505433,0.9633903897253056,-10.807704857590084,36.196437969367324
5.77355962847122,6.037956366086224,5.221720169402686,1.3253547694189787,-11.703955265060888,37.63543687937604
5.833939192132082,5.920916813435615,5.234973717096876,1.7017091382127392,-12.48884590067469,38.57166452466863
5.893148360266438,5.796028354428868,5.251990808479004,2.0874257834594254,-13.253221877841039,39.1220628482887
5.951108643810727,5.663496135650457,5.2728650663135985,2.4786464119423126,-14.063062131063909,39.37600612077614
6.0077436051672315,5.522865514339818,5.297651530433022,2.872406473150074,-14.962282996655684,39.39927609511326
6.062972260310629,5.3732426843732615,5.326375595164523,3.2663992341012067,-15.976777024481095,39.240237141294415
6.116704687154362,5.213474914128451,5.359039587505535,3.658801605514151,-17.1182750139995,38.93594053015616
6.168839436295647,5.0422921639884555,5.395627603560676,4.048161010815712,-18.38753956056379,38.5172163210462
6.2192623579355315,4.858416768382818,5.436109213668834,4.433333174026174,-19.77684139986363,38.01249014310938
6.26784652561936,4.660648354384182,5.480442545409096,4.813458075457268,-21.271821211457198,37.450337037040235
6.314453009163202,4.44793014226961,5.528577126163668,5.18796144582767,-22.85283861738975,36.86084802588872
6.358932310585899,4.219401756095713,5.580456740621945,5.556569926086557,-24.495834519964504,36.27584555175358
6.401126328146856,3.974443410896068,5.636022439882811,5.919328381604093,-26.172616165594278,35.727886112490324
6.440870762255817,3.712717249240125,5.695215723698851,6.276607242728996,-27.85032361594133,35.247837316902164
6.477997934748219,3.4342140130807115,5.757981796126141,6.629085615898018,-29.489644843441877,34.86059438722993
6.512340074879026,3.1393175646462925,5.824272652285122,6.977691559770317,-31.041104767637037,34.57818294042092
6.543733250525489,2.828906516969922,5.894049567882825,7.323473389174526,-32.438469920283296,34.38907722817299
6.572022315695188,2.504521817767089,5.96728430177457,7.667364161456256,-33.588066181015215,34.242136423881
6.597067533872859,2.168641155956937,6.043957943389133,8.009785525695067,-34.35288602260405,34.0234873767265
6.618753945432428,1.8251122957308965,6.124055798646084,8.350020399462332,-34.53152127053051,33.52596642436684
6.637005068389737,1.4797970830255913,6.2075560026407075,8.685280063706001,-33.835846682040334,32.415619623873255
6.651803039219993,1.141438616205188,6.294408803277768,9.009436259944733,-31.88069331284578,30.21200787244194
6.663217425382045,0.8226316830767302,6.384503165877215,9.311556338669153,-28.215295027463863,26.321428527748157
6.671443742212812,0.5404787328020915,6.477618729263906,9.574770623946634,-22.44278249422621,20.185335158632476
6.676848529540833,0.31605090785982937,6.573366435503372,9.776623975532958,-14.458424903772737,11.587365124986057
6.680009038619431,0.171466658822102,6.6711326752587015,9.892497626782818,-4.736663945743412,1.0295049621996233
6.681723705207652,0.12410001936466787,6.77005765152653,9.902792676404815,5.570221323363209,-10.134928978555518
6.682964705401298,0.17980223259829997,6.869085578290578,9.80144338661926,14.9673199241752,-20.133715816500143
6.684762727727281,0.329475431840052,6.967100012156771,9.600106228454258,22.263188302374363,-27.60391799749686
6.688057482045681,0.5521073148637956,7.063101074441313,9.32406704847929,27.017257473910387,-32.142544508311836
6.693578555194319,0.8222798896028995,7.156341744926106,9.002641603396171,29.47748809900282,-34.1892942471214
6.701801354090349,1.1170547705929277,7.246368160960068,8.660748660924957,30.21641759692759,-34.53801832884475
6.712971901796278,1.4192189465622036,7.3329756475693175,8.31536847763651,29.814057480612416,-33.934996228692434
6.7271640912619,1.7173595213683277,7.416129332345682,7.976018515349585,28.71685886736618,-32.91717609416248
6.744337686475584,2.0045281100419894,7.495889517499178,7.64684675440796,27.22279757056117,-31.81163105104016
6.764382967576004,2.2767560857476012,7.572357985043257,7.328730443897559,25.51527393859534,-30.791244394545902
6.78715052843348,2.531908825133555,7.645645289482233,7.0208179999521,23.70228286937723,-29.931262103717184
6.812469616684815,2.768931653827327,7.715853469481754,6.721505378914928,21.846437618903682,-29.250484059995213
6.840158933223089,2.987396030016364,7.783068523270903,6.429000538314976,19.984632482266896,-28.737424697623513
6.870032893523252,3.187242354839033,7.847358528654053,6.141626291338741,18.139885296275335,-28.365819549759717
6.901905317071642,3.3686412078017867,7.90877479156744,5.857968095841144,16.328066331087534,-28.103482687416133
6.93559172914966,3.531921871112662,7.967354472525852,5.576933268966983,14.561504878507064,-27.917262144287186
6.970910947860787,3.6775369198977326,8.023123805215521,5.297760647524111,12.850764640583025,-27.775770281494214
7.007686317059765,3.8060445663035627,8.076101411690763,5.0200029447091685,11.20538148982074,-27.650852763826595
7.045746762722801,3.9180983812017702,8.126301441137855,4.743494417070902,9.634040903353439,-27.518330655283982
7.084927746534818,4.014438790235305,8.173736385308564,4.468311110518062,8.14447988731917,-27.358306250809267
7.125072134437171,4.095883589108497,8.218419496413745,4.19472804800997,6.743282147161359,-27.155190382495736
7.166030970328256,4.16331641058011,8.260366776893845,3.9231761441850126,5.435664446125424,-26.897539532797882
7.207664134434057,4.217673055041365,8.299598538335696,3.6542007488570336,4.225307842329736,-26.577756645231737
7.249840864984471,4.2599261334646625,8.336140545824266,3.388423182404716,3.114259139405785,-26.19169346643627
7.292440126319117,4.291068724858721,8.370024777648313,3.1265062477403536,2.1029094832312314,-25.738185138485964
7.335350813567704,4.312097819691033,8.401289840125717,2.869124396355494,1.190045269452154,-25.218544357440933
7.378471791764614,4.323998272385555,8.429981084089272,2.6169389527810845,0.372959464633773,-24.636039990967156
7.42171177448847,4.327727867031892,8.456150473617082,2.3705785528714127,-0.3523921386848053,-23.99538235659023
7.464989053158789,4.324203945645044,8.479856259145796,2.1306247293055103,-0.9912061981197043,-23.302234025210126
7.508231092615239,4.314291883663847,8.50116250643885,1.897602389053409,-1.5496341866410979,-22.562761138200003
7.551374011451878,4.2987955417974355,8.520138530329385,1.6719747776714091,-2.0345851961576367,-21.783236151090314
7.594361966869852,4.278449689835859,8.536858278106099,1.4541424161605059,-2.453539510908173,-20.96969905583676
7.63714646376821,4.253914294726777,8.551399702267704,1.2444454256021382,-2.8143798441204417,-20.127680874040415
7.679685606715478,4.225770496285572,8.563844156523725,1.043168616861734,-3.1252435563356697,-19.261990860503758
7.721943311678333,4.194518060722216,8.574275842692343,0.8505487082566965,-3.394395644458138,-18.37656760692064
7.763888492285555,4.160574104277635,8.58278132977491,0.6667830321874901,-3.6301189100377367,-17.474394164938456
7.805494233328331,4.124272915177258,8.589449160096786,0.4920390905381056,-3.8406145438782073,-16.557478357808613
7.8467369624801035,4.085866769738476,8.594369551002167,0.32646430696001943,-4.033903474548213,-15.626901400718411
7.887595630177488,4.0455277349929935,8.597634194071768,0.1701952929528353,-4.217716379527252,-14.682940369670453
7.928050907527418,4.003350571197721,8.599336147001296,0.023365889256130784,-4.399358582807839,-13.725272225970343
7.968084413239396,3.959356985369643,8.599569805893857,-0.11388683300357266,-4.585535759388034,-12.753267919776533
8.007677983093092,3.9135016277757626,8.59843093756382,-0.241419512201338,-4.782128355260939,-11.76638303535855
8.04681299937085,3.8656803442231533,8.596016742441808,-0.35908334255492347,-4.9939081171364945,-10.764644622707575
8.085469802813082,3.8157412630517884,8.592425909016258,-0.4667297887819992,-5.224200373773151,-9.749220388999953
8.1236272154436,3.763499259314057,8.587758611128438,-0.5642219926719988,-5.474511518484969,-8.723035140046647
8.16126220803674,3.708754144129207,8.582116391201717,-0.6514523440724653,-5.744161968800392,-7.6913710797365304
8.198349749478032,3.6513125244412032,8.575601867760993,-0.7283660548698306,-6.02998776096608,-6.662357598406612
8.234862874722443,3.5910126468315426,8.568318207212295,-0.7949896308538967,-6.326192673675866,-5.647231418970706
8.27077300119076,3.527750720094784,8.560368310903756,-0.8514619450436038,-6.624438241073692,-4.660242432844188
8.306050508391708,3.461506337684047,8.55185369145332,-0.8980643693720457,-6.914241536038686,-3.718107905009048
8.340665571768549,3.39236392232366,8.5428730477596,-0.9352454484221362,-7.183704644542355,-2.8389855545853577
