th1 (rad),w1 (rad/s),th2 (rad),w2 (rad/s)
0.853259542184322,-0.27119585934914214,0.15679588751186438,2.5279065329514356
0.8505475835908306,-0.39679606085771035,0.18207495284137873,2.609425103442282
0.8465796229822535,-0.5242139857266593,0.20816920387580154,2.692649687828501
0.8413374831249869,-0.6534014429669849,0.23509570075408656,2.7777769341506646
0.8348034686953171,-0.7842500659768169,0.2628734700955932,2.8649125633457317
0.8269609680355489,-0.9165660687126129,0.29152259572905054,2.954034581383924
0.8177953073484228,-1.050037710679283,0.3210629415428898,3.044946245048658
0.8072949302416299,-1.1841947876183225,0.35151240399337635,3.1372177107609005
0.7954529823654467,-1.318360489239183,0.38288458110098533,3.23011669148579
0.7822693774730549,-1.4515979754631465,0.41518574801584324,3.3225312215681955
0.7677533977184234,-1.582657422236046,0.4484110602315252,3.41289235892216
0.751926823496063,-1.7099342972964942,0.4825399838207468,3.4991116656926495
0.7348274805230981,-1.8314558234536997,0.5175311004776733,3.578557040858085
0.7165129222885611,-1.9449182005972716,0.5533166708862541,3.6480984877769287
0.6970637402825884,-2.0477984249677745,0.5897976557640234,3.704257449473876
0.6765857560329107,-2.137556041805059,0.6268402302587622,3.74348184231153
0.6552101956148602,-2.211917463591912,0.6642750486818776,3.7625375965808034
0.633091020978941,-2.269200501488211,0.7019004246476857,3.75895890952512
0.6103990159640589,-2.3086027147074932,0.7394900137429369,3.7314518280737383
0.5873129888169839,-2.330366073397285,0.7768045320236743,3.680129800892272
0.5640093280830111,-2.335758613992439,0.813605830032597,3.606498345052419
0.5406517419430867,-2.326874454497999,0.8496708134831212,3.5131897001460843
0.5173829973981068,-2.3063155353377973,0.884802710484582,3.4035340851354148
0.4943198420447288,-2.2768482516104185,0.9188380513359362,3.2810954727365274
0.4715513595286246,-2.2411154308384487,0.9516490060633015,3.14928236446089
0.4491402052202401,-2.201445392420476,0.9831418297079104,3.011090754765331
0.42712575129603536,-2.1597604369730665,1.0132527372555638,2.8689823426472087
0.4055281469263047,-2.1175628866610676,1.0419425606820358,2.7248678849948957
0.384352518059694,-2.075969594840167,1.0691912395319847,2.580155864821399
0.36359282211129235,-2.0357696088882635,1.0949927981801988,2.4358319532446173
0.3432351260224097,-1.9974875075913754,1.119351117712645,2.292545562018814
0.3232602509464959,-1.961442464515237,1.142276573332833,2.1506901083627405
0.3036458263013435,-1.9277985937965916,1.1637834744164604,2.010471117667566
0.2843678403633776,-1.896605503014992,1.183888185593136,1.871960847515939
0.26540178533322767,-1.8678297243486062,1.2026077940682953,1.7351404531996772
0.2467234880897416,-1.8413784116459135,1.219959198600292,1.59993165025334
0.22830970397328246,-1.8171168373494992,1.2359585151028254,1.4662199959451359
0.21013853559978746,-1.7948810976882879,1.2506207150622768,1.3338717166697833
0.19218972462290457,-1.7744872080568754,1.2639594322289747,1.202745683406949
0.17444485254233583,-1.7557375303238685,1.2759868890630441,1.0727017999845256
0.15688747723909713,-1.7384252584732736,1.2867139070628895,0.9436067695741848
0.13950322465436438,-1.722337511105993,1.2961499747586314,0.8153379594691336
0.12227984954330445,-1.7072574391432795,1.3043033543533227,0.6877858920758047
0.10520727515187166,-1.6929656497543326,1.3111812132740808,0.5608557439559608
0.08827761865432833,-1.6792411668651335,1.3167897707136405,0.4344681258088669
0.071485206985677,-1.665862088655949,1.3211344519717292,0.3085593361542739
0.0548265860991175,-1.6526060581714117,1.324220045333272,0.1830812231621216
0.038300525517403386,-1.6392506305134293,1.3260508575648933,0.05800074702064725
0.021908019212269092,-1.6255735959530102,1.3266308650350997,-0.06670069481182639
0.0056522832527389905,-1.6113533003413194,1.3259638580869815,-0.19102813835174354
-0.010461249750674202,-1.596368990689012,1.324053576703464,-0.314974093473398
-0.02642493965756432,-1.5804012034472825,1.32090383576873,-0.43851973759824137
-0.04222895169203715,-1.563232204944987,1.3165186383927476,-0.5616362529159808
-0.057861273741487015,-1.5446464869546366,1.3109022758635878,-0.6842863013805568
-0.07330773861103337,-1.5244313150095,1.3040594128497822,-0.8064256338880034
-0.08855205176112838,-1.502377322549947,1.2959951565109022,-0.9280048308676305
-0.10357582498662785,-1.4782791400199422,1.286715108202226,-1.0489711713958603
-0.11835861638682726,-1.451936044522265,1.2762253964882673,-1.1692706271820388
-0.1328779768320499,-1.4231526124893117,1.2645326902164469,-1.2888499766281911
-0.14710950295694303,-1.391739354993793,1.251644190450165,-1.4076590328408871
-0.16102689650688096,-1.35751331280088,1.2375676001217562,-1.5256529781567383
-0.17460202963488974,-1.3202985860646987,1.2223110703401887,-1.6427947965975191
-0.18780501549553674,-1.2799267717296305,1.2058831223742135,-1.7590577948446686
-0.20060428321283305,-1.236237280255998,1.1882925444257668,-1.8744282019485696
-0.21296665601539302,-1.189077502306516,1.1695482624062812,-1.9889078381792928
-0.22485743103845818,-1.1383027955705183,1.1496591840244883,-2.1025168442700743
-0.23624045899416335,-1.083776262046066,1.1286340155817876,-2.2152964638522064
-0.247078221614624,-1.0253682869434144,1.1064810509432654,-2.327311874123105
-0.2573319044840581,-0.9629558120474384,1.0832079322020345,-2.4386550626369616
-0.2669614626045325,-0.8964213190686443,1.0588213815756649,-2.549447751344095
-0.275925675795219,-0.8256515025059082,1.033326904062224,-2.6598443722312335
-0.28418219082027807,-0.7505356172833096,1.0067284603399116,-2.7700351014571245
-0.29168754699311117,-0.6709634946141871,0.9790281093253403,-2.880248959653233
-0.298397181939253,-0.5868232313124211,0.950225619728808,-2.990756983367837
-0.30426541425237724,-0.4979985748999525,0.9203180498951297,-3.1018754638360373
-0.3092454000013768,-0.4043660521716941,0.8892992952567693,-3.213969230286628
-0.31328906052309374,-0.305791926803836,0.857159602953903,-3.327454919573711
-0.3163469797911321,-0.2021291290461668,0.8238850537581659,-3.4428041123710638
-0.31836827108159377,-0.09321438826940293,0.7894570126344552,-3.5605461135704646
-0.3193004149642878,0.021134066249090963,0.7538515514987506,-3.6812699878903015
-0.3190890743017969,0.14111766392478028,0.7170388516198476,-3.805625195703748
-0.3176778976625491,0.26695662029967815,0.6789825996628102,-3.9343197548133277
-0.3150083314595523,0.3988856551805069,0.6396394021146768,-4.068114200001725
-0.31101947490774723,0.5371441809770396,0.5989582601146596,-4.207808603576911
-0.30564803309797683,0.681957723132921,0.5568801740788905,-4.354218385869912
-0.29882845586664764,0.8335056836253283,0.5133379902201913,-4.508132357346101
-0.29049339903039434,0.9918681961400095,0.4682566666467303,-4.670243130854002
-0.28057471706899423,1.1569416237043872,0.4215542353381903,-4.841035523013919
-0.26900530083195034,1.3283083575181969,0.3731438801080511,-5.020612975031105
-0.25572221725676836,1.5050429014978892,0.3229377503577401,-5.208436553509379
-0.24067178824178947,1.6854355081434573,0.2708533848226463,-5.402949430525468
-0.2238174331603549,1.8666232743802642,0.21682389051739165,-5.601070655445539
-0.20515120041655227,2.0441489395111043,0.16081318396293626,-5.797582556625602
-0.18470971102144124,2.211537731878525,0.10283735839668023,-5.984531486301285
-0.16259433370265597,2.360105089682531,0.04299204353366738,-6.150929966027752
-0.13899328280583065,2.479353147496343,-0.018517256126610135,-6.283249617253694
-0.11419975133086721,2.5583481948422957,-0.08134975229914708,-6.367245474807823
-0.08861626938244425,2.5881555070069204,-0.1450222070472253,-6.3912229135950245
-0.06273471431237505,2.5646377304478922,-0.20893443618317553,-6.349803751902164
-0.03708833700789613,2.4901781922596378,-0.27243247370219714,-6.246229760175039
-0.012186555085299748,2.3731315296650943,-0.3348947713039475,-6.091580921848727
0.011544760211351195,2.2252291677607206,-0.3958105805224348,-5.901243312205614
0.0337970518889584,2.0584672834097963,-0.45482301364449096,-5.690725193959034
0.054381724723056364,1.8829313453382064,-0.5117302655840813,-5.472788328931515
0.07321103817643843,1.7059836162520694,-0.5664581488733964,-5.256440369356931
0.09027087433895911,1.5324255623605934,-0.6190225525669657,-5.047231591593782
0.10559512996256505,1.365074593847248,-0.6694948684829035,-4.848083886483944
0.11924587590103752,1.205380660285803,-0.717975707347743,-4.66014751286552
0.13129968250389557,1.0539252600295235,-0.7645771824763982,-4.483481031497162
0.1418389351041908,0.9107748435508994,-0.8094119927913698,-4.3175246655066255
0.15094668353969978,0.7757122601682803,-0.852587239446436,-4.161404736741594
0.15870380614138258,0.6483805059659824,-0.8942012868138519,-4.0141187623557375
0.1651876112010424,0.528368210748488,-0.9343424744374093,-3.8746426059827215
0.17047129330852728,0.41525819417892884,-0.9730889004972365,-3.741989134245773
0.17462387525031658,0.30865333415472196,-1.0105087918396942,-3.615237736595396
0.1777104085918638,0.208188840598725,-1.0466611692056482,-3.493546869085214
0.17979229699785104,0.1135365866869929,-1.0815966378965003,-3.376157042564373
0.18092766286472098,0.024404949695449887,-1.115358208322144,-3.262388685828702
0.18117171236167548,-0.059463757867940684,-1.1479820951804312,-3.1516374758989074
0.18057707478299606,-0.13829702861360274,-1.1794984699394202,-3.0433686160261746
0.17919410449686005,-0.21229634639330797,-1.2099321560996819,-2.937110878597476
0.17707114103292695,-0.2816414020809285,-1.2393032648856566,-2.8324508392376466
0.17425472701211767,-0.34649410868093355,-1.267627773278033,-2.7290275018516055
0.17078978592530833,-0.4070022960838012,-1.294918048296549,-2.626527386206033
0.16671976296447033,-0.4633030310435352,-1.3211833221586093,-2.5246800800371694
0.16208673265403498,-0.5155255459171457,-1.346430122958981,-2.423254222547967
0.15693147719486353,-0.5637937813640211,-1.3706626651844607,-2.3220538710596466
0.1512935393812233,-0.6082285601978364,-1.393883203895057,-2.220915198825421
0.14521125377924493,-0.6489494159122331,-1.4160923558833112,-2.119703474399552
0.1387217596201226,-0.6860761024499266,-1.4372893906273068,-2.018310278388465
0.13186099859562334,-0.7197298129602023,-1.4574724934111913,-1.9166509200696522
0.12466370046602131,-0.7500341354073036,-1.4766390026118879,-1.8146620231952235
0.11716335911194826,-0.7771157724132579,-1.49478562284384,-1.7122992567140474
0.10939220138781569,-0.8011050518961417,-1.5119086154109806,-1.609535191846395
0.10138115086885427,-0.8221362540323571,-1.5280039673294445,-1.5063572717970353
0.0931597883285307,-0.840347778897746,-1.543067540047415,-1.4027658843695736
0.08475631053955324,-0.8558821778627785,-1.5570951988911108,-1.2987725308809843
0.07619748876092546,-0.868886070452565,-1.5700829241999206,-1.1943980871403672
0.0675086280563998,-0.879509966949372,-1.5820269050713243,-1.0896711539379627
0.058713528386906084,-0.8879080155301988,-1.592923616610704,-0.9846264955847783
0.049834448231604093,-0.8942376912132167,-1.6027698815665516,-0.8793035656454968
0.04089207131947192,-0.8986594423548002,-1.6115629172230066,-0.7737451192088689
0.03190547689592392,-0.9013363089148833,-1.6193003684150953,-0.6679959109244571
0.02289211380677509,-0.9024335252137525,-1.6259803275243399,-0.562101477677158
0.013867778554637564,-0.902118118458309,-1.6316013423011115,-0.45610700423632833
0.004846597370054474,-0.9005585129383806,-1.6361624123434748,-0.3500562695595182
-0.0041589877593293315,-0.8979241484992957,-1.63966297503907,-0.2439906706971394
-0.01313822924432229,-0.8943851206980332,-1.6421028817460415,-0.13794832047040997
-0.022082080451302624,-0.8901118489561264,-1.6434823649507455,-0.03196321430931745
-0.03098319894086389,-0.8852747780392682,-1.6438019970938387,0.07393553913791298
-0.03983594672125657,-0.8800441173244076,-1.6430626417024596,0.17972442976088604
-0.04863638789450065,-0.8745896215603081,-1.6412653974048508,0.2853862069554843
-0.05738228411010373,-0.8690804161845316,-1.638411535335296,0.3909104973138189
-0.06607308827194905,-0.8636848697231068,-1.6345024303621578,0.49629438715272045
-0.07470993696918012,-0.8585705153600541,-1.6295394864906305,0.601542978545148
-0.08329564212278065,-0.8539040234098679,-1.623524056705179,0.7066699279985434
-0.09183468235687933,-0.84985122613954,-1.6164573574251935,0.8116979773261868
-0.10033319461827474,-0.8465771961437845,-1.6083403776519316,0.9166594865667954
-0.10879896657971258,-0.8442463792449852,-1.5991737827862638,1.0215969790000734
-0.11724143037216243,-0.8430227826229654,-1.588957812996263,1.1265637083444262
-0.1256716581983921,-0.8430702185167342,-1.5776921759128186,1.2316242580504222
-0.13410236038355944,-0.844552603294473,-1.5653759333323145,1.3368551821332275
-0.14254788641650418,-0.8476343108385423,-1.5520073815109823,1.4423456960898187
-0.15102422952488959,-0.8524805778700771,-1.5375839245500842,1.5481984249308576
-0.15954903530359035,-0.8592579568046211,-1.5221019403007756,1.6545302129416313
-0.16814161487163656,-0.8681348086497859,-1.5055566381713592,1.7614729960609694
-0.17682296295813443,-0.8792818238513488,-1.4879419082107495,1.8691747321346592
-0.18561578119664793,-0.8928725521884189,-1.4692501608894029,1.9778003758951064
-0.19454450671853213,-0.9090839128478697,-1.4494721571304519,2.087532873089759
-0.20363534584701082,-0.9280966413009357,-1.4285968283995543,2.198574129919378
-0.21291631226002017,-0.9500956086059125,-1.4066110871003605,2.311145887248962
-0.2224172683460793,-0.9752699184886628,-1.3834996282278709,2.4254903901763525
-0.23216996753096594,-1.0038126440597974,-1.3592447243261074,2.541870687129083
-0.24220809397156393,-1.0359200037412541,-1.3338260174548167,2.660570311085364
-0.2525672940089765,-1.0717896870957877,-1.307220314343963,2.781891978028206
-0.26328519087993435,-1.1116179150144156,-1.2794013945636808,2.906154769385548
-0.27440137003007853,-1.155594640585251,-1.2503398468698255,3.0336890256205713
-0.28595731643593103,-1.2038960480234584,-1.2200029566136197,3.1648278405359456
-0.2979962769161656,-1.256673164168401,-1.1883546782082601,3.2998935770529587
-0.31056300855784963,-1.3140349353090242,-1.1553557424377305,3.4391771885077187
-0.32370335791093985,-1.3760235221585297,-1.1209639705526533,3.582907294332224
-0.33746359313252516,-1.4425788320536794,-1.0851348976093311,3.7312049251832287
-0.351889381453062,-1.5134885068248216,-1.047822848357499,3.8840187029759967
-0.3670242665213102,-1.5883189225636583,-1.008982661327739,4.041034225545094
-0.3829074557469468,-1.6663227117347617,-0.9685723190722881,4.201551225727936
-0.3995706828642944,-1.746319847092577,-0.9265568068150087,4.364323973535913
-0.4170338813352202,-1.8265541154718636,-0.8829135670796496,4.5273666984530205
-0.4352994224899388,-1.9045373618806885,-0.8376399000951195,4.687739988097741
-0.4543447961087457,-1.976912919200283,-0.7907625002141421,4.841359969485178
-0.47411392530074853,-2.0393977200138687,-0.7423489005192903,4.982910491480738
-0.4945079025008872,-2.0868928309782073,-0.6925197956044828,5.105980183039147
-0.5153768308106693,-2.1138630926019286,-0.6414599937740914,5.203561748013468
-0.5365154617366886,-2.1150413613885384,-0.5894243762939567,5.26898952448716
-0.557665875350574,-2.086381791182579,-0.5367344810490852,5.297212279225778
-0.5785296932623998,-2.0259993462025467,-0.4837623582568274,5.286042560841234
-0.5987896867244252,-1.9347145978019296,-0.43090193264841503,5.236864426248155
-0.6181368327024446,-1.8159220349187473,-0.3785332883859335,5.154420999863466
-0.6362960530516321,-1.6748130040259341,-0.3269890783872988,5.045734117298703
-0.6530441830918914,-1.5172931917929608,-0.2765317372143118,4.918627994987683
-0.668217115009821,-1.3490099312678756,-0.22734545726443495,4.780423941587246
-0.6817072143224997,-1.1747401110405313,-0.17954121784856247,4.637140504187556
-0.693454615432905,-0.9981630338191874,-0.1331698128066869,4.493221572029956
-0.7034362457710969,-0.8219053859748886,-0.08823759708638734,4.351630383569724
-0.7116552996308457,-0.6477209863754313,-0.0447212932506901,4.214118610307019
-0.7181325094946001,-0.4767045796223418,-0.0025801071476199075,4.081533291850769
-0.7228995552908235,-0.30948584191676176,0.03823522577088778,3.954090163147813
-0.7259944137099911,-0.14638388423169457,0.07777612740236592,3.8315887901121592
-0.727458252552308,0.012478947271914342,0.1160920153034875,3.7135698138008983
-0.7273334630795889,0.16709758839918387,0.1532277134414965,3.599424388174317
-0.7256624871955971,0.3175309963073505,0.18922195732323965,3.4884677241886277
-0.7224871772325236,0.4638678212981863,0.22410663456512592,3.3799871781642956
-0.7178484990195417,0.6062052728465057,0.25790650634676887,3.2732729521823285
-0.7117864462910767,0.7446369678957896,0.29063923586859214,3.1676372309360046
-0.7043400766121188,0.8792467918406359,0.3223156081779522,3.0624257852675156
-0.6955476086937125,1.0101067280824165,0.3529398660306273,2.9570247498298445
-0.6854465414128883,1.1372772681036394,0.3825101135289258,2.850864350859201
-0.6740737687318519,1.2608094652728414,0.4110187570375178,2.7434207224271914
-0.6614656740791235,1.3807480001006802,0.4384529642617897,2.634216521266688
-0.6476581940781166,1.497134827664637,0.46479512947445656,2.522820766813034
-0.6326868458014703,1.6100131123353014,0.4900233371425869,2.408848148246657
-0.6165867146781172,1.719431243832916,0.5141118186250535,2.2919579221121915
-0.5993924022397881,1.8254467877845784,0.5370313978461754,2.1718524508992463
-0.5811379343619423,1.9281302639285618,0.5587499223551678,2.0482753903466344
-0.5618566317226567,2.027568672906544,0.5792326762586342,1.9210095115799344
-0.5415809449935912,2.123868712682084,0.5984427713744335,1.7898741371731715
-0.5203422578667704,2.2171596407595646,0.6163415127461652,1.6547221736884583
-0.4981706614591747,2.3075957500275597,0.6328887344830498,1.5154367345483455
-0.47509470395889913,2.3953584347353565,0.6480431018285333,1.3719273646941734
-0.45114111961154557,2.480657828565856,0.661762375475475,1.2241259017498152
-0.426334541325887,2.5637339979993556,0.6740036344929732,1.0719820375963165
-0.40069720134589343,2.644857669409158,0.6847234548689364,0.9154586806262466
-0.37424862465180186,2.724330454914729,0.6938780416751988,0.7545272650244885
-0.34700532010265456,2.8024845160767504,0.7014233143254437,0.5891632134847191
-0.3189804749418871,2.879681560565623,0.7073149464602909,0.41934184049098355
-0.29018365933623086,2.9563109972264856,0.7115083648652007,0.24503509469160456
-0.260620549363966,3.032786968605049,0.7139587158121168,0.0662096956094233
-0.2302926796779155,3.109543821780227,0.714620812768211,-0.11717255714514452
-0.19919724146011322,3.1870293473776496,0.7134490871967596,-0.3051512058643817
-0.16732694798633674,3.2656947850671054,0.7103975751381157,-0.49775873953478933
-0.13467000013566569,3.3459801265794695,0.7054199877427678,-0.695005198151958
-0.10121019886987098,3.4282926046991626,0.6984699357612483,-0.8968527209558601
-0.06692727282287936,3.5129754049372295,0.6895014085516896,-1.1031758274458692
-0.03179751877350706,3.600262574513562,0.6784696502772309,-1.3137017827849715
0.0042051069716285625,3.6902149231487176,0.6653326324493812,-1.5279238148715824
0.04110725620311574,3.7826307208192267,0.6500533943006654,-1.7449786601701793
0.078933563411308,3.8769249489106947,0.6326036076989636,-1.9634799824753553
0.11770281290041495,3.971973296451593,0.61296880787421,-2.181302811776339
0.15742254586493087,4.065924759778766,0.5911557797564466,-2.39532515480824
0.19808179346271854,4.156003637947676,0.5672025282083643,-2.601156991597653
0.2396418298421953,4.238351910187699,0.5411909582923877,-2.7929295414027453
0.2820253489440723,4.308005588104786,0.5132616628783603,-2.9632776065675763
0.3251054048251201,4.359137980000805,0.4836288868126845,-3.1037026504950354
0.36869678462512817,4.3856974366209975,0.45259186030773413,-3.2054953540853925
0.41255375899133817,4.382457567413392,0.4205369067668802,-3.2612398175691806
0.4563783346654721,4.346263162400737,0.38792450859118843,-3.266588350244106
