th1 (rad),w1 (rad/s),th2 (rad),w2 (rad/s)
1.9333096142875248,-1.8772656919769743,0.7156263725892694,-1.8219129429722438
1.914536957367755,-1.9855439664177774,0.6974072431595469,-1.8156980393310975
1.8946815177035774,-2.0953667064205406,0.679250262766236,-1.8036169627826313
1.873727850639372,-2.2067103991041668,0.6612140931384097,-1.7852790513119075
1.8516607466483304,-2.319554669321319,0.6433613026252907,-1.7602842090027853
1.8284651999551171,-2.4338853482924048,0.6257584605352629,-1.7282235583483807
1.804126346472193,-2.5496980497257637,0.608476224951779,-1.6886800360389567
1.7786293659749355,-2.6670022894493473,0.5915894245913894,-1.6412288575612024
1.751959343080442,-2.7858261818271663,0.5751771360157774,-1.5854377624484435
1.7241010812621704,-2.9062217421770606,0.559322758391293,-1.5208669403911792
1.6950388638404,-3.0282708183130898,0.5441140889873812,-1.4470685309140132
1.664756155657269,-3.1520916648188484,0.5296434036782411,-1.363585589435802
1.6332352390090805,-3.2778461581878364,0.5160075477838831,-1.269950425648976
1.600456777427202,-3.405747625070557,0.5033080435273933,-1.1656822546924044
1.5663993011764965,-3.5360692118152857,0.4916512209804693,-1.0502841707911466
1.5310386090583437,-3.669152648147845,0.4811483792725578,-0.9232395779367513
1.4943470825768652,-3.8054171291723033,0.4719159834931903,-0.7840084264765738
1.4562929112851422,-3.945367821279455,0.46407589922842457,-0.632023962403713
1.4168392330723476,-4.089603128704024,0.45775565960438747,-0.4666912851514323
1.3759432017853073,-4.238819239900548,0.45308874675287314,-0.2873899704963543
1.3335550093863018,-4.3938094478494065,0.4502148470479096,-0.09348457218468434
1.2896169149078076,-4.5554540549136355,0.4492800013260628,0.11565067927530276
1.2440623743586712,-4.724693947536234,0.4504365081188158,0.3405826770752335
1.1968154348833089,-4.9024766086843785,0.45384233488956816,0.5817292132794932
1.1477906687964652,-5.089656733812024,0.45965962702236307,0.8392018153711815
1.0968941014583449,-5.286824129693689,0.4680516451760749,1.1125424210588954
1.044025860161408,-5.494019529050791,0.4791770693866638,1.4002980752548269
0.9890856648709002,-5.710287853624447,0.49318005013921207,1.6993632350963894
0.9319827863346557,-5.933020090450479,0.5101736824901759,2.004023856954804
0.8726525854301509,-6.157078352054907,0.530213921059724,2.3047030165434585
0.8110818019096018,-6.373838372515689,0.5532609512251586,2.5866121499482544
0.7473434181844449,-6.570581441874868,0.5791270727246411,2.82894220943159
0.6816376037656963,-6.73108425495373,0.6074164948189571,3.0058260044062646
0.6143267612161589,-6.838411708645026,0.6374747548630197,3.0905215292147457
0.5459426441297086,-6.880022865973138,0.6683799701551671,3.0629711377458917
0.4771424154699772,-6.85307916687288,0.6990096815326261,2.917686369617871
0.4086116238012484,-6.766236431600916,0.7281865452288048,2.6665667131502886
0.34094925948523924,-6.636148636359245,0.7548522123603076,2.3340147217263256
0.2745877731216468,-6.481202857753482,0.7781923595775709,1.9478886686942651
0.20977574454411196,-6.316575641149586,0.7976712462645136,1.5321898766642934
0.1466099881326161,-6.1523778887268685,0.8129931450311565,1.1041326454684772
0.08508620924534743,-5.9940837572974495,0.8240344714858413,0.6745420147167833
0.025145371672372935,-5.843809639858193,0.8307798916330091,0.24955536366948322
-0.033292724726209,-5.701555923536021,0.833275445269704,-0.16766063967172906
-0.0903082839615692,-5.566118401727534,0.8315988388729867,-0.5756278363880705
-0.14596946797884455,-5.4356743262753096,0.825842560509106,-0.9737265508485853
-0.20032621124159766,-5.308133045711341,0.8161052950006201,-1.3617040775050635
-0.25340754169871105,-5.18133780044737,0.8024882542255695,-1.7394054336901148
-0.30522091970318477,-5.053180261618711,0.7850941998886684,-2.1066411740090834
-0.3557527223193719,-4.921666388087713,0.7640277881485775,-2.463137177936513
-0.404969386200249,-4.784956024936296,0.7393964163692124,-2.8085327148908936
-0.45281894644961196,-4.641388479343008,0.7113110892203034,-3.1424065484691566
-0.499232831243042,-4.489500213376946,0.6798870237356118,-3.4643188038928474
-0.5441278333768115,-4.328037267341498,0.6452438356966833,-3.7738608820630755
-0.5874082060502265,-4.155963068540283,0.6075052268760526,-4.070708289082727
-0.6289678367356293,-3.9724612798342456,0.5667981439852253,-4.354672753424082
-0.6686924495339718,-3.7769329422727416,0.5232514164509845,-4.625750953274872
-0.7064617789566991,-3.5689871551806194,0.4769939069182358,-4.884167872692444
-0.7421516505085053,-3.348424785939409,0.4281522281913113,-5.130413399690156
-0.7756358983678994,-3.1152151269834842,0.3768480941944098,-5.365271328716078
-0.8067880496377342,-2.869465966318136,0.323195380907249,-5.589840421623396
-0.8354827093009156,-2.6113881864277877,0.267296976691015,-5.80554754532508
-0.8615965911651935,-2.3412567712209227,0.2092415012377642,-6.014153011850838
-0.8850091588774027,-2.059371062029809,0.14909997111925583,-6.217747891099405
-0.9056028694977009,-1.766018446214812,0.08692249220826177,-6.418741921990139
-0.923263053959849,-1.4614477383600906,0.022735072988360375,-6.619838187608803
-0.9378775313434499,-1.145861942821229,-0.04346330888772766,-6.823986081972355
-0.9493361507716621,-0.8194458871173348,-0.11170316970745121,-7.034295879254796
-0.9575306096428354,-0.48245395079369213,-0.18204612849999918,-7.253884248612989
-0.9623551491507724,-0.1353988699636664,-0.2545849709861291,-7.48559735286449
-0.963709137850409,0.22059377430847138,-0.329440944514774,-7.73152385570672
-0.9615032001073243,0.583170806271397,-0.40675618307184125,-7.99216565766555
-0.9556714920446103,0.9477599514219776,-0.48667783964849676,-8.265098104036955
-0.9461938925303905,1.306121100245703,-0.5693288206888663,-8.542990869644473
-0.9331326815279335,1.6445765639175387,-0.654758729385311,-8.81114398109147
-0.9166869158887581,1.9426554088615833,-0.7428701691962257,-9.045501119134613
-0.8972603618001422,2.1739252224261825,-0.8333251803875719,-9.21352517781327
-0.8755211095758804,2.3114233736565186,-0.9254604321657046,-9.281225091444703
-0.8524068758393152,2.3380026559657225,-1.0182726830801516,-9.226812266103577
-0.829026849279658,2.2560622252471103,-1.1105408057411874,-9.053553401862187
-0.8064662270271868,2.0879046207939713,-1.2010763397598092,-8.790073100747593
-0.7855871808192472,1.8654005276212269,-1.2889770707672852,-8.476531790399521
-0.7669331755430349,1.6178543781439816,-1.3737423886712805,-8.148773074689531
-0.7507546317615951,1.3659218517313114,-1.4552301194181758,-7.830788153148875
-0.737095413244282,1.12159284866157,-1.5335380009496646,-7.535191845797433
-0.7258794847576663,0.8906750608745402,-1.608889919407639,-7.266796727079682
-0.7169727341489209,0.6752918071486917,-1.6815578866784358,-7.026007026878787
-0.710219816077434,0.47562165450013316,-1.7518179569472236,-6.811096291353423
-0.7054635995324327,0.2909294842625562,-1.8199289198607578,-6.619504612696523
-0.7025543046898071,0.12012400339342738,-1.886123965987723,-6.448503689419109
-0.7013530646558728,-0.03796099573746137,-1.950609002881914,-6.295505629490896
-0.7017326746132474,-0.1844356181405328,-2.013564059176823,-6.158185878332763
-0.7035770307946527,-0.3203009731978048,-2.0751459179601506,-6.03451484349588
-0.7067800405266308,-0.4464352819605574,-2.1354910663951094,-5.922747783853543
-0.7112443933462363,-0.5635983977854924,-2.1947185442336448,-5.821397926914478
-0.7168803773240913,-0.6724441528896165,-2.2529325235027895,-5.729204885298337
-0.7236048188529874,-0.7735352242884109,-2.310224572355773,-5.645103866514163
-0.7313401710958716,-0.8673579635515922,-2.3666756110209146,-5.5681978948573505
-0.7400137507313875,-0.9543360488619903,-2.4223575899694882,-5.497733684317186
-0.7495571112200075,-1.0348425309313698,-2.4773349268126603,-5.43308107993308
-0.7599055365293211,-1.1092101922647342,-2.5316657376119913,-5.373715690922281
-0.7709976384519684,-1.1777402988030192,-2.585402894521214,-5.3192042517074425
-0.7827750414399987,-1.2407098869033755,-2.6385949370382886,-5.269192254937359
-0.7951821403090324,-1.2983777454531984,-2.6912868595876622,-5.223393447791011
-0.8081659177635644,-1.350989247788684,-2.743520794065572,-5.1815808419462
-0.8216758102414512,-1.3987801737670105,-2.795336602485034,-5.143578945787376
-0.8356636119791213,-1.4419796450663194,-2.846772391942908,-5.10925697923953
-0.8500834084297845,-1.4808122793877034,-2.897864961735303,-5.07852287515065
-0.8648915312236615,-1.51549965278085,-2.9486501904868097,-5.05131790619585
-0.88004652775147,-1.546261144012714,-2.9991633695487683,-5.027611803361983
-0.8955091391915971,-1.573314220551844,-3.0494394875823883,-5.007398251970774
-0.9112422813971156,-1.596874212007119,-3.099513470102096,-4.990690664727629
-0.9272110235171868,-1.6171536033796423,-3.1494203767493723,-4.977518139206802
-0.9433825595509832,-1.634360866955357,-3.19919555814144,-4.967921510189908
-0.9597261682205367,-1.648698837875195,-3.2488747732433394,-4.961949405990751
-0.9762131565992886,-1.6603626242916019,-3.298494267303247,-4.959654212929277
-0.9928167828422046,-1.6695370286484859,-3.3480908094325397,-4.961087844105256
-1.0095121531286895,-1.6763934423265663,-3.3977016878735924,-4.966297198341566
-1.0262760875519552,-1.6810861623080917,-3.447364659857008,-4.975319183644808
-1.043086949175036,-1.6837480666910962,-3.497117851693456,-4.988175168217793
-1.059924429841947,-1.684485577467408,-3.546999603375634,-5.004864713053067
-1.076769285616621,-1.683372836406351,-3.5970482505061647,-5.025358436474881
-1.0936030139806847,-1.680445026632956,-3.6473018348709134,-5.049589867003625
-1.1104074642470143,-1.6756907933387564,-3.6977977335409498,-5.077446162599116
-1.1271643721804019,-1.6690437583440767,-3.748572195166941,-5.108757619769393
-1.1438548097638426,-1.660373192927581,-3.799659771364635,-5.143285975599782
-1.1604585416931184,-1.6494740208995653,-3.8510926311206326,-5.180711632086322
-1.176953281902114,-1.6360564794674999,-3.902899747441496,-5.220620119344397
-1.193313846696789,-1.6197359781515266,-3.95510594863494,-5.2624883759421195
-1.2095112064783042,-1.600023970802696,-4.007730832394361,-5.30567177020839
-1.2255114461863312,-1.5763209883700255,-4.060787550096445,-5.349393214894103
-1.2412746560700314,-1.5479133497559652,-4.114281482245386,-5.3927362185183085
-1.256753789567591,-1.513975428995109,-4.168208844430569,-5.434644218583719
-1.2718935438575423,-1.473579629467486,-4.222555286616406,-5.473928960261208
-1.286629340152217,-1.4257162823247447,-4.277294576219018,-5.509290874758178
-1.3008865029754646,-1.3693253976835627,-4.3323874849666,-5.539354185466869
-1.3145797569523001,-1.3033413980026913,-4.387781026821268,-5.562718622085887
-1.3276131709323271,-1.226750541544082,-4.443408213042127,-5.578027992055095
-1.339880676347768,-1.1386587042557859,-4.499188492962678,-5.584053418083357
-1.3512672633903258,-1.0383647290722957,-4.555029027143512,-5.579786008660565
-1.3616509106810488,-0.9254321106267089,-4.610826887230117,-5.564530594671987
-1.3709052317873158,-0.7997500045630921,-4.666472193176837,-5.537989720409152
-1.3789027318329468,-0.6615741348742046,-4.721852090380929,-5.500326201996008
-1.3855184731816887,-0.511539628647309,-4.776855352400888,-5.452193939404816
-1.390633869468162,-0.350641187172701,-4.8313772917949365,-5.3947304354515095
-1.3941402813398889,-0.18018075551509977,-4.885324596149451,-5.329510051941229
-1.3959420888950398,-0.001687915246156385,-4.938619696668864,-5.258463186543011
-1.3959589680475013,0.18317765282147505,-4.991204328534294,-5.183771781133889
-1.3941271915192865,0.37273010437098686,-5.043042046345633,-5.107754626417642
-1.3903998904755768,0.5653563873588638,-5.094119592609809,-5.032756245432719
-1.3847463266019882,0.7596010437788989,-5.144447155064136,-4.961050973916805
-1.3771503161641991,0.9542311478920039,-5.194057664803304,-4.894770086079501
-1.3676080046852792,1.1482794365501074,-5.243005365664099,-4.835855555572114
-1.356125210319778,1.3410669463287317,-5.29136392121982,-4.786040265400691
-1.3427145408564907,1.532208756840932,-5.339224323873827,-4.746851786078523
-1.3273924532880814,1.7216076421205644,-5.386692841734613,-4.719635413548652
-1.3101763768668757,1.9094407125510116,-5.433889195870099,-4.7055918659277305
-1.2910819697413656,2.0961437829815885,-5.480945114529376,-4.7058255837782905
-1.2701205319115496,2.2823975412729975,-5.528003370367159,-4.72140063479782
-1.2472965564988197,2.4691188752529687,-5.575217376715138,-4.7534025189122815
-1.22260536774629,2.657460123972605,-5.62275140190426,-4.803005523140658
-1.196030766506564,2.8488186511805957,-5.670781457135667,-4.871546594012823
-1.167542579994758,3.0448590282201944,-5.719496923075795,-4.960607945015037
-1.137093989712556,3.2475502316500116,-5.769103002525945,-5.07211177662686
-1.1046184873960558,3.4592204960210617,-5.819824120292214,-5.208431473035885
-1.0700262824358453,3.6826325377723874,-5.871908435022573,-5.372524160578608
-1.0331999570581214,3.9210811286469607,-5.925633676628359,-5.5680887557472545
-0.9939891457716518,4.178511909953071,-5.981314564185832,-5.799749550321537
-0.952204026672121,4.459651300274697,-6.039312059689047,-6.07325305108905
-0.9076075136693741,4.770113949976049,-6.100044590199937,-6.395633576053481
-0.8599063741696136,5.116396980752652,-6.164000925960472,-6.7752239262144425
-0.808742404362087,5.5055352332140455,-6.231753165222617,-7.2211998298471345
-0.7536870520299466,5.943885386762716,-6.303965163521089,-7.74191958761141
-0.6942481981623194,6.433861794928331,-6.381384359397203,-8.340417624083848
-0.6299095802130361,6.966326296110637,-6.464788535638042,-9.003835651998656
-0.5602463172519297,7.505488212211008,-6.554826892158029,-9.682366553773884
-0.48519143512981966,7.967527408727776,-6.651650557695768,-10.25933229875883
-0.4055161610425419,8.216510913903694,-6.754243880683356,-10.545254856640168
-0.323351051903505,8.132856263178565,-6.859696429249758,-10.373087802912242
-0.24202248927171932,7.738282311213295,-6.963427307278881,-9.772004920267262
-0.16463966615958636,7.192440496205884,-7.061147356481554,-8.962008462318117
-0.09271526119752752,6.644174721663742,-7.150767441104735,-8.14713192321799
-0.026273513980890104,6.160566498710184,-7.232238760336915,-7.417987689218034
0.03533215100621173,5.754432783190066,-7.306418637229095,-6.790592831204565
0.0928764788381124,5.418403234125591,-7.374324565541141,-6.253590155231337
0.1470605111793683,5.140792467447725,-7.436860467093454,-5.790029058880887
0.19846843585384555,4.910772353625341,-7.494760757682263,-5.384365972275223
0.24757615939009897,4.719518444497225,-7.5486044174050155,-5.0239612772378335
0.2947713438350712,4.560124290589785,-7.598844030177394,-4.6989207956799905
0.34037258674096904,4.427231565184006,-7.645833238134194,-4.401574820543635
0.38464490239280913,4.316659100617815,-7.68984898633963,-4.125975020897147
0.4278114933989873,4.225097820922886,-7.7311087365486015,-3.8674958061096176
0.4700624716082161,4.149874226491281,-7.769783694609698,-3.6225405732557965
0.5115612138731289,4.088769510300225,-7.806009100342256,-3.388332918899496
0.5524489089761312,4.039880502253864,-7.83989242953125,-3.1627718500011435
0.5928477139986699,4.001511520956043,-7.871520148031262,-2.944333495242267
0.6328628292082303,3.972089540341867,-7.900963482983685,-2.7320053983773205
0.6725837246116491,3.950097971959595,-7.9282835369674585,-2.5252421175726805
0.712084704331245,3.9340266649730022,-7.953535958143186,-2.323932558140422
0.751424970980975,3.9223374355417513,-7.9767752837245895,-2.1283705480666764
0.7906483453363926,3.913445541380637,-7.998058989205257,-1.939221035056074
0.829782800750199,3.905717959903276,-8.017451199555817,-1.7574753570278645
0.8688399803492317,3.8974890449245287,-8.035025953126095,-1.584390673202174
0.907814870798477,3.8870931188696454,-8.050869859858116,-1.4214110544939542
0.9466858019871734,3.8729119218390204,-8.065083970403055,-1.2700708964139615
0.9854149212055636,3.8534328717806585,-8.077784679367195,-1.131884910829172
1.0239492499233702,3.8273122312563617,-8.089103528475487,-1.0082323690996366
1.0622223722359339,3.7934360290003637,-8.099185852166483,-0.9002457542712298
1.1001567325259376,3.750971367495783,-8.108188309709195,-0.8087148599197385
1.1376664462008954,3.699401745753957,-8.116275458308392,-0.7340162988711035
1.174660463658435,3.6385421071733473,-8.123615621297104,-0.6760754879155388
1.2110458847301684,3.568532066885661,-8.130376376176258,-0.6343640532262901
1.246731205399025,3.489808610224402,-8.136720016708521,-0.6079311370092947
1.281629291501269,3.4030619395236914,-8.142799328078613,-0.5954631707801956
1.315659910896506,3.3091797101588685,-8.148753959786415,-0.5953639715136867
1.3487517079980946,3.2091855072843223,-8.154707599501553,-0.6058458058924512
1.380843563070938,3.1041771574322397,-8.160766057560478,-0.6250222889197071
1.4118853346452602,2.9952695689552,-8.167016280449674,-0.6509953157791316
1.4418380303348122,2.883545528163006,-8.173526233607467,-0.6819302330046662
1.4706734856164423,2.7700165015330547,-8.180345535937514,-0.7161157029951043
1.4983736506317729,2.6555942088650837,-8.187506692967466,-0.7520068512788718
1.5249295927204236,2.541072668066079,-8.195026761480253,-0.7882520693661704
1.5503403194010843,2.4271196338821963,-8.202909282173914,-0.8237051538139847
1.5746115157399063,2.3142758711241345,-8.211146333712055,-0.8574252687697246
1.5977542744511477,2.202960489750523,-8.219720586399752,-0.8886675712178572
1.619783879348653,2.093480572731761,-8.22860726211193,-0.9168673256765958
1.6407186850759705,1.9860434857164349,-8.237775935368697,-0.9416200665104361
1.6605791199331348,1.8807705085733786,-8.247192136033801,-0.962659947401105
1.6793868250188686,1.777710719591271,-8.256818735507812,-0.9798379390444164
1.6971639322147813,1.6768543526909616,-8.266617114898256,-0.9931010653174746
1.713932475741691,1.5781451092350318,-8.27654812555143,-1.002473448673457
1.7297139268340413,1.4814911240586839,-8.286572860038165,-1.0080395900145902
1.7445288380746282,1.3867744551647596,-8.296653255938311,-1.0099300431955867
1.7583965826262757,1.2938590899201927,-8.306752556370267,-1.0083094551345269
1.7713351735254776,1.2025975434006362,-8.316835650921613,-1.0033668186052336
1.783361148959484,1.1128361744038782,-8.326869319107665,-0.9953077130130024
1.7944895107035228,1.0244193694828576,-8.336822396237794,-0.9843482756735988
1.8047337043983513,0.9371927523167416,-8.34666587899453,-0.9707106406323113
1.8141056319215187,0.8510055708470137,-8.356372985400853,-0.9546195942861105
1.8226156876299888,0.765712402551105,-8.365919181343713,-0.9363002196401687
1.8302728116554998,0.6811743024738691,-8.375282183540115,-0.9159763286046928
1.8370845546802386,0.5972595016004397,-8.384441946826161,-0.8938695106810287
1.843057149696243,0.5138437464082154,-8.393380641932971,-0.8701986543841851
1.848195587160325,0.4308103549258502,-8.402082628476814,-0.8451798234669863
1.8525036907095835,0.3480500508474025,-8.410534426711484,-0.8190263927977167
1.8559841912180575,0.2654606253884345,-8.418724690639461,-0.7919493683994597
1.8586387974719418,0.18294646662038921,-8.426644184323456,-0.7641578327656754
1.8604682621381456,0.10041798785691156,-8.434285762651113,-0.7358594703592242
1.8614724420167148,0.01779098010789218,-8.441644357354706,-0.7072611394896011
1.8616503518177938,-0.06501409154210255,-8.448716968749602,-0.6785694658724126
1.8610002109023729,-0.14807283174031174,-8.455502663408327,-0.6499914404185583
1.8595194825849697,-0.23145768593075594,-8.462002577812513,-0.6217350094583135
1.857204905725662,-0.3152387278839158,-8.468219927907096,-0.5940096499172487
1.8540525184468228,-0.39948445434368346,-8.474160024406268,-0.5670269251238474
1.850057673903386,-0.48426257832444436,-8.479830293657507,-0.5410010190990346
1.8452150481201417,-0.5696408130012613,-8.485240303848498,-0.5161492484743212
1.839518639990129,-0.6556876381493695,-8.490401796333241,-0.4926925516934814
1.8329617636086355,-0.7424730407584068,-8.495328721850177,-0.47085595492948673
