th1 (rad),w1 (rad/s),th2 (rad),w2 (rad/s),a1 (rad/s^2),a2 (rad/s^2)
2.1193938276364888,2.0352747199951615,4.712386669978319,0.5793697073946436,-7.885565346382566,0.9113945628122371
2.1397465748364404,1.956419066531336,4.718180367052265,0.588483653022766,-7.602163763762556,1.3282625400470225
2.1593107655017536,1.8803974288937104,4.724065203582493,0.6017662784232362,-7.3281287939167,1.7285651886733946
2.178114739790691,1.8071161409545433,4.730082866366725,0.6190519303099701,-7.063396479361242,2.1118555910389185
2.196185901200236,1.7364821761609308,4.736273385669825,0.6401704862203592,-6.807713251633991,2.477998626171268
2.213550722961845,1.668405043644591,4.742675090532028,0.6649504724820718,-6.560679119576573,2.8271049433365647
2.230234773398291,1.6027982524488253,4.749324595256849,0.6932215219154375,-6.32178459073132,3.159475470340662
2.2462627559227792,1.5395804065415122,4.756256810476003,0.7248162766188442,-6.090441925526077,3.475555305362837
2.261658559988194,1.4786759872862514,4.763504973242192,0.7595718296724725,-5.866011369305482,3.7758957966381512
2.2764453198610566,1.4200158735931965,4.7711006915389165,0.797330787638854,-5.647823012679732,4.061123633665649
2.2906454785969887,1.363537643466399,4.779073999415305,0.8379420239755105,-5.435194909214152,4.331915834484948
2.304280855031653,1.3091856943742575,4.787453419655059,0.88126118232036,-5.22744804153465,4.588979598759249
2.3173727119753953,1.256911213958911,4.796266031478263,0.9271509783079525,-5.023918680345692,4.833036093218937
2.3299418241149845,1.206672027155454,4.805537541261343,0.9754813392401418,-4.823968631391977,5.064807335427376
2.3420085443865393,1.1584323408415342,4.815292354653744,1.0261294125944156,-4.626993817043103,5.28500543771854
2.3535928677949545,1.1121624026711032,4.825553648779688,1.078979466971601,-4.432431594565335,5.494323561649892
2.3647144918216654,1.0678380867254498,4.836343443449404,1.1339227025881,-4.239767173829456,5.693428012200899
2.37539287268892,1.0254404149871552,4.847682670475285,1.190856982710109,-4.048539463953441,5.882950969220107
2.3856472768387915,0.9849550203476208,4.859591240302386,1.2496864924023101,-3.8583466513611313,6.063483411133848
2.3954968270422676,0.9463715538340095,4.872088105226409,1.3103213265136486,-3.668851790668921,6.235567833142255
2.4049605425806075,0.9096830359273202,4.885191318491545,1.3726770048450712,-3.4797886740464565,6.399690399966441
2.414057372939881,0.8748851491868557,4.898918088539996,1.4366739088447356,-3.2909682332720105,6.556272202971862
2.4228062244317496,0.8419754668541356,4.913284827628443,1.5022366308744541,-3.1022857203385734,6.70565931483875
2.431225979100291,0.8109526096507499,4.928307193937187,1.5692932240228417,-2.9137289055223388,6.848111353948513
2.4393355051967984,0.7818153205955265,4.944000126177416,1.6377743375623268,-2.725387524218726,6.983788287883355
2.447153658402754,0.7545614453533392,4.96037786955304,1.7076122204411603,-2.5374641929370396,7.112735224133768
2.454699272856287,0.7291868034239688,4.977453991757451,1.778739572682498,-2.3502869972577094,7.234864960377944
2.4619911408905266,0.7056839334513917,4.995241387484276,1.8510882222862775,-2.1643239260193603,7.349938101752865
2.4690479802250405,0.6840406941911981,5.013752269707139,1.924587603303806,-1.9801992811168176,7.457540604984585
2.4758883871669526,0.6642387013800299,5.0329981457401765,1.9991630093536519,-1.798712124311434,7.557058687381357
2.482530774180753,0.6462515801369156,5.052989775833713,2.0747335962274653,-1.6208567231028592,7.64765115277881
2.488993289982122,0.630043012905887,5.073737111795988,2.1512101077552535,-1.4478448170609832,7.728219348977767
2.495293720111181,0.6155645647352772,5.095249212873541,2.2284923012450313,-1.2811293325516377,7.797375196613757
2.5014493657585337,0.6027532714097609,5.117534135885991,2.3064660532111687,-1.1224289147533837,7.853408034153446
2.5074768984726314,0.591528982262227,5.140598796418103,2.3850001335527033,-0.9737523080846147,7.89425142518061
2.5133921882952537,0.5817914591813809,5.1644487977536295,2.4639426478045094,-0.8374211876016332,7.917451588853617
2.5192101028870675,0.5734172473053646,5.189088224231675,2.5431171636930454,-0.7160895162492762,7.920139755123578
2.524944275360121,0.5662563521428718,5.214519395868606,2.622318561244281,-0.6127568753372388,7.899011517240766
2.5306068388815497,0.5601287833894995,5.240742581481048,2.701308676416689,-0.5307725008136287,7.850317144190584
2.5362081267154446,0.5548210583813632,5.267755668245215,2.779811847858595,-0.47382598908093554,7.769867789398763
2.541756337299258,0.5500827984905539,5.295553786723801,2.8575105257525824,-0.4459198764481464,7.6530635176406685
2.547257165284164,0.5456235997260724,5.324128891981326,2.934041160928989,-0.4513186490940496,7.494949948746354
2.5527134012814243,0.541110413235132,5.353469303590616,3.0089906604164525,-0.4944683581610896,7.290310902010892
2.5581245054137756,0.536165729653521,5.383559210194781,3.0818937694365616,-0.5798811041108238,7.033804467389128
2.5634861627103107,0.5303669186124128,5.414378147889146,3.152231814110453,-0.7119794725106,6.7201491103306585
2.568789831896435,0.5232471238873068,5.445900466030251,3.2194333052137596,-0.8948978362781407,6.344364374083045
2.574022303135308,0.5142981455245254,5.478094799082388,3.28287694895459,-1.1322405588995308,5.902067121069322
2.5791652845905535,0.50297573993553,5.510923568571934,3.341897620165283,-1.4268017231723165,5.389818793234474
2.5841950419899087,0.48870772270380686,5.5443425447735875,3.3957958080976276,-1.7802570638372985,4.80551183097864
2.589082119216947,0.4709051520654339,5.578300502854564,3.443850926407414,-2.192845981833118,4.148774505235317
2.5937911707376013,0.4489766922471027,5.612739012118638,3.4853386714597674,-2.663069122734928,3.421363837805319
2.598280937660072,0.4223460010197534,5.647592398833235,3.5195523098378207,-3.1874337971332496,2.6275074568751284
2.6025043976702698,0.3904716630484209,5.682787921931613,3.545827384406572,-3.760283879875587,1.774149138108053
2.606409114300754,0.35286882424966504,5.718246195775679,3.5635688757876527,-4.3737509439967095,0.8710516637124919
2.6099378025432505,0.3091313148096979,5.7538818845335555,3.5722793924247775,-5.017857700507107,-0.06928349466168242
2.6130291156913477,0.25895273780462685,5.7896046784578035,3.571586557478161,-5.680792552505409,-1.0319061905619031
2.6156186430693937,0.20214481227957276,5.825320544032585,3.561267495572542,-6.349355776607576,-1.9999222291811487
2.6176400911921895,0.138651254513497,5.86093321898831,3.5412682732807306,-7.009555681179145,-2.9551907202967937
2.6190266037373244,0.06855569770170554,5.8963459017211175,3.5117163660777626,-7.647310702398867,-3.8791645765785825
2.6197121607143417,-0.007917409322283131,5.931463065381895,3.4729247203119766,-8.249195228877289,-4.753801356250411
2.6196329866211188,-0.09040936161105602,5.966192312585015,3.4253867067494723,-8.803157129958139,-5.56245803488817
2.618728893005008,-0.1784409329106374,6.00044617965251,3.3697621264005906,-9.299136122978517,-6.290682696139056
2.6169444836759017,-0.2714322941404226,6.034143800916516,3.3068552994392,-9.729524482512975,-6.926829151196032
2.6142301607344973,-0.3687275389655523,6.067212353910907,3.2375870079272397,-10.089432833960755,-7.462444626205758
2.6105428853448416,-0.46962186730515987,6.09958822399018,3.162962561665182,-10.376749599701437,-7.892410964232042
2.60584666667179,-0.5733893633021743,6.1312178496068315,3.084038452022862,-10.592008043534834,-8.214850311826202
2.6001127730387683,-0.6793094437375227,6.16205823412706,3.0018899489046,-10.73809534286123,-8.430831603229974
2.593319678601393,-0.786690397166135,6.192077133616106,2.9175816328723,-10.819850871891633,-8.543930734767596
2.5854527746297316,-0.8948889058850513,6.221252949944829,2.8321423255246243,-10.843605091939578,-8.559703916869855
2.576503885570881,-1.003324956804447,6.249574373200075,2.746545286355926,-10.816707121931822,-8.485131250480634
2.5664706360028364,-1.1114920280237652,6.277039826063635,2.6616939738511194,-10.74708039207726,-8.32807850863176
2.5553557157225986,-1.2189628319445378,6.303656765802145,2.578413188764802,-10.642834369618384,-8.096812395039313
2.543166087403153,-1.3253911756407217,6.329440897689794,2.497445064814409,-10.511948555790717,-7.799590982729996
2.529912175646746,-1.430510661198629,6.3544153483379375,2.419449154987109,-10.362034524305882,-7.444338705487729
2.51560706903476,-1.5341310064416878,6.378609839887809,2.345005767932232,-10.20017368411982,-7.038405424777313
2.5002657589703428,-1.636132743282886,6.402059897567131,2.274621713684459,-10.032823005975548,-6.588402178507156
2.483904431537514,-1.7364609733426415,6.4248061147039754,2.2087376918993873,-9.86577796701307,-6.100102104629531
2.4665398218040875,-1.8351187530127722,6.446893491622969,2.147736670853092,-9.704180976706857,-5.578393244651552
2.4481886342739596,-1.9321605627798408,6.4683708583315,2.0919527384065764,-9.552563988746792,-5.027269853120901
2.4288670286461613,-2.027686202667309,6.489290385715566,2.0416800398753674,-9.414915341949769,-4.449849860776222
2.408590166619488,-2.1218353560868066,6.509707186114319,1.9971815412676053,-9.294762668422058,-3.848407745439912
2.3873718130586203,-2.2147829827710273,6.529679001526995,1.9586974638132062,-9.195265637414408,-3.2244138655539913
2.36522398323091,-2.306735639145171,6.5492659761651275,1.9264533251576663,-9.119314161237149,-2.578573040834828
2.3421566268394582,-2.397928780757543,6.568530509416704,1.9006675947493181,-9.069629362456515,-1.9108566625711443
2.318177339031883,-2.488625074382108,6.587537185364198,1.8815590281236068,-9.048866046781246,-1.2205238018676272
2.2932910882880617,-2.5791137348499205,6.606352775645434,1.8693537901049304,-9.059716647872124,-0.5061276313305271
2.2674999509395626,-2.6697109013286418,6.625046313546483,1.864292513791625,-9.10501764054183,0.23449600800015472
2.240802841926276,-2.76076107773406,6.6436892386843995,1.8666374738716267,-9.187860301567095,1.0042608495570697
2.213195231148936,-2.852639680749731,6.662355613423116,1.8766800823671974,-9.311708477115301,1.8068862583594287
2.1846688343414384,-2.9457567655208843,6.681122414246787,1.8947489449507917,-9.480526726592117,2.646980363246349
2.1552112666862295,-3.0405620327868053,6.700069903696296,1.9212187485832553,-9.698922864814142,3.5301539078757793
2.1248056463583613,-3.137551261434947,6.719282091182128,1.9565202876620131,-9.972309483563194,4.4631688388130675
2.093430133744012,-3.2372743562705786,6.738847294058749,2.001151976050144,-10.307089383915752,5.454125774572146
2.0610573901813063,-3.340345250109736,6.75885881381925,2.0556932337958655,-10.710869725632072,6.51269392696034
2.027653937680209,-3.447453947366057,6.779415746157209,2.1208201730654688,-11.192708552024428,7.650384930450005
1.9931793982065484,-3.5593810328863014,6.800623947887864,2.197324022369969,-11.763394105454923,8.880866784062455
1.9575855878776853,-3.6770149739408504,6.822597188111564,2.2861326902105934,-12.435749950804713,10.220302726004459
1.920815438138277,-3.8013724734488976,6.84545851501367,2.388335717470638,-13.224943456475408,11.687676707917275
1.882801713403788,-3.933621908013652,6.869341872188376,2.5052124845498107,-14.148744234089195,13.305021621863341
1.8434654943236515,-4.075109350354544,6.894393997033874,2.6382627007684443,-15.227618731596571,15.097378683969724
1.8027144008201061,-4.22738553767051,6.920776624041559,2.7892364876081417,-16.484431089716065,17.092149255667792
1.7604405454434011,-4.392229848567671,6.948668988917641,2.9601579801648197,-17.94329998197275,19.31718523368108
1.7165182469577245,-4.5716628483873984,6.978270568719289,3.1533298325016306,-19.62674844522482,21.79637705505055
1.6708016184738506,-4.767930332839646,7.0098038670443055,3.371293603052136,-21.549527300103684,24.54042690567226
1.6231223151454541,-4.983425605840683,7.0435168030748265,3.6166978721088583,-23.706160818428305,27.528614949038968
1.5732880590870473,-5.220487214024966,7.079683781795915,3.891984021599248,-26.047103089224706,30.674329420358585
1.5210831869467976,-5.480958244917213,7.118603622011908,4.1987273158028335,-28.435521912768483,33.76311924371474
1.4662736044976254,-5.7653134640448975,7.160590895169936,4.536358508239981,-30.575101504208153,36.34983736399198
1.4086204698571765,-6.071064479086979,7.205954480252336,4.8998568818799,-31.906849114162664,37.61238778723845
1.3479098250663066,-6.390132970228605,7.254953049071135,5.275980759752285,-31.51150099853881,36.2145144971229
1.2840084953640205,-6.7052479802139935,7.307712856668658,5.6381259047235135,-28.15822904021669,30.377667046747284
1.2169560155618806,-6.98683027061616,7.3640941157158935,5.941902575190986,-20.784075200805848,18.565431201828407
1.147087712855719,-7.1946710226242185,7.4235131414678035,6.12755688720927,-9.564311426357804,1.0080543783109501
1.075141002629477,-7.290314136887797,7.484788710339896,6.137637430992379,3.1759773576695087,-18.9936886982291
1.002237861260599,-7.258554363311101,7.54616508464982,5.947700544010089,13.830998433615989,-36.285345583348125
0.9296523176274881,-7.120244378974942,7.605642090089921,5.584847088176607,20.004442234110115,-47.38641706529552
0.8584498738377387,-6.920199956633841,7.661490560971687,5.110982917523652,21.76598484042037,-52.29866970393324
0.7892478742714003,-6.702540108229637,7.712600390146923,4.587996220484319,20.60972943510086,-53.065595880087535
0.7222224731891039,-6.4964428138786285,7.758480352351766,4.057340261683444,18.039592460161966,-51.7793385465852
0.6572580450503176,-6.3160468892770085,7.7990537549686,3.5395468762175915,15.026480304578028,-49.8008722692258
0.5940975761575475,-6.1657820862312285,7.834449223730776,3.0415381535253334,12.066478302413262,-47.82766917920518
0.5324397552952352,-6.045117303207096,7.86486460526603,2.5632614617332816,9.370982251650847,-46.15312407889137
0.47198858226316426,-5.9514074806905874,7.890497219883363,2.101730220944368,7.009543868223325,-44.863962304389794
0.41247450745625835,-5.8813120420083544,7.911514522092807,1.6530905979004702,4.989978842673472,-43.95171648388423
0.3536613870361748,-5.83141225358162,7.928045428071812,1.213573433061628,3.2978186545294563,-43.368052647117146
0.2953472645003586,-5.798434067036325,7.940181162402428,0.7798929065904565,1.914159380352403,-43.05020159984994
0.23736292382999533,-5.779292473232801,7.947980091468333,0.3493908905919571,0.8229577293349697,-42.93188147404215
0.1795699990976673,-5.771062895939451,7.951474000374252,-0.07992792414846439,0.013380410730795076,-42.94760637166884
0.12185937013827278,-5.770929091832143,7.950674721132767,-0.5094039878651528,-0.5201148363613817,-43.03421174869023
0.06415007921995133,-5.776130240195757,7.945580681254116,-0.9397461053520552,-0.7787265328045816,-43.13140088248551
0.006388776817993762,-5.783917505523803,7.936183220200595,-1.3710601141769103,-0.760718364325819,-43.18213461315677
-0.05145039823724427,-5.791524689167061,7.922472619058826,-1.802881460308478,-0.4630243884647103,-43.133208273710906
-0.10936564512891488,-5.796154933051708,7.904443804455742,-2.234213543045587,0.11708924633686049,-42.936119024125254
-0.16732719445943195,-5.79498404058834,7.882101669025285,-2.66357473328684,0.9804005259702228,-42.54819916690929
-0.22527703486531536,-5.785180035328638,7.855465921692417,-3.089056724955933,2.124227915908924,-41.93392110646926
-0.28312883521860177,-5.763937756169549,7.824575354442858,-3.5083959360206256,3.5411262574996814,-41.06624434796802
-0.34076821278029723,-5.7285264935945515,7.789491395082651,-3.919058379500306,5.217857257226516,-39.92786483750442
-0.3980534777162428,-5.676347921022287,7.750300811287648,-4.318337027875351,7.1346996463038215,-38.51223664426693
-0.4548169569264656,-5.605000924559248,7.7071174410088945,-4.70345939431802,9.265149117984546,-36.82425981365919
-0.5108669661720581,-5.512349433379403,7.6600828470657145,-5.071701992454612,11.576041019350006,-34.88055921895643
-0.5659904605058521,-5.396589023185903,7.609365827141168,-5.420507584644176,14.028112368638173,-32.70931040204127
-0.6199563507377112,-5.256307899499521,7.555160751294727,-5.747600688664589,16.577005083023458,-30.34959495979925
-0.6725194297327064,-5.090537848669286,7.4976847444080805,-6.051096638262582,19.174697506853338,-27.850289389005574
-0.7234248082193993,-4.898790873600753,7.437173778025454,-6.3295995321526375,21.771332411603726,-25.268511250065227
-0.7724127169554068,-4.681077549484716,7.373877782703928,-6.582284644653289,24.31738258403062,-22.66767135472552
-0.8192234924502539,-4.43790372364441,7.3080549362573946,-6.808961358200545,26.766058867705976,-20.115215678732884
-0.863602529686698,-4.17024313496735,7.239965322675389,-7.010113514987873,29.07582429824971,-17.680186326171892
-0.9053049610363716,-3.8794848919848532,7.16986418752551,-7.1869153782495925,31.21284159801832,-15.43078078250587
-0.9440998099562201,-3.56735647600467,7.097995033743015,-7.341223186074651,33.15316279820671,-13.432130658299265
-0.9797733747162668,-3.235824848022603,7.024582801882268,-7.475544492657644,34.88448075859879,-11.74454097780141
-1.0121316231964927,-2.886980040436615,6.949827356955692,-7.592989902435658,36.407307954210346,-10.422418139676406
-1.041001423600859,-2.5229069608945114,6.873897457931335,-7.697214083832422,37.73552317851966,-9.514066209176706
-1.0662304932098041,-2.145551729109315,6.79692531709301,-7.792354745924189,38.89631647389757,-9.062453241890998
-1.0876860105008972,-1.7565885643703392,6.719001769633769,-7.8829792783430985,39.92964345640097,-9.106952777741503
-1.1052518961446005,-1.3572921298063294,6.640171976850338,-7.974048806120513,40.88734423232344,-9.685957201095453
-1.1188248174426638,-0.948418687483095,6.560431488789133,-8.070908378131469,41.83205587017362,-10.84012770764928
-1.1283090043174948,-0.5300981287813589,6.479722405007818,-8.17930965520796,42.835901962808926,-12.615837927301364
-1.1336099856053083,-0.10173910915326961,6.397929308455739,-8.305468034480974,43.97858525883874,-15.067951642152828
-1.134627376696841,0.3380467434351178,6.314874628110929,-8.456147550902502,45.34373947360224,-18.260152630089472
-1.13124690926249,0.7914841381711402,6.230313152601904,-8.638749077203396,47.01077753277668,-22.258982329680244
-1.1233320678807786,1.2615919134989069,6.14392566182987,-8.861338900500199,49.03608907725386,-27.11322765621598
-1.1107161487457895,1.7519528042714456,6.055312272824868,-9.132471177062358,51.41052967438942,-32.80081953493206
-1.093196620703075,2.2660581010153398,5.963987561054244,-9.46047937241168,53.96703956634865,-39.107065726039494
-1.0705360396929215,2.8057284966788263,5.869382767330127,-9.851550029672074,56.19218712776622,-45.369358465551464
-1.0424787547261334,3.3676503679564886,5.770867267033407,-10.305243614327589,56.886140640819775,-50.008052863729525
-1.0088022510465684,3.9365117743646865,5.667814830890131,-10.805324142964883,53.71255796581375,-49.8922989547413
-0.9694371333029216,4.473637354022824,5.559761589460482,-11.304247132512296,43.158140991108816,-40.24559452735165
-0.9247007597626934,4.905218763933911,5.446719118135359,-11.706703077785813,22.41792910093339,-17.17665161547326
-0.8756485721233542,5.129398054943246,5.329652087357501,-11.878469593940546,-5.898817892233696,15.919629393944861
-0.8243545915739218,5.070409876020909,5.210867391418096,-11.719273300001097,-31.860950129149412,45.80368452232449
-0.7736504928137127,4.751800374729415,5.0936746584180845,-11.261236454777853,-46.59582148553783,60.84229375554988
-0.7261324890664185,4.285842159874036,4.981062293870306,-10.652813517222354,-50.21384332971068,61.565077298509394
-0.6832740674676782,3.7837037265769293,4.874534158698083,-10.03716274423726,-47.777133416548175,54.9184245898875
-0.6454370302019089,3.3059323924114477,4.77416253125571,-9.487978498338386,-43.34650630430958,46.25233967451828
-0.6123777062777944,2.872467329368352,4.679282746272326,-9.025455101593202,-38.84230852273003,37.96247227527124
-0.5836530329841109,2.4840442441410517,4.589028195256394,-8.64583037884049,-34.917707827862024,30.764589841091947
