th1 (rad),w1 (rad/s),th2 (rad),w2 (rad/s),a1 (rad/s^2),a2 (rad/s^2)
6.152517223224104,-2.7002587006034813,3.999034287672285,-1.2140134393051798,5.156188475807216,16.3359906426404
6.125514636218069,-2.648696815845409,3.9868941532792332,-1.0506535328787758,5.41918533814939,16.161169285524974
6.099027668059615,-2.5945049624639154,3.9763876179504454,-0.889041840023526,5.639555658490783,15.95217461698672
6.073082618434976,-2.5381094058790077,3.96749719955021,-0.7295200938536588,5.819049575414595,15.712857384868764
6.047701524376186,-2.4799189101248618,3.9602019986116734,-0.5723915200049712,5.959629329469604,15.447210756625793
6.022902335274938,-2.4203226168301657,3.9544780834116238,-0.4179194124387132,6.063422179125886,15.159303251144978
5.998699109106636,-2.3596883950389067,3.950298889287237,-0.26632637992726343,6.1326728120034195,14.85321402616727
5.975102225156247,-2.2983616669188724,3.947635625487964,-0.11779423966559072,6.169696603725718,14.532972434916083
5.9521186084870585,-2.236664700881615,3.946457683091308,0.027535484683570116,6.176834999615316,14.202503522890453
5.929751961478242,-2.174896350885462,3.946733037938144,0.16956051991247464,6.156414134898556,13.865580789760378
5.908002997969388,-2.1133322095364764,3.9484286431372686,0.30821632781007846,6.110707589749833,13.525787133902972
5.886869675874023,-2.052225133638978,3.9515108064153694,0.4434741991491082,6.041903921691087,13.186484470093223
5.866347424537634,-1.9918060944220672,3.9559455484068606,0.5753390438500404,5.952079354224937,12.850792101097394
5.846429363593413,-1.9322853008798178,3.961698938845361,0.7038469648610144,5.843175748557349,12.521573560324052
5.827106510584614,-1.8738535433942443,3.9687374084939715,0.8290627004642549,5.716983761474388,12.2014313447137
5.808367975150672,-1.8166837057795004,3.977028035498614,0.9510770139113919,5.575130908009989,11.892708734611533
5.790201138092876,-1.7609323966994006,3.986538805637728,1.0700041012575072,5.419074108264463,11.597497751885122
5.7725918141258825,-1.706741655616756,3.997238846650303,1.1859790787763584,5.250096204770491,11.317652233641423
5.755524397569715,-1.6542406935690512,4.009098637438067,1.2991556011127727,5.069305887764654,11.054804986378533
5.7389819906340245,-1.6035476346914046,4.022090193449194,1.4097036509765581,4.877640455867303,10.810388021218959
5.72294651428711,-1.5547712301327317,4.036187229958959,1.5178075311887478,4.67587086307934,10.585654940738403
5.707398801985783,-1.5080125215019382,4.0513653052708465,1.6236640805961318,4.464608553601843,10.381704637574138
5.692318676770764,-1.4633664359659198,4.067601946076808,1.727481126971873,4.244313658403742,10.199505561007541
5.6776850124111045,-1.4209232993818823,4.084876757346526,1.8294761825819486,4.015304217700676,10.039919897701013
5.663475779417285,-1.3807702572048757,4.103171519172346,1.9298753815589587,3.777766199446632,9.903727085348676
5.649668076845237,-1.3429925952104094,4.122470272987935,2.0289126524124454,3.5317642057854157,9.791646122284597
5.636238150893133,-1.307674953152555,4.14275939951206,2.1268291136352913,3.277252900125032,9.704356140857202
5.623161401361608,-1.2749024241513047,4.164027690648413,2.223872675043863,3.0140893533288033,9.642514664898904
5.610412377120094,-1.2447615306180166,4.186266417398851,2.320297821692852,2.7420467086903044,9.606772856145033
5.597964761813914,-1.2173410635311135,4.20946939561578,2.4163655502543024,2.4608298170821508,9.597786850248934
5.585791351178603,-1.192732765360292,4.233633051118322,2.512343418756792,2.1700938175251747,9.616223961870878
5.573864023525,-1.1710318271850402,4.258756485305891,2.608505658375501,1.869467064281998,9.66276206127211
5.56215370525315,-1.1523371565422202,4.284841541889645,2.705133278988222,1.5585803700968968,9.738079738302838
5.550630333687727,-1.1367513528412512,4.311892874679527,2.80251407637125,1.2371053009350075,9.84283390041876
5.539262820159315,-1.124380299831901,4.3399180154432395,2.9009424153754377,0.9048052924600102,9.97762010101131
5.528019017160996,-1.1153322469073008,4.368927439596994,3.000718616385551,0.5616047550528461,10.142909033907898
5.516865694691923,-1.1097161993567723,4.398934625760849,3.10214770672463,0.20768320674589613,10.33895009660724
5.505768532698355,-1.1076393672893134,4.429956102828095,3.2055372076907025,-0.1563960462211694,10.56562952586558
5.494692139025462,-1.1092033277515252,4.462011474905002,3.3111935029493584,-0.5295099416331748,10.822266142393877
5.483600105747946,-1.1144984271678569,4.495123409934496,3.419416164373297,-0.9097356200997856,11.107322051494181
5.472455121476268,-1.1235957833688548,4.529317571578229,3.530489384888239,-1.2940247064787151,11.417998753674508
5.461219163642579,-1.136536030433642,4.564622465427111,3.644669372424984,-1.6777651177438422,11.74968148282848
5.449853803338243,-1.1533136816110805,4.601069159151361,3.762166187253269,-2.0541991461213382,12.095187612013806
5.438320666522133,-1.173855673072294,4.638690821023894,3.883118063373407,-2.413665339130309,12.443771898062488
5.4265821097914095,-1.197992326463597,4.6775220016576275,4.007555782354032,-2.742638659361927,12.779848773476775
5.414602186526774,-1.2254187130572163,4.717597559481168,4.1353542700888,-3.0225675895345443,13.0814220082816
5.402347999396202,-1.2556443889525617,4.758951102182055,4.266168490171616,-3.2285632531103516,13.318285277246831
5.389791555506676,-1.2879300214836653,4.801612787083772,4.399351342944084,-3.3281062697520705,13.45020375835132
5.376912255291839,-1.321211084181186,4.845606300513213,4.533853380527598,-3.280127967912322,13.425543102708344
5.363700144450028,-1.3540123638603092,4.890944834318488,4.668108811554681,-3.0351095753808397,13.181201106421122
5.350160020811424,-1.3843634596141177,4.937625922434035,4.799920822618892,-2.537195281113642,12.645179464729557
5.336316386215283,-1.4097354124252541,4.985625130660224,4.926372617266188,-1.7295877224296146,11.743512932209272
5.322219032091031,-1.4270312896495503,5.034888856832886,5.043807746588281,-0.5643500744274804,10.41309187975918
5.307948719194536,-1.432674790393825,5.085326934298769,5.1479386653858725,0.9833433793419776,8.6204594449132
5.293621971290597,-1.4228413566004052,5.136806320952628,5.234143259835005,2.898889709870729,6.38338346609188
5.279393557724593,-1.393852459501698,5.189147753550978,5.2979770944959235,5.115563324498384,3.7875202974249595
5.265455033129577,-1.342696826256714,5.242127524495937,5.335852297470173,7.513255129859396,0.9876451746778958
5.25202806486701,-1.2675642749581202,5.295486047470639,5.345728749216952,9.934275095983494,-1.8140369866907065
5.239352422117428,-1.1682215239982852,5.348943334962809,5.327588379350045,12.214225429744314,-4.409558010840248
5.227670206877446,-1.046079269700842,5.40221921875631,5.2834927992416425,14.216878151175951,-6.631619672334652
5.217209414180437,-0.9039104881890826,5.455054146748726,5.217176602518296,15.85876377194053,-8.385458606658508
5.208170309298546,-0.7453228504696773,5.507225912773909,5.133322016451711,17.115114998997967,-9.655193827620575
5.200717080793849,-0.5741717004796976,5.558559132938426,5.036770078175505,18.00907590270623,-10.487772497233356
5.194975363789052,-0.3940809414526353,5.608926833720181,4.931892353203171,18.59282150268182,-10.966592895370919
5.191034554374525,-0.2081527264258171,5.658245757252213,4.822226424249462,18.929293300392512,-11.186641622905642
5.188953027110267,-0.01885979342189195,5.706468021494707,4.710360008020405,19.079290087610882,-11.237360660399558
5.1887644291760475,0.1719331074542169,5.7535716215749115,4.59798640141641,19.094630539424294,-11.193940884663474
5.19048376025059,0.3628794128484598,5.799551485589076,4.486046992569776,19.015940590596514,-11.114869301313739
5.194112554379075,0.553038818754425,5.844411955514773,4.374898299556638,18.873165248499706,-11.043043576584333
5.199642942566619,0.741770471239422,5.88816093851034,4.264467863790795,18.68730362679579,-11.008389016238285
5.207060647279014,0.9286435075073799,5.9308056171482475,4.154383973628413,18.472447209419755,-11.030746261878589
5.216347082354088,1.1133679796015774,5.9723494568845314,4.044076511009627,18.23766478955599,-11.122443655188519
5.227480762150104,1.2957446274971374,6.012790221994628,3.9328520744577418,17.988564840482525,-11.290359533945027
5.240438208425076,1.4756302759019626,6.052118742739205,3.8199484791182914,17.728514588349572,-11.537476401490634
5.255194511184095,1.6529154217854582,6.090318227530388,3.704573715103385,17.45955770144367,-11.864007727466376
5.27172366540195,1.827510998799895,6.127363964681422,3.585933637828721,17.183089886331917,-12.268196228973316
5.289998775389949,1.9993418976632142,6.163223301059709,3.463251675538988,16.900348640263445,-12.7468740601754
5.309992194366582,2.168345384065849,6.197855817815099,3.335782934937234,16.612763153162753,-13.29585814730339
5.3316756482072405,2.334473015597476,6.231213647164471,3.2028243534642,16.32219905691285,-13.910235962227079
5.355020378363215,2.497695006166605,6.2632418906991125,3.063721993841929,16.03112281302682,-14.584581280284478
5.379997328424881,2.658006234296873,6.293879110637532,2.9178761810390843,15.742702629138783,-15.313126496534222
5.4065773907678505,2.815433260588261,6.323057872447922,2.764744916073742,15.460856722004129,-16.08990748296832
5.434731723373733,2.970041827808302,6.350705321608659,2.603845841244059,15.190255007773796,-16.908888029604103
5.464432141651816,3.12194437788604,6.3767437800210995,2.434756960948018,14.93627628719161,-17.76406281280883
5.495651585430676,3.271307140757956,6.40109134963058,2.2571163328199297,14.70491902032688,-18.64952972604937
5.528364656838256,3.418356330961225,6.423662512958779,2.070621035559436,14.502659070499941,-19.55951335121762
5.5625482201478675,3.563382921666224,6.444368723314373,1.8750259020472597,14.336241391677413,-20.48831019890273
5.59818204936453,3.706745335582998,6.463118982334845,1.6701428000582323,14.21238332899616,-21.43011161067896
5.6352495027203595,3.8488691688729597,6.479820410335427,1.4558416839514428,14.137353427573519,-22.378639903231562
5.673738194409089,3.990242703148695,6.494378827174941,1.232055284919127,14.116369403530499,-23.32650486375616
5.713640621440576,4.1314063971840005,6.506699380024132,0.9987902362815655,14.152729893687404,-24.264148067670256
5.754954685412416,4.272933696120875,6.516687282386948,0.7561487556048629,14.246554652799913,-25.17818906815559
5.797684022373625,4.415399242648874,6.5242487699429965,0.5043668649233071,14.39295678677151,-26.048920544838534
5.841838014800114,4.55932881051659,6.52929243859223,0.24387765947492174,14.579414277298223,-26.846628190322846
5.88743130290528,4.705122953289572,6.531731215186979,-0.024588622428306728,14.782067876233993,-27.526367099991177
5.934482532438175,4.852943632051912,6.531485328962696,-0.2998522934282185,14.960704317902646,-28.020890719038352
5.983011968758695,5.002550675230938,6.528486806028414,-0.5800612006186021,15.0524111580616,-28.231777937324594
6.033037475511004,5.153074786811554,6.522686194022228,-0.862378979991848,14.96454723883191,-28.01977250347988
6.08456822337912,5.302720259199873,6.514062404222309,-1.1425767050266469,14.569123399075053,-27.197447136991542
6.137595425971118,5.448411493190624,6.502636637172042,-1.4145511763965624,13.703276065444978,-25.53100640935777
6.192079540903024,5.585444253845074,6.488491125408077,-1.66986124049014,12.183957358963365,-22.762908598337525
6.247933983441475,5.707283827434708,6.471792513003175,-1.8974903264735152,9.84694724777839,-18.6696738009735
6.305006821715822,5.8057532999124914,6.45281760973844,-2.0841870644832503,6.614956548357811,-13.161363837648699
6.363064354714947,5.87190286539607,6.431975739093607,-2.2158007028597373,2.5796968903369564,-6.400478382015207
6.421783383368908,5.89769983429944,6.40981773206501,-2.2798054866798894,-1.9483095039001097,1.126676015423072
6.480760381711902,5.878216739260439,6.387019677198211,-2.2685387265256587,-6.481081756160002,8.671199001145618
6.539542549104507,5.8134059216988385,6.3643342899329545,-2.1818267365142026,-10.499143843821267,15.43505216371626
6.597676608321495,5.708414483260626,6.342516022567812,-2.0274762148770398,-13.628395066818472,20.830776906239333
6.654760753154101,5.572130532592441,6.322241260419042,-1.8191684458146464,-15.737976981460172,24.628314252034052
6.710482058480026,5.414750762777839,6.304049575960895,-1.572885303294306,-16.915758337652203,26.924328799422153
6.764629566107804,5.245593179401316,6.288320722927952,-1.3036420153000845,-17.370703637630925,28.003157048163416
6.817085497901817,5.071886143025007,6.275284302774951,-1.0236104448184502,-17.336331390818625,28.19624117133611
6.867804359332068,4.898522829116821,6.265048198326767,-0.7416480331050891,-17.01333799547199,27.796343045211383
6.916789587623236,4.728389449162101,6.257631717995716,-0.46368460265297523,-16.55031413088478,27.026541592947133
6.964073482114857,4.562886307853254,6.252994871969187,-0.1934191867235039,-16.046524668585043,26.04176165207436
7.00970234519339,4.402421061167403,6.2510606801019515,0.06699842979723969,-15.562815918156417,24.94291600941678
7.053726555805064,4.246792901985839,6.251730664399924,0.3164275898914075,-15.133096443152672,23.792596026508168
7.096194484824923,4.095461937554313,6.254894940298838,0.5543535501564891,-14.773592994225845,22.628022643108437
7.137149104200466,3.9477260076120544,6.260438475800403,0.7806337765875735,-14.48946716558248,21.470448620110542
7.176626364276586,3.8028313359562294,6.268244813566279,0.9953382627886789,-14.27924403918953,20.3315200292235
7.214654677636148,3.660038895564334,6.278198196194166,1.1986534630809138,-14.137662903778025,19.217392593056797
7.251255066591792,3.5186622665265537,6.290184730824976,1.3908273890114817,-14.057468994793538,18.131307471256342
7.286441689257058,3.3780875765786185,6.3040930047150905,1.572140463724045,-14.030523598711858,17.075152023207
7.320222565022844,3.2377823405915,6.319814409352331,1.742891983956115,-14.048486544794011,16.050367888701853
7.352600388428759,3.09729747514356,6.3372433291918915,1.9033956628431334,-14.103234639427663,15.058446340361074
7.3835733631801945,2.9562651287492834,6.3562772858203225,2.0539801262467443,-14.187118317704778,14.101166597763656
7.413136014467687,2.8143939455722355,6.37681708708279,2.1949917922243807,-14.293119069157756,13.180677242022528
7.441279953923409,2.671462754880658,6.398767005005034,2.326798564644606,-14.414945162368472,12.299485037884924
7.467994581472216,2.5273133032569732,6.42203499065148,2.4497934150234553,-14.54708774767428,11.460392546233356
7.493267714504786,2.3818424257802304,6.446532924801715,2.564397340485789,-14.684850078043441,10.66641120629858
7.517086138762589,2.234993924999796,6.472176898206572,2.671061452548775,-14.82435707234964,9.920667015750475
7.539436078012587,2.0867503542762997,6.49888751273206,2.7702681227062795,-14.962549281821945,9.226309585507874
7.56030358155535,1.9371248614580803,6.526590193959123,2.862531218561358,-15.097163565860422,8.586430971541665
7.579674830169931,1.786153225799476,6.555215506144736,2.948395528276775,-15.226701828786148,8.003997525800216
7.597536362427926,1.6338862075116145,6.584699461427504,3.028435503534777,-15.350388614781584,7.481795581960221
7.613875224503042,1.4803823213637988,6.614983816462852,3.103253459354379,-15.468117933320174,7.022389782608713
7.62867904771668,1.325701142030597,6.646016351056395,3.173477357180466,-15.580389197126497,6.628091033528559
7.641936059136986,1.169897250059332,6.6777511246282,3.239758267515752,-15.688231445254656,6.300929244246457
7.653635031637579,1.0130149356067855,6.710148707303357,3.3027675599582165,-15.793113956319477,6.042623987281812
7.663765180993647,0.8550837960435906,6.74317638290294,3.3631937998310346,-15.896839787392258,5.854543759496866
7.672316018954083,0.696115398169668,6.77680832090125,3.4217392374260034,-16.001416538387232,5.7376413889264954
7.679277172935779,0.5361012327857957,6.8110257132755105,3.4791156513152686,-16.108895546765186,5.692348974975184
7.684638185263637,0.3750122773181438,6.845816869788663,3.5360391410650203,-16.221166546303234,5.718410208612489
7.688388308036818,0.21280061185511145,6.881177261199314,3.593223243151145,-16.339689371926845,5.814620627672604
7.690516314155369,0.04940371813584302,6.917109493630825,3.6513694494278712,-16.465137466859566,5.978437100665439
7.691010351336727,-0.11524765653275265,6.953623188125103,3.7111538204345256,-16.596919990546343,6.205406837413171
7.689857874771399,-0.2812168564382161,6.990734726329449,3.773207888808657,-16.73254126909293,6.488354826308337
7.687045706207017,-0.4485422691291454,7.028466805217535,3.8380914370717405,-16.86675085661857,6.816260421387795
7.682560283515725,-0.6172097776953311,7.066847719588252,3.9062540412856186,-16.99044040437466,7.172756862066823
7.676388185738772,-0.7871141817390778,7.105910260001108,3.977981609906287,-17.08926612477828,7.534217473399474
7.668517043921382,-0.9580068429868606,7.145690076100172,4.053323784640281,-17.142037520585095,7.867476682170101
7.658936975491513,-1.1294272181927116,7.1862233139465745,4.131998551461982,-17.11904429096348,8.127415235185719
7.647642703309586,-1.3006176611023466,7.227543299461194,4.213272703813839,-16.98073096513607,8.254969962496869
7.6346365266985625,-1.4704249707537072,7.269676026499333,4.295822403438808,-16.677497350756678,8.176645462287587
7.619932276991025,-1.637199944261274,7.312634250533721,4.377588858061684,-16.151861700493193,7.807254870334295
7.603560277548413,-1.7987185612662058,7.356410139114338,4.455661406765027,-15.344569214178065,7.05811943477934
7.585573091935751,-1.9521642534079864,7.400966753181988,4.526242601112821,-14.20598796097908,5.852653550240623
7.56605144940167,-2.0942241330177773,7.446229179193116,4.584769136615227,-12.712609841817585,4.1491748996058275
7.5451092080714925,-2.2213502314359532,7.492076870559268,4.626260885611286,-10.885245250473469,1.9663053577918184
7.522895705757133,-2.330202683940688,7.538339479415381,4.645923939189204,-8.801502459570688,-0.5992539819060037
7.4995936789177255,-2.4182177085363947,7.5847987188072725,4.639931399370145,-6.593460133995796,-3.375204176738212
7.475411501832362,-2.4841523098763525,7.631198032800974,4.6061793576027625,-4.4257672685419704,-6.143111227889181
7.450569978733598,-2.5284099825617723,7.677259826377002,4.544748245323871,-2.459584440366558,-8.68752592620181
7.42528587890798,-2.553005826965438,7.72270730883024,4.457872986061853,-0.8170640257551347,-10.844579258603535
7.399755820638325,-2.5611764672229893,7.767286038690859,4.349427193475817,0.4387877326544983,-12.529628365585324
7.374144055966095,-2.556788589896444,7.810780310625617,4.224130909819964,1.303545031271946,-13.736628965108547
7.348576170067131,-2.5437531395837247,7.853021619723816,4.0867646201688785,1.8157522750267092,-14.517004700532969
7.323138638671294,-2.5255956168334577,7.893889265925505,3.941594573163549,2.036541674253395,-14.95208315800304
7.2978826825029595,-2.505230200090924,7.9333052116571405,3.7920737415835184,2.032452668426126,-15.129967293179403
7.27283038050205,-2.484905673406663,7.971225949072975,3.6407740686517243,1.864599130504677,-15.131074869695256
7.247981323767983,-2.466259682101616,8.007633689759492,3.4894633199547718,1.5837129468326165,-15.021643207911389
7.223318726946967,-2.45042255263329,8.04252832295904,3.339246887875658,1.2291556233829275,-14.852564852979452
7.198814501420634,-2.4381309963994604,8.075920791837797,3.1907212393458635,0.830021728290897,-14.660992898243862
7.1744331914566395,-2.4298307791165517,8.107828004231255,3.0441113103634247,0.4070335526356309,-14.472956756645452
7.150134883665474,-2.425760443590195,8.13826911733489,2.89938174279697,-0.02549532284120812,-14.30602292125282
7.125877279229572,-2.4260153968186073,8.16726293476286,2.756321513584442,-0.45794802936187673,-14.171581299912544
7.101617125261386,-2.430594877112226,8.194826149898704,2.6146057005853165,-0.8840369349587007,-14.076643464291775
7.077311176490264,-2.439435246461813,8.220972206904557,2.4738392659423987,-1.2997656700051372,-14.025181872291812
