th1 (rad),w1 (rad/s),th2 (rad),w2 (rad/s)
5.7869569056418975,-2.9259341583495133,2.65043859354856,1.79421914103639
5.757697564058402,-2.878566820811915,2.6683807849589236,1.7957991895749807
5.728911895850283,-2.822363363583985,2.6863387768546736,1.8115922925787067
5.7006882622144435,-2.758118185974423,2.704454699780461,1.8403078661328507
5.673107080354699,-2.6868453410980306,2.722857778441789,1.880359813313284
5.646238626943719,-2.609706325132535,2.741661376574922,1.9299729341461638
5.6201415636923935,-2.527936385338128,2.7609611059163837,1.9872914283515002
5.594862199839012,-2.4427762751633773,2.7808340201998987,2.0504788315253175
5.570434437087378,-2.355414604380137,2.801338808515152,2.1178015337745455
5.546880291043577,-2.2669437880165546,2.8225168238528977,2.187691406713748
5.524210853163411,-2.1783305123921437,2.844393737920035,2.2587863280071256
5.502427548039489,-2.09039992052495,2.866981601200106,2.3299500460479363
5.4815235488342395,-2.0038315372868145,2.8902811016605856,2.4002746164800404
5.461485233461372,-1.9191643331536854,2.914283847825386,2.469069538750147
5.442293590129835,-1.8368081878648579,2.9389745432128875,2.535841859852479
5.423925508251187,-1.757059229905975,2.9643329618114125,2.600271113175024
5.406354915952127,-1.6801169504383375,2.990335672943163,2.6621822556193306
5.389553746447744,-1.606101495437876,3.0169574954993563,2.721518954160756
5.373492731493365,-1.5350700353739304,3.044172685040964,2.778318794960292
5.358142031139626,-1.467031542003561,3.071955872990567,2.8326913262420392
5.34347171571959,-1.401959641857168,3.100282786252987,2.884799333915976
5.329452119301019,-1.3398034628083764,3.129130779592147,2.934843386152543
5.316054084672935,-1.2804965539158024,3.1584792134536723,2.9830494503452365
5.303249119133777,-1.223964055603513,3.1883097079571248,3.029659255671065
5.291009478577742,-1.170128344399485,3.2186063005138354,3.074923018729216
5.279308195133747,-1.1189133893647834,3.2493555307011275,3.1190941439230153
5.268119061240099,-1.0702480485825931,3.2805464721403577,3.1624255348496795
5.257416580754273,-1.02406851304735,3.3121707274888545,3.2051671936699186
5.2471758956237995,-0.9803200785767641,3.3442223994255538,3.2475648324643966
5.237372694838032,-0.9389583982439035,3.3766980477501978,3.2898592677373353
5.227983110855593,-0.8999503408464535,3.409596640427571,3.332286412904523
5.218983607447129,-0.8632745564272316,3.4429195045566163,3.3750777219994346
5.210350861882857,-0.8289218283443497,3.476670281776611,3.4184609702856803
5.202061643599413,-0.7968952728460766,3.5108548914794677,3.4626612839804456
5.194092690870953,-0.767210431196513,3.5454815043192722,3.507902352204938
5.186420586558988,-0.7398952855899099,3.5805605278413215,3.5544077700160477
5.179021633703089,-0.7149902177226596,3.616104605541482,3.602402472312015
5.171871731525862,-0.6925479171968687,3.652128630264602,3.652114224745508
5.164946252353894,-0.6726332350236459,3.6886497725120573,3.703775139455689
5.158219920003657,-0.6553229643281846,3.7256875239066143,3.757623180021381
5.151666690360376,-0.6407055146380085,3.763263755706828,3.8139036106394486
5.145259635213995,-0.6288804262046024,3.8014027918132225,3.872870327616819
5.1389708309519495,-0.6199576444885733,3.840131495089391,3.9347869844633334
5.132771254507063,-0.6140564393121006,3.8794793649340242,3.9999277816903356
5.1266306901139425,-0.6113038043127367,3.9194786427509274,4.0685777338463724
5.120517652070815,-0.6118321049145454,3.960164420089391,4.141032142334311
5.114399331021669,-0.6157756499944428,4.0015747415127345,4.217594883524969
5.108241574521725,-0.6232657345440719,4.043750690347984,4.298574954762939
5.102008917176284,-0.6344235263567989,4.086736439895613,4.384280489569611
5.095664681912716,-0.6493499356236785,4.13057924479131,4.475009137874366
5.089171182556479,-0.6681112987217921,4.175329336170053,4.571033286416237
5.0824900695692605,-0.690719317621901,4.221039669034216,4.672578052401704
5.0755828763930415,-0.7171032311196982,4.267765449558233,4.779789322946368
5.068411844081845,-0.7470716981649526,4.315563342787697,4.892688384884208
5.060941127100195,-0.7802614705041105,4.364490226636539,5.0111090488779855
5.0531385123951535,-0.8160698943277068,4.414601317125319,5.134612972170201
5.044977813451877,-0.8535691359075134,4.4659474468470215,5.2623798241506625
5.036442122092802,-0.8914026815998397,4.518571245088528,5.393072237471055
5.0275280952768036,-0.9276704689991364,4.572501967463238,5.52468298320719
5.018251390586812,-0.959819532154923,4.62774879729531,5.654385670502079
5.008653195265262,-0.9845731048692944,4.684292654000331,5.778431698053091
4.998807464216569,-0.9979504845736591,4.742076970980862,5.892162286257624
4.988827959370833,-0.995443732002746,4.800998593843438,5.99022330543787
4.978873522050805,-0.9724075567759715,4.860900826897817,6.067058105725252
4.969149446483046,-0.9246641590430866,4.921571407955069,6.117680747090618
4.959902804892615,-0.8492213800035752,4.982748215425975,6.138593681148969
4.951410591092579,-0.7448918907688942,5.044134152237464,6.128566826133183
4.943961672184891,-0.61256911169846,5.1054198204987955,6.088955308457326
4.937835981067906,-0.4550258792881047,5.166309373583369,6.023385614375684
4.933285722275024,-0.27631048061408925,5.226543229727126,5.936921519676875
4.930522617468884,-0.08098114142941745,5.285912444923895,5.835040097057269
4.92971280605459,0.12656314141150182,5.344262845894468,5.722761696426045
4.9309784374687045,0.3425085973716658,5.401490462858728,5.604121177731871
4.9344035234424215,0.5637979657071817,5.457531674636047,5.481984237898176
4.9400415030994935,0.7881168935313698,5.512351517015029,5.358106672293869
4.9479226720348075,1.0137821340701907,5.565932583737967,5.233316710958692
4.958060493375509,1.239598450519203,5.618265750847554,5.107731014148193
4.970456477880701,1.4647230712556847,5.669343060989036,4.980954567321416
4.9851037085932575,1.6885544857982033,5.71915260666225,4.852244784942284
5.00198925345124,1.9106492406465891,5.767675054511672,4.72063738684804
5.021095745857705,2.1306641903487744,5.814881428380152,4.585039268101387
5.042402387761193,2.3483195695524404,5.860731821061166,4.4442957027810746
5.065885583456717,2.5633781652545617,5.905174778088977,4.297238745717938
5.091519365109263,2.775636546062533,5.948147165546156,4.142722305055506
5.119275730569888,2.9849251340049356,5.989574388596711,3.9796478620036986
5.149124981909938,3.1911146316161036,6.029370867216748,3.8069835344592877
5.181036128226099,3.3941268686881743,6.067440702561341,3.623778207779007
5.214977396912981,3.5939485107564106,6.103678484639131,3.4291717858441095
5.250916882020545,3.7906462994844308,6.137970202497572,3.22240222158367
5.288823345015389,3.9843825956242265,6.170194224713408,3.0028098481003935
5.328667170971632,4.175429974783029,6.200222323194412,2.76983965011838
5.370421470719462,4.364183467316911,6.227920719695596,2.5230425211961895
5.414063305392631,4.551168685118918,6.253151144907558,2.262077316093574
5.45957499224382,4.737043442043008,6.275771918068494,1.9867167576364826
5.506945426664251,4.922589388681805,6.295639085644859,1.696862201570851
5.556171320551068,5.108688397084719,6.312607707660567,1.3925752187943221
5.607258204521916,5.2962755939815525,6.326533459848511,1.0741383698197313
5.660220960461731,5.486256612843569,6.337274843546708,0.7421639685046344
5.715083526590167,5.679370422104624,6.344696483231754,0.39777850707328305
5.771877230811214,5.875971085568189,6.348674268302487,0.0429214351080201
5.830636941666896,6.07569378605252,6.349103482653567,-0.31919261158052303
5.8913938795274206,6.276968481110084,6.345911556537762,-0.6833982635479277
5.954163564338521,6.476363971004325,6.339077573902283,-1.0416717406182607
6.018927204048564,6.667816474771285,6.3286608564961,-1.3820788252528504
6.085605368796277,6.841963387037588,6.314840068243572,-1.687909597949297
6.154025002666653,6.9860809742158585,6.297960972264079,-1.9377318420873968
6.223885812408812,7.08538396251071,6.278583653843205,-2.1074620192447604
6.294739652033919,7.126260565606932,6.2575090336507575,-2.1752726127687847
6.366002257689988,7.100866039965476,6.2357563075230695,-2.1284770098164913
6.437010918089643,7.010748833391819,6.214471537424904,-1.9689893185614882
6.507118406423562,6.866806306107355,6.194781644239289,-1.7133888848215948
6.575786469484635,6.685283544112364,6.177647755391074,-1.3871029305002232
6.642639304925758,6.4825267057076585,6.163776726086072,-1.0166050829401698
6.707464571982835,6.271426077664291,6.15361067525667,-0.6239448132174823
6.770178832759478,6.0603684353482805,6.147371227124495,-0.22490898320716213
6.830782517112961,5.853832922960268,6.145122137292423,0.17035852096224835
6.889320846342564,5.65353123164773,6.1468257225020455,0.5558550300086235
6.945856158659041,5.4594613335531115,6.152384272802132,0.9282714198205226
7.000450771994572,5.270677287200464,6.161666987000337,1.2859147454873563
7.053157544866576,5.085788478713986,6.174526134455211,1.6280044970218381
7.104015429653717,4.9032611528365395,6.190806179425429,1.954249837902661
7.153048041182082,4.721591548508284,6.210348677804456,2.2646130159144047
7.200263956667165,4.539400577842269,6.2329948079636,2.559187841109446
7.245657962445588,4.355481991492286,6.258586686374694,2.8381459594555194
7.289212782360511,4.168823193145374,6.286968145969249,3.1017212351949097
7.330901014291964,3.9786097613922955,6.317985358321198,3.350214115483176
7.3706871119058865,3.7842199161556316,6.35148749947603,3.5840050750757806
7.408529311067443,3.5852124332873174,6.387327550226788,3.8035706695386726
7.444381435400316,3.3813100382553882,6.425363256922174,4.009498445112001
7.47819453578287,3.172379574036437,6.465458241373294,4.202498643097411
7.5099183315232345,2.9584099210277843,6.507483227804268,4.38341169903356
7.539502430733513,2.739488560335399,6.551317344794604,4.553211197744478
7.566897316336867,2.515777710963385,6.596849456772048,4.713002322361127
7.5920550934465005,2.287491085070786,6.64397947999566,4.864015980378965
7.614930004297208,2.0548724811282377,6.6926196397994495,5.007598711616518
7.635478729108491,1.8181776915957357,6.742695626915615,5.14519815795351
7.6536605060244485,1.5776615881458937,6.79414760849515,5.278343248388088
7.669437121905907,1.3335728418247097,6.8469310409790305,5.408617235985106
7.682772850324154,1.0861596457655427,6.901017213338881,5.537620187405944
7.693634446781809,0.8356911631907298,6.956393415212941,5.666915309090424
7.701991358413716,0.5825013402004249,7.013062568303845,5.797950440298808
7.707816371815721,0.32706420994549223,7.071042072706833,5.931942125066648
7.711087013915176,0.07011254005986783,7.1303614939574995,6.069705308875583
7.711788139315774,-0.18718653304658506,7.191058547046255,6.211408436630203
7.709916273985309,-0.4429873199549337,7.253172631412557,6.356235523178142
7.70548640078576,-0.6944533061107806,7.316734986644338,6.501951951152691
7.698541867724652,-0.93740944028181,7.381754506155865,6.644413522198054
7.6891677733218335,-1.1660558872733835,7.448198641377846,6.777145544952545
7.6775072144491,-1.3729370691709735,7.515970096827371,6.891252375732991
7.66377784375739,-1.5494478023946283,7.584882620584701,6.9760420735023025
7.648283365733444,-1.6871196650787088,7.654643041319725,7.020704774223876
7.631412169082656,-1.7796108348191275,7.724850089061963,7.016953673740452
7.613616060734465,-1.8247414856102817,7.795019625799368,6.961748507445206
7.595368645878362,-1.8255111134503117,7.86463711087382,6.85866871898635
7.577113534743859,-1.7893975400369053,7.9332237980636835,6.716996730897203
7.559219559343489,-1.7262828809243211,8.000393765372655,6.548986437829949
7.541956730534246,-1.6461311563266035,8.065883629750955,6.366832812548093
7.52549541897098,-1.5573861435575622,8.129551957876435,6.180627502240853
7.509921557535404,-1.466350732397773,8.191358232898844,5.997623170821256
7.495258050211426,-1.3772770554830833,8.251334464607057,5.822422855139711
7.481485279656595,-1.2927793388636903,8.309558693158454,5.657569204326105
7.468557486267958,-1.2142989477311117,8.366134385201715,5.504177365867609
7.4564144967906465,-1.142497396974825,8.42117615886039,5.362454795545069
7.444989522820898,-1.0775466740398323,8.474800706815842,5.232075262854476
7.4342140560805,-1.0193277948920587,8.527121459444386,5.112427212151617
7.424020778131579,-0.9675600437122102,8.578245731565902,5.00276962171072
7.414345177694457,-0.9218821278526022,8.628273427783009,4.90232521166015
7.4051263564159315,-0.8819015811390747,8.67729667989961,4.810333333777868
7.396307340604541,-0.8472238483768411,8.725400013237389,4.726077826595328
7.387835102120773,-0.8174686563274622,8.772660791503341,4.6488997815434665
7.379660415557498,-0.7922785816697494,8.819149789318775,4.578201490911523
7.3717376297408,-0.7713229280870392,8.86493180422789,4.513445443485534
7.36402440045993,-0.754298859939553,8.910066258662745,4.454150706034985
7.356481411860535,-0.740930998892127,8.954607765723095,4.399888076360546
7.349072101871613,-0.7309702234577845,8.998606646486701,4.350274807506627
7.341762399637035,-0.7241921201151301,9.042109394561768,4.304969345912181
7.334520478435883,-0.7203953539227087,9.08515908802089,4.263666311368434
7.3273165248966565,-0.7194001152514117,9.127795751134574,4.226091818932953
7.320122523744143,-0.7210467313899382,9.170056669323904,4.191999168466048
7.3129120564302434,-0.7251944909638866,9.211976661008563,4.161164885313155
7.305660111520605,-0.7317207049950549,9.253588309861694,4.133385073106965
7.298342904470654,-0.7405200144115381,9.294922160592764,4.108472029046676
7.290937704326539,-0.7515039455946766,9.33600688088323,4.086251068885115
7.283422664870592,-0.7646007101748035,9.376869391572082,4.0665575108600756
7.275776657768844,-0.7797552405817652,9.417534966680684,4.049233774011509
7.267979105363026,-0.7969294469880153,9.4580273044208,4.034126556856653
7.260009810893146,-0.8161026724934846,9.498368569989365,4.021084078246549
7.251848784168211,-0.8372723098182737,9.538579410771831,4.009953385173944
7.243476061070028,-0.8604545223025334,9.57867894462357,4.000577764822777
7.234871515847003,-0.8856849823802603,9.618684722271798,3.9927943432765183
7.226014666023201,-0.9130194996326323,9.658612665704563,3.986432014267364
7.216884471026875,-0.9425343563181934,9.698476985847236,3.9813099208301233
7.207459127463693,-0.974326100745827,9.738290085055537,3.9772368114629937
7.197715866456234,-1.00851047102711,9.778062453170167,3.9740117068902263
7.187630761745964,-1.0452200422815332,9.817802570239069,3.9714264326153623
7.1771785613231485,-1.0846001266727268,9.857516834565223,3.969270672956188
7.166332560056421,-1.1268024369516476,9.897209541294785,3.9673402444553605
7.155064535686905,-1.1719760929578897,9.936882943739338,3.965449211905122
7.143344774757326,-1.2202557593581265,9.97653743585839,3.963446205196422
7.131142217163744,-1.2717471026291503,10.016171897910354,3.9612347671439303
7.118424746137453,-1.326510370994186,10.055784245581794,3.9587967324515954
7.105159642427512,-1.384543696276717,10.09537221290631,3.9562165505236586
7.0913142054647444,-1.4457685562233427,10.134934378411547,3.9537033004734643
7.076856519902511,-1.5100204701403723,10.174471411416281,3.9516062460454138
7.061756315201107,-1.577048103675671,10.213987473876735,3.950419592372136
7.04598583416435,-1.6465232405145478,10.253491669800455,3.9507730438994773
7.029520601759205,-1.7180624532633433,10.29299940023945,3.953406958038814
7.0123399772265715,-1.7912590318632242,10.332533469819838,3.9591340029708433
6.994427386907939,-1.865721415280512,10.372124809849547,3.9687924333317044
6.9757701727551344,-1.9411127861316435,10.411812734182863,3.983198342402365
6.956359044893818,-2.0171862151219937,10.451644717606888,4.003104716121464
6.936187182742598,-2.0938109013023007,10.491675764768102,4.0291736232532775
6.9152490737295755,-2.1709872329503397,10.531967501000635,4.061964980699664
6.893539201400072,-2.248850855782995,10.572587150807632,4.101942041942685
6.871050692842243,-2.3276679611145936,10.61360657122706,4.149491065210695
6.8477740132310965,-2.4078251702388007,10.655101481879166,4.204951126244488
6.823695761528708,-2.489817643417788,10.69715099314161,4.268649833183729
6.798797585094531,-2.574238616070635,10.739837491473448,4.340941473920471
6.773055198933824,-2.6617728069932074,10.783246906212653,4.422245421108171
6.746437470863892,-2.7531953659275015,10.827469360423736,4.513084027727717
6.718905517204617,-2.8493774357668267,10.872600200701013,4.614120510208662
6.690411742846949,-2.9512990906812586,10.9187414058031,4.7261983427983205
6.660898751940136,-3.0600703866902084,10.966003389231084,4.850384502192445
6.630298048073234,-3.17696149391042,11.014507234253008,4.988019594506116
6.59852843313413,-3.3034433214095054,11.06438743019807,5.14077856957316
6.565493999920035,-3.441240635536286,11.115795215893801,5.310746451854174
6.5310815935646716,-3.5924003102756448,11.168902680412343,5.5005142779822185
6.495157590461915,-3.759377810574647,11.223907823192166,5.713301014824061
6.4575638123561685,-3.945144751858185,11.281040833340406,5.953106964434058
6.418112364837587,-4.153318067481793,11.340571902984745,6.224901278793515
6.376579184162769,-4.388303730916093,11.402820915772681,6.5348363493896615
6.332696146853608,-4.655427428523735,11.468169279266577,6.890454473127771
6.28614187256837,-4.960972849632411,11.537073823997854,7.300782199711479
6.236532144072046,-5.311922975026629,11.610081645994969,7.776036299291028
6.18341291432178,-5.714906675929496,11.687842008987879,8.326260770938886
6.126263847562485,-6.17320760413953,11.771104616697267,8.957317400836219
6.064531771521089,-6.679468538747641,11.86067779070563,9.660939831514746
5.997737086133613,-7.200365278838877,11.957287189020777,10.393631680566257
5.925733433345224,-7.652468364753506,12.061223505826439,11.04320726128509
5.849208749697689,-7.8903503635577055,12.171655578439289,11.412101778161917
5.770305246062112,-7.770239609281052,12.285776596220908,11.305331997200641
5.692602849969301,-7.296120492969481,12.398829916192915,10.732096583462088
5.619641645039606,-6.640290783608453,12.506150882027535,9.931882069173858
5.553238737203522,-5.973419883637179,12.605469702719274,9.138463698753087
5.49350453836715,-5.371832536257032,12.696854339706805,8.454198899286478
5.439786213004579,-4.848486591243043,12.78139632869967,7.89485051312513
5.391301347092148,-4.39366062872454,12.86034483383092,7.446073079891587
5.3473647408049025,-3.993309880726953,12.934805564629837,7.08842833777922
5.307431641997633,-3.6347063490833555,13.005689848007629,6.804844165246257
5.2710845785068,-3.3075340560746582,13.073738289660092,6.5819074357348075
5.238009237946053,-3.003688935610514,13.13955736401744,6.409448739567654
5.207972348589948,-2.716826602172996,13.203651851413117,6.279822605665733
5.180804082568218,-2.4419482976588314,13.266450077469774,6.18725913515744
5.15638459959163,-2.17508405728686,13.328322668821349,6.127353166175985
5.134633759018761,-1.9130683869291765,13.389596200483108,6.096674705678729
5.115503075149469,-1.6533907090408388,13.450562947539895,6.092469645144223
5.098969168059061,-1.394103688850949,13.511487643991337,6.1124232214333585
5.085028131170552,-1.1337760466415137,13.572611876205672,6.154465683999529
5.073690370704137,-0.8714793662789746,13.634156533045667,6.216606387544765
5.064975577041347,-0.6067999466917556,13.696322596921116,6.296788463984884
5.058907577574429,-0.33986685896146934,13.759290481560964,6.392761571291921
5.055508908984814,-0.07138626471923887,13.823218097273882,6.501975226290646
5.054795046337622,0.19732988498272236,13.888237849536788,6.621499881836969
5.056768345187449,0.4643547487566781,13.954452848355157,6.747986750415089
5.061411892675016,0.7271723105359007,14.021932715859307,6.877679460368787
5.068683615780375,0.9827521928134515,14.090709510462995,7.006489636938305
5.078511137708509,1.2276833997865566,14.160774406832378,7.130143130521862
5.090787971706375,1.4583681023351687,14.232075838137597,7.244393318360342
5.105371652729726,1.6712641585208965,14.3045197713212,7.345283753953134
