th1 (rad),w1 (rad/s),th2 (rad),w2 (rad/s),a1 (rad/s^2),a2 (rad/s^2)
4.413217268246288,-2.0328444478593313,4.599864558379934,0.689517095565113,9.669283794085166,-0.5301650788118402
4.392888823767694,-1.9361516099184797,4.606759729335585,0.6842154447769946,9.532214917553766,-0.36529657013301364
4.3735273076685095,-1.840829460742942,4.613601883783355,0.6805624790756645,9.375581872128926,-0.1602093807641296
4.35511901306108,-1.7470736420216528,4.620407508574112,0.6789603852680232,9.2054998679437,0.07484273972038771
4.337648276640864,-1.6550186433422158,4.627197112426792,0.6797088126652271,9.027317041416943,0.33086029989411836
4.321098090207442,-1.5647454729280463,4.6339942005534445,0.6830174156641683,8.845596088269161,0.6001294347046022
4.305450635478161,-1.4762895120453547,4.640824374710086,0.6890187100112143,8.664148172022298,0.8761708671117711
4.290687740357708,-1.3896480303251317,4.647714561810199,0.697780418682332,8.486098543530133,1.1536379599751214
4.276791260054456,-1.3047870448898304,4.654692365997022,0.7093167982820832,8.313967967484677,1.4281883844817238
4.263743389605558,-1.2216473652149837,4.661785533979843,0.7235986821269004,8.149758666362224,1.6963469897071992
4.251526915953408,-1.1401497785513615,4.669021520801111,0.7405621520239724,7.995037439561084,1.9553714808904177
4.240125418167895,-1.0601994041557505,4.6764271423213515,0.7601158668328766,7.8510116790176845,2.2031278380317696
4.229523424126337,-0.9816892873655737,4.68402830098968,0.7821471452131943,7.7185962035248314,2.4379790127798837
4.219706531252681,-0.9045033253303254,4.691849772441812,0.8065269353409932,7.598470306020588,2.6586881406979157
4.210661497999378,-0.8285186222701195,4.699915041795222,0.8331138167479724,7.491125318392402,2.8643360549145083
4.202376311776677,-0.7536073690861955,4.708246179962702,0.8617571772971174,7.39690350488161,3.0542520532696202
4.194840238085814,-0.6796383340373794,4.716863751735673,0.8922996978298137,7.316029328794978,3.2279564599919928
4.18804385474544,-0.6064780407494296,4.725786748713971,0.9245792624297335,7.248634197499564,3.385113385407768
4.181979074337946,-0.533991698774434,4.735032541338269,0.9584303962838112,7.19477574878556,3.5254921153858687
4.176639157350201,-0.4620439412865784,4.744616845301107,0.9936853174376699,7.154452645907697,3.6489356822261754
4.172018717937335,-0.3904994148275014,4.754553698475484,1.0301746742599316,7.127615730068767,3.7553353321448184
4.16811372378906,-0.3192232575268137,4.764855445218084,1.0677280275813799,7.114176256725734,3.8446097813916182
4.164921491213792,-0.24808149495955634,4.775532725493897,1.1061741253952961,7.114011826579959,3.9166883258778546
4.162440676264197,-0.17694137669375676,4.78659446674785,1.1453410086540747,7.12697051882447,3.9714970287666125
4.160671262497259,-0.10567167150551206,4.798047876834391,1.1850559789417408,7.152873645232801,4.0089473527331405
4.159614545782204,-0.03414293505318404,4.809898436623809,1.2251454524690721,7.191517469139393,4.028926727581399
4.159273116431672,0.0377722396382099,4.8221498911484995,1.265434719744886,7.242674172406009,4.031290650369678
4.159650838828054,0.11019898136227,4.834804238345948,1.3057476262485828,7.30609230475069,4.015856005759908
4.160752828641677,0.1832599044097769,4.847861714608435,1.3459061863061819,7.381496911852159,3.982395370882763
4.162585427685775,0.2570748735282985,4.861320776471496,1.3857301400150095,7.468589509989622,3.9306321335254735
4.165156176421058,0.3317607686281947,4.875178077871646,1.4250364613502642,7.5670480543180565,3.860236306659487
4.16847378410734,0.4074312491713753,4.889428442485149,1.463638824416859,7.676527034044325,3.7708209677488096
4.172548096599053,0.4841965195118185,4.904064830729317,1.501347034094347,7.796657819737942,3.6619392891712987
4.1773900617941715,0.5621630977091979,4.919078301070261,1.53796642698606,7.927049384875314,3.5330821574416333
4.183011692771263,0.6414335915579511,4.934457965340122,1.5732972485604764,8.067289524651095,3.3836764045116916
4.189426028686842,0.722106486804462,4.9501909378257265,1.6071340126055933,8.21694669930401,3.213083694810174
4.196647093554887,0.804275953797502,4.966262277951783,1.639264849553695,8.37557263589701,3.020600127281043
4.204689853092862,0.8880316801564722,4.98265492644732,1.6694708508265055,8.542705830806755,2.8054566227973043
4.213570169894427,0.9734587384645397,4.999349634955585,1.6975254170544785,8.71787610415139,2.5668201742292247
4.223304757279073,1.0606374995060537,5.016324889126129,1.7231936187967707,8.90061036589412,2.3037960394374375
4.233911132274134,1.1496436031649948,5.033556825314097,1.7462315791911451,9.090439760052483,2.015430956995065
4.245407568305784,1.2405480007655196,5.051019141106009,1.7663858887610957,9.286908356666407,1.7007174612684663
4.257813048313439,1.3334170843321838,5.068682999993619,1.7833930633737805,9.489583558871587,1.3585993688645406
4.271147219156761,1.4283129199208997,5.086516930627357,1.7969790570624258,9.698068381983253,0.9879785044460754
4.285430348355971,1.5252936037407323,5.104486721197981,1.8068588421068865,9.912015739567332,0.5877227338074822
4.3006832843933775,1.6244137611364056,5.12255530961905,1.8127360694449612,10.131144833675876,0.1566753809712757
4.316927422004742,1.7257252094731643,5.140682670313499,1.814302823254674,10.35525968690205,-0.3063338683904488
4.334184674099474,1.8292778063421848,5.158825698546045,1.8112394845707696,10.584269764719684,-0.8024764212199186
4.352477452162895,1.9351205039893817,5.176938093391753,1.8032147203585704,10.81821250671857,-1.3329103343487148
4.371828657202789,2.0433026290565675,5.194970240595339,1.7898856170150832,11.057277399372374,-1.8987635518773625
4.392261683493355,2.153875403050291,5.212869096765489,1.7708979814963095,11.301830958867942,-2.5011141264838144
4.413800437523857,2.2668937126389705,5.230578076580453,1.7458868402314713,11.552441618611187,-3.140966299127773
4.436469374650247,2.3824181288250825,5.2480369449827675,1.7144771772401937,11.809902986445511,-3.8192206530247175
4.460293555938497,2.500517158689538,5.265181716755169,1.6762849707099465,12.07525318475161,-4.5366355654821735
4.485298727525392,2.621269690537054,5.281944566462268,1.6309186150551247,12.349786915689906,-5.293775706631141
4.511511424430763,2.744767559693953,5.29825375261282,1.5779808579888133,12.635055363936072,-6.0909411670010085
4.538959100027703,2.8711181133333135,5.314033561192708,1.517071446318803,12.932846859538742,-6.928067641263726
4.5676702811610355,3.000446581928701,5.329204275655895,1.4477907699061658,13.245138089869998,-7.804583544942084
4.5976747469803225,3.1328979628274007,5.343682183354957,1.369744934456745,13.574001178867409,-8.719203441640593
4.629003726608596,3.268637974616075,5.357379632699525,1.282552900040339,13.921445618999762,-9.669627989829916
4.661690106354757,3.4078524308060727,5.3702051616999285,1.18585662014204,14.289165187668065,-10.652107902632686
4.695768630662818,3.5507440826827534,5.382063727901349,1.079335541115713,14.678147870477186,-11.660812221312074
4.731276071489646,3.6975255613875255,5.392857083312506,0.9627274189025923,15.088090845707809,-12.68691887822119
4.7682513271035205,3.8484064698446034,5.402484357501532,0.8358582301203804,15.516542818883204,-13.717318495154567
4.806735391801967,4.003571898033435,5.410842939802736,0.6986850451688347,15.957674357171753,-14.732793908283877
4.846771110782301,4.163148641605153,5.417829790254424,0.5513571060859959,16.40055959314325,-15.705517727163166
4.888402597198352,4.327154237536585,5.4233433613152835,0.3943019288143642,16.82685486044325,-16.59572101676085
4.931674139573718,4.495422786141018,5.4272863806034275,0.22834471864675568,17.20781310116306,-17.347474469719014
4.976628367435128,4.6675009171526485,5.429569827789895,0.054869973949565526,17.50073573852075,-17.883774133464478
5.023303376606655,4.842508274537856,5.430118527529391,-0.12396776738507925,17.645329497188932,-18.101670779863678
5.071728459352033,5.018961569509745,5.428878849855541,-0.3049844751837161,17.56111973064519,-17.86918808950952
5.12191807504713,5.194572766816197,5.4258290051037035,-0.4836763560788113,17.14813340329779,-17.02731681690939
5.173863802715292,5.366054100849175,5.4209922415429155,-0.6539495242479052,16.294292337255474,-15.402130040212638
5.227524343723784,5.52899702422173,5.414452746300436,-0.8079708246500316,14.893487692522719,-12.832775143347122
5.282814313966002,5.677931901146957,5.406373038053936,-0.9362985760835028,12.876333475679967,-9.218141109606556
5.339593632977471,5.8066952359037565,5.397010052293101,-1.0284799871795682,10.249058162042992,-4.575400139320912
5.397660585336508,5.909185817524186,5.386725252421305,-1.0742339885727774,7.125425691943753,0.9118290007435235
5.45675244351175,5.9804400744436235,5.375982912535577,-1.0651156985653423,3.7290336082749502,6.889038936589056
5.516556844256186,6.017730410526373,5.365331755549924,-0.9962253091994517,0.35074659814189874,12.89286770249838
5.57673414836145,6.021237876507792,5.35536950245793,-0.867296632174468,-2.728219610469725,18.464965037967342
5.636946527126528,5.9939556804030945,5.346696536136185,-0.6826469817947945,-5.3111028907529905,23.264834107852568
5.6968860839305595,5.940844651495564,5.339870066318237,-0.4499986407162688,-7.321792654101036,27.12771472740588
5.7562945304455155,5.867626724954554,5.3353700799110735,-0.17872149344221,-8.793287681772611,30.052592352532052
5.814970797695061,5.779693848136827,5.333582864976651,0.12180443008311054,-9.827311055354112,32.14645181001478
5.872767736176429,5.681420737583286,5.334800909277482,0.44326894818325835,-10.55102347738789,33.56220295646605
5.929581943552262,5.575910502809407,5.339233598759315,0.7788909777479189,-11.086378006984908,34.45351672213872
5.985341048580356,5.465046722739558,5.347022508536794,1.1234261449693062,-11.534806858925073,34.951393984501934
6.039991515807752,5.349698654150307,5.358256769986487,1.4729400848143255,-11.973100411945133,35.157122093420774
6.093488502349254,5.229967650030856,5.37298617083463,1.8245113057485332,-12.455253383806285,35.14432581004533
6.145788178849563,5.105415116192793,5.3912312838921155,2.1759545638489866,-13.016514865099401,34.964667118659136
6.196842330011491,4.975249967541799,5.412990829530606,2.525601235035578,-13.677619820550559,34.65413837426646
6.246594829686909,4.838473769336294,5.438246841880962,2.8721426187782426,-14.448386821983252,34.238604349392794
6.294979567380272,4.693989901116462,5.466968268068745,3.2145286622721705,-15.330510260185319,33.73819045826215
6.341919466391436,4.540684798514609,5.4991135546914665,3.551910566854792,-16.319646370761166,33.17053500878962
6.387326314376582,4.377488334806997,5.534632660360014,3.8836159169426883,-17.406966270957092,32.55306370270737
6.431101197724653,4.203418672097426,5.573468819529441,4.209146553969762,-18.580334533152733,31.904458150758042
6.4731353844456265,4.017615326765898,5.615560285069138,4.528191135477343,-19.825223849481006,31.245456110071103
6.513311537713285,3.819363088271088,5.6608421964239115,4.840645696578054,-21.125418518518323,30.59907307313389
6.551505168595996,3.6081089030859044,5.709248653389692,5.146636427309393,-22.46349877232856,29.990281762152097
6.587586257626856,3.383473915362619,5.760715017662786,5.446539244930914,-23.82103305769368,29.44512420158898
6.621420996780482,3.145263584785682,5.815180410112095,5.740990486946804,-25.17833030073055,28.989149155172264
6.652873632628339,2.8934802817783765,5.872590314981563,6.030881978498527,-26.513509577257217,28.64494946538692
6.681808435446122,2.6283451860058045,5.932899134766549,6.317331473152396,-27.800519129579303,28.42839968223098
6.70809188730618,2.350339994710011,5.996072449498073,6.601615469974705,-29.005571671886724,28.342947711107968
6.73159528725328,2.060284277991144,6.06208860419782,6.885044947085785,-30.081267581620843,28.37100108395212
6.752198130033192,1.7594716021749357,6.130939053668678,7.168754957925306,-30.95751944593606,28.46115160902584
6.7697928460549415,1.4498964077155752,6.202626603247931,7.4533664740155645,-31.52849134414022,28.509989984084832
6.784291810132097,1.134611494274173,6.277160267988087,7.738466373856413,-31.635686514356813,28.338329307314343
6.795637925074839,0.8182546291306048,6.354544931726651,8.021849666929556,-31.0502350507052,27.665394377732362
6.803820471366145,0.5077522786235528,6.4347634283959465,8.29850361070688,-29.464204392681292,26.093536635921847
6.808897994152381,0.21311023469673984,6.517748464503016,8.5594389770661,-26.5125703129304,23.132115547706558
6.8110290964993485,-0.05201546843256416,6.603342854273676,8.790760132543165,-21.859508972928698,18.30610177153342
6.810508941815023,-0.27061055816185114,6.691250455599108,8.973821150258498,-15.373908626667681,11.384448305982005
6.807802836233404,-0.42434964442852796,6.780988667101693,9.087665633318318,-7.353243472325293,2.6759608855237462
6.8035593397891185,-0.4978820791517809,6.871865323434876,9.114425242173555,1.364161743011688,-6.819483923819762
6.798580518997601,-0.484240461721664,6.963009575856612,9.046230402935358,9.593508762009579,-15.66332695826449
6.793738114380384,-0.38830537410156823,7.053471879885965,8.889597133352712,16.276798596815365,-22.59371385854696
6.789855060639368,-0.2255373881334146,7.142367851219492,8.663659994767242,20.894471663588014,-27.04882142169037
6.787599686758035,-0.016592671497534434,7.229004451167165,8.393171780550338,23.51635975256297,-29.21006074352247
6.78743376004306,0.21857092602809527,7.312936168972668,8.101071173115113,24.55929516062469,-29.669797253722944
6.78961946930334,0.4641638776343422,7.39394688070382,7.804373200577883,24.51353070823108,-29.075386110129898
6.7942611080796835,0.709299184716653,7.4719906127095985,7.513619339476584,23.78865372089074,-27.940440908776576
6.80135409992685,0.9471857219255604,7.547126806104364,7.234214930388818,22.673366455402455,-26.60601912207804
6.810825957146106,1.173919386479585,7.619468955408252,6.968154739168038,21.351703520587616,-25.27152989771414
6.8225651510109016,1.387436421685461,7.689150502799933,6.715439440190897,19.933552264340904,-24.039875763358946
6.836439515227756,1.5867719443288701,7.756304897201842,6.4750406825573075,18.481499283480925,-22.954727971387516
6.852307234671045,1.7715869371636794,7.821055304027415,6.245493402843432,17.02985394420869,-22.02593313276079
6.870023104042682,1.9418854766057663,7.883510238055849,6.025234071515825,15.59682734545922,-21.24526847479111
6.88944195880874,2.0978537500603585,7.9437625787710076,5.812781386767913,14.191891847518747,-20.59569669534781
6.910420496309343,2.239772668535546,8.001890392638687,5.606824419814435,12.820052438839591,-20.056612275189515
6.932818222994698,2.367973192923942,8.057958636836831,5.40625829706254,11.484232342033762,-19.606731612519162
6.956497954923938,2.4828155163442793,8.112021219807456,5.210190980937348,10.186538621475474,-19.225637075587045
6.98132611008738,2.5846809025590343,8.16412312961683,5.017934610181477,8.928876026238173,-18.89456563174637
7.00717291911297,2.673969662821416,8.214302475718645,4.828988953864013,7.713190155696488,-18.59677800807582
7.033912615741184,2.7511015643783807,8.262592365257285,4.643021173783255,6.541507568160289,-18.31769566233182
7.061423631384968,2.8165166400599837,8.309022576995117,4.4598442171599375,5.415872650562878,-18.044908240617314
7.089588797785567,2.8706753665656124,8.353621019166717,4.279395134753765,4.338240575799982,-17.7681070697069
7.118295551451223,2.9140577723236123,8.396414970514254,4.101714064056695,3.3103612615853573,-17.47897459233792
7.1474361291744595,2.947161384939466,8.437432111154822,3.926924318133316,2.3336742748489816,-17.171046138422255
7.176907743023854,2.970498127687956,8.476701354336155,3.755213856749094,1.4092252540754906,-16.839553613744332
7.206612724300734,2.9845903802287106,8.514253492903647,3.5868183206116506,0.5376084432032723,-16.481257464363967
7.236458628103021,2.989966464660743,8.550121676109763,3.422005745968011,-0.2810639185511396,-16.09427186328188
7.266358292749628,2.9871558254752317,8.584341733569444,3.261063027335192,-1.0471670578655934,-15.677887470655023
7.296229851004381,2.9766841548965757,8.616952363842795,3.1042841526286415,-1.7615471760836727,-15.232395802764627
7.325996692553347,2.959068683135739,8.647995205369082,2.9519601946009955,-2.4254870051720574,-14.758918940213366
7.355587379384705,2.9348138130840185,8.677514807315092,2.804371005198862,-3.040657713835385,-14.259247901699547
7.384935517515545,2.9044072359456647,8.70555851736708,2.6617785261818665,-3.609061408855101,-13.735692484197271
7.413979589875002,2.868316621857114,8.732176302628899,2.5244216013398937,-4.132968166635767,-13.190944747971079
7.442662756093573,2.826986940190756,8.757420518642297,2.392512153860183,-4.614851056707149,-12.627957650266376
7.470932625495481,2.7808384296236848,8.781345640180898,2.266232577357519,-5.057322055355222,-12.04983965354481
7.4987410097917175,2.7302652090701325,8.804007965954474,2.145734180822071,-5.463071151848926,-11.459765496386604
7.526043661882419,2.675634497551643,8.825465307762695,2.031136525858205,-5.834810366423308,-10.860902751374702
7.552800006857935,2.61728639388741,8.845776673021277,1.922527498344458,-6.175223860126197,-10.256353326606517
7.578972870796809,2.5555341552861477,8.865001948004721,1.8199639650783928,-6.486924842335931,-9.649108707000465
7.6045282123496705,2.490664906862788,8.883201587655504,1.723472878008388,-6.772419583025681,-9.042017479730498
7.629434861418298,2.422940711032531,8.900436316435588,1.633052703211083,-7.034078516684348,-8.437763538908191
7.653664268528623,2.352599925865688,8.916766843467698,1.5486750678220012,-7.274114180317859,-7.8388533067920365
7.67719026778728,2.279858784062509,8.932253594145918,1.4702865347540808,-7.494565552210411,-7.247610327974462
7.699988855627905,2.204913128540405,8.946956459493459,1.3978104314743363,-7.697288241767297,-6.666175673480176
7.722037986913309,2.1279402461227317,8.960934563808202,1.3311486747395345,-7.883949913377444,-6.0965127178525
7.743317389374536,2.049100746988957,8.974246050555598,1.2701835475610095,-8.056030298414365,-5.540415009476374
7.763808396844426,1.9685404440048133,8.986947886031208,1.2147793974662457,-8.214825149587334,-4.999516129586419
7.783493801284474,1.88639219250894,8.99909568000587,1.1647842361703815,-8.361453512449833,-4.475300617574495
7.802357723209564,1.8027776573844416,9.010743522367575,1.1200312299946367,-8.496867723041273,-3.969115220311186
7.820385499783408,1.7178089801540288,9.021943834667521,1.0803400777915249,-8.621865582984402,-3.4821798941675333
7.837563589584948,1.6315903243241847,9.032747235445436,1.0455182788498496,-8.7371042099221,-3.015598145037829
7.85387949282819,1.5442192822249636,9.043202418233935,1.0153622973994714,-8.84311510922701,-2.5703664303469025
7.86932168565044,1.4557881311326935,9.05335604120793,0.9896586330960023,-8.940320060708574,-2.1473824656794274
7.883879566961767,1.3663849305256077,9.06325262753889,0.9681848084392081,-9.029047460531118,-1.7474523765012113
7.897543416267022,1.2760944559202965,9.072934475623283,0.9507102846741959,-9.109548803140337,-1.3712967128000402
7.910304360826226,1.184998967888893,9.082441578470025,0.9369973175461955,-9.182015030286605,-1.0195554026768048
7.922154350505115,1.0931788175860269,9.091811551645486,0.9268017635194274,-9.246592513896521,-0.6927917620789039
7.933086138680975,1.0007128924470616,9.101079569280682,0.9198738458986384,-9.303398476198835,-0.39149570468681877
7.9430932676054455,0.9076789076850733,9.110278307739668,0.9159588888517702,-9.352535683709778,-0.1160863114917246
7.952170056682296,0.8141535508479756,9.119437896628185,0.914798025736853,-9.394106280950316,0.13308607302519124
7.960311592190775,0.7202124880384724,9.128585876885554,0.9161288864671049,-9.42822465468931,0.35573804902901995
7.96751371707116,0.6259302414915793,9.137747165750225,0.9196862669573951,-9.455029239841442,0.5516515052241812
7.973773019486076,0.5313799490931649,9.1469440284198,0.9252027820096369,-9.474693193943825,0.7206719313331338
