th1 (rad),w1 (rad/s),th2 (rad),w2 (rad/s)
2.598971078347876,-2.27578918280555,1.3802178931503444,-1.218716200697488
2.5762131865198206,-2.3282776360093,1.3680307311433695,-1.2482272573030262
2.5529304101597274,-2.3835019692168276,1.3555484585703392,-1.2739467059288185
2.529095390467559,-2.44151769396539,1.342808991511051,-1.2956254408748549
2.504680213527905,-2.502380461830196,1.3298527371023026,-1.3130020993724825
2.4796564089096034,-2.5661469628924376,1.3167227161085777,-1.3258024919667022
2.453994939280679,-2.6328760269577844,1.3034646911889107,-1.3337390091394912
2.427666179011101,-2.7026299550087853,1.2901273010975158,-1.3365099991969758
2.400639879461013,-2.775476110336432,1.2767622011055462,-1.333799110720434
2.3728851183576487,-2.851488800277521,1.263424209998342,-1.3252745915402917
2.3443702303548735,-2.930751480117737,1.250171464082939,-1.3105885357985483
2.315062715553696,-3.013359309938159,1.2370655787249536,-1.2893760721258118
2.2849291224543142,-3.0994220921063764,1.2241718180036956,-1.261254490702442
2.2539349015332504,-3.1890676103779296,1.211559273096671,-1.2258223172183658
2.222044225429471,-3.282445379056341,1.1993010499244874,-1.1826583609153594
2.1892197716389075,-3.379730789054465,1.1874744663153338,-1.1313207972430377
2.155422463748363,-3.4811296018572317,1.1761612583429035,-1.071346401231215
2.1206111677297907,-3.5868826842938404,1.1654477943305914,-1.0022501377773791
2.0847423408868524,-3.69727078424407,1.1554252929528177,-0.9235254584430763
2.0477696330444117,-3.812619000680761,1.146190038368387,-0.8346458796232669
2.009643443037604,-3.933300371198718,1.1378435795721542,-0.7350687673728806
1.9703104393256168,-4.059737641373882,1.1304928918984254,-0.6242427946797903
1.929713062911878,-4.192401725548512,1.1242504639516275,-0.5016213634533677
1.8877890456563928,-4.331804519804685,1.1192342503170938,-0.366685533696251
1.844471000458346,-4.478482448545486,1.1155673949801312,-0.2189818646527976
1.799686175972891,-4.632965242382994,1.1133775763336033,-0.05818328174406193
1.7533565235490611,-4.795721774426145,1.1127957435161628,0.11581512707696207
1.7053993058047996,-4.967071235859214,1.1139538947869325,0.30274853240812866
1.6557285934462074,-5.147043786822464,1.1169813801110138,0.5017605161612906
1.6042581555779827,-5.335171333622099,1.1219989852726266,0.7110800802618775
1.5509064422417618,-5.530189703016594,1.1291097860752455,0.9275725919498942
1.4956045452115958,-5.729645737223366,1.1383855119947444,1.1461590236807508
1.4383080878393621,-5.929440058800882,1.149847102231552,1.3591536712629264
1.3790136872513534,-6.123415270920804,1.1634386389441813,1.555686840697749
1.3177795345421455,-6.303224514493534,1.1789955073511589,1.7215612461309067
1.25474728939721,-6.458837676904623,1.1962111198124679,1.8400672778905744
1.1901589126281638,-6.580011181826552,1.2146117925913735,1.8942339620638757
1.1243588008098981,-6.658654231028971,1.2335541322120123,1.870418361109788
1.0577722584996083,-6.69128467907148,1.2522583158231102,1.7620562134547797
0.9908594117088935,-6.680250162567855,1.269878877957658,1.5716297937728747
0.9240569100832149,-6.632866477459811,1.2855951758953867,1.3095770905579234
0.8577282453086168,-6.558948878315955,1.298690946800966,0.9907807319775627
0.7921387565254573,-6.468135190509355,1.3085987541207416,0.6306468984472074
0.7274574046203637,-6.3681287250707515,1.3149052231052136,0.24244132817528563
0.6637761173696561,-6.264097625085228,1.3173296363869664,-0.16371940888700282
0.6011351411188038,-6.158860935019085,1.3156924422980965,-0.5807157151010511
0.539546531768613,-6.053399869420621,1.309885285147086,-1.0037668334648175
0.4790125330744068,-5.947396562640127,1.2998476168124378,-1.429704423403656
0.4195385674480055,-5.839676511137156,1.285550572578401,-1.8563710992277487
0.36114180233663395,-5.728533244348633,1.2669868615861237,-2.282188576215588
0.30385646989314763,-5.611954927607265,1.244164975823968,-2.705877004422063
0.24773692061707497,-5.487781175061122,1.2171062057797473,-3.1262908041498436
0.19285910886646374,-5.353814254259211,1.185843297738249,-3.5423388520158205
0.13932096632387164,-5.207901772007699,1.1504199092180907,-3.952964264111141
0.08724194860379464,-5.048001463477738,1.1108902665769793,-4.357165927023018
0.03676193396901726,-4.872233784532412,1.067318607306749,-4.754048943297037
-0.011960403876306862,-4.678924604459867,1.0197781178737788,-5.1428943677999905
-0.05874964992090553,-4.46663817355952,0.9683491741957789,-5.523240491492389
-0.10341603165650073,-4.234199497870133,0.9131167692808551,-5.894968938794471
-0.14575802663520207,-3.9807051969021874,0.8541670798929103,-6.258389283158636
-0.18556507860422394,-3.7055228737464967,0.7915831870613239,-6.614315824625278
-0.22262030734168892,-3.4082811615184374,0.7254400288150711,-6.96412938286226
-0.2567031189568733,-3.088856323524063,0.6557987349864485,-7.309814775641732
-0.28759168219211395,-2.7473673675460124,0.5827005872300312,-7.6539597445061105
-0.31506535586757406,-2.3842015577017452,0.50616098978497,-7.999691068760373
-0.3389073714445915,-2.000108525646071,0.4261640790973663,-8.350504468647394
-0.3589084567010522,-1.5964278749851992,0.3426590344108924,-8.709910480851915
-0.3748727354509042,-1.175557055980172,0.2555599296023733,-9.080761083052383
-0.3866283060107059,-0.7418245827357394,0.16475231877184943,-9.464037829891232
-0.3940465518380633,-0.30298945687866313,0.0701119404729371,-9.856794127097912
-0.3970764464068499,0.12744458639515732,-0.028456000798042017,-10.248963961615665
-0.3958020005428983,0.5272770619688212,-0.13094564041419865,-10.619208034475307
-0.3905292299232101,0.8633598189114837,-0.23713772075895173,-10.931503369720968
-0.38189563173409524,1.0935537953409393,-0.3464527544561614,-11.13711112808938
-0.37096009378068584,1.1776131923071844,-0.45782386573705525,-11.188264271200968
-0.359183961857614,1.096329042262714,-0.5697065084490649,-11.062767778305039
-0.34822067143498686,0.865411335690064,-0.6803341862321153,-10.781576883827785
-0.3395665580780862,0.5285186841987874,-0.7881499550703931,-10.399004584138327
-0.33428137123609836,0.1351054223256925,-0.8921400009117764,-9.973816372169521
-0.3329303170128414,-0.2766146596390539,-0.9918781646334716,-9.548135425134777
-0.33569646360923194,-0.6834632650948647,-1.0873595188848193,-9.143966022972934
-0.3425310962601806,-1.0736326471237718,-1.1787991791145487,-8.76896689751172
-0.3532674227314183,-1.4420119249549994,-1.2664888480896659,-8.422944302835157
-0.3676875419809683,-1.786886622211075,-1.3507182911180176,-8.102201835008007
-0.38555640820307907,-2.1080644078539583,-1.4317403094680976,-7.801900258317486
-0.40663705228161867,-2.4059308645281847,-1.5097593120512725,-7.517188523891292
-0.4306963609269005,-2.6810192139064313,-1.5849311972901854,-7.243688776311825
-0.4575065530659648,-2.933841925902395,-1.6573680850533037,-6.977669865542216
-0.4868449723249888,-3.164848381051202,-1.727144783708726,-6.71607980446963
-0.5184934561355008,-3.3744389039844203,-1.7943055817534221,-6.456518390738465
-0.552237845175345,-3.5630001507656357,-1.8588707656608068,-6.197186629708468
-0.5878678466830014,-3.7309444497539985,-1.9208426319578915,-5.936828409504806
-0.6251772911805414,-3.8787446247388377,-1.9802109160529395,-5.674670294737585
-0.6639647374279298,-4.00696044240788,-2.0369576190003156,-5.410361303256318
-0.7040343418520086,-4.116255306452702,-2.091061232032879,-5.143913135097961
-0.7451968949165356,-4.207403227684882,-2.1425003633838586,-4.8756410775029835
-0.7872709271933844,-4.281286936311448,-2.1912567741588886,-4.606106002127804
-0.8300837965564989,-4.338888502849196,-2.2373178341801667,-4.336058155849648
-0.8734726815849908,-4.381274107080124,-2.280678415738663,-4.066383666543708
-0.917285422655792,-4.409574695278745,-2.3213422524041003,-3.798054779202996
-0.9613811696085794,-4.424964230046644,-2.3593228001961304,-3.532084797615102
-1.0056308119090458,-4.4286370945190185,-2.3946436481722815,-3.2694885523533355
-1.049917182854236,-4.421785993106206,-2.427338533695815,-3.0112489803121147
-1.094135042785298,-4.405581423834016,-2.457451023498936,-2.758290121690433
-1.1381908570236383,-4.381153510631171,-2.4850339247158404,-2.5114565524061248
-1.18200239212995,-4.349576701929178,-2.5101484902399016,-2.2714990027263244
-1.2254981591492418,-4.311857584033281,-2.532863480267165,-2.03906568783292
-1.2686167349895745,-4.268925837457047,-2.5532541371454944,-1.8146987060003616
-1.3113059933641449,-4.221628189522615,-2.571401124205498,-1.5988347499232969
-1.353522275259371,-4.1707250894775,-2.587389471704731,-1.3918093246136498
-1.3952295261541459,-4.1168897513355,-2.6013075649508677,-1.1938636642613634
-1.436398423667501,-4.06070916967926,-2.613246201593481,-1.0051535803916516
-1.4770055153642936,-4.002686707946955,-2.623297737397398,-0.8257595429763448
-1.517032382443763,-3.943245879663277,-2.631555332827161,-0.6556973833101353
-1.5564648412403959,-3.8827349831617175,-2.6381123066602625,-0.49492910200161305
-1.595292191072013,-3.8214323027930868,-2.6430615976802785,-0.3433733587253173
-1.6335065140999439,-3.7595516487013185,-2.6464953312675314,-0.20091530596549254
-1.671102030586957,-3.6972480684208673,-2.6485044843271863,-0.06741550261778839
-1.7080745112711657,-3.634623623343088,-2.649178639353364,0.05728229710588481
-1.7444207475045965,-3.571733178895717,-2.648605816382305,0.17334463866486927
-1.7801380792935537,-3.508590206991711,-2.6468723699956564,0.2809432725383008
-1.8152239813634707,-3.445172641008801,-2.6440629372702733,0.38025157313370744
-1.8496757077735588,-3.3814288551557463,-2.6402604215389363,0.4714425560107796
-1.8834899963251164,-3.3172838590147826,-2.6355459959788283,0.5546885586177082
-1.9166628349152641,-3.252645801218686,-2.629999110392651,0.6301626220820549
-1.949189292927451,-3.187412860125771,-2.6236974841718306,0.6980415683384846
-1.9810634215287086,-3.1214805606270053,-2.6167170684884455,0.7585107009268264
-2.0122782271349786,-3.0547494925946967,-2.6091319614791773,0.8117699639914474
-2.0428257220609254,-2.987133318239337,-2.601014261839263,0.8580412711796619
-2.0726970552433186,-2.9185668473098385,-2.5924338491274663,0.8975765694901389
-2.101882723716417,-2.849013841015964,-2.583458083432565,0.9306660464428891
-2.1303728621265763,-2.778474094730785,-2.574151422968136,0.9576457455470319
-2.1581576030738843,-2.706989268606089,-2.5645749655126657,0.9789037563783554
-2.1852274957599453,-2.634646909302485,-2.554785927948882,0.9948841264658259
-2.2115739648529704,-2.5615821569034023,-2.5448370866842236,1.0060877325950985
-2.2371897864220043,-2.487976770020703,-2.5347762093582724,1.013069563890393
-2.262069554122211,-2.4140553232478488,-2.5246455137193684,1.0164321985068983
-2.2862101073546897,-2.340078708360401,-2.5144811917342995,1.016815661608932
-2.309610894438294,-2.2663353603696677,-2.5043130351182104,1.0148842715594586
-2.3322742480419905,-2.193130879626008,-2.4941641924026157,1.0113114394234506
-2.3542055568382505,-2.120776884331309,-2.484051078008381,1.0067636168999579
-2.3754133256815635,-2.049579974444852,-2.4739834418393816,1.0018846483388737
-2.395909125426012,-1.9798316140337828,-2.4639645953559928,0.9972816691294176
-2.4157074415663495,-1.9117995661590381,-2.4539917786646988,0.9935134376012733
-2.43482543722794,-1.8457212818869766,-2.444056644288686,0.9910816482865055
-2.45328265004681,-1.7817993985837235,-2.4341458278058212,0.9904254170022477
-2.471100644032647,-1.7201992824146979,-2.4242415736357987,0.991918810553913
-2.488302636856794,-1.6610483828168048,-2.4143223855302596,0.9958710544194461
-2.504913120684962,-1.6044370637498213,-2.4043636749860653,1.0025289061965688
-2.5209574913224606,-1.5504205351444111,-2.3943383859240996,1.0120806266717737
-2.536461696673905,-1.4990215164102765,-2.384217579657382,1.0246609967719504
-2.5514519118380075,-1.4502333064239201,-2.3739709696896627,1.0403568943570243
-2.5659542449022466,-1.4040229955264938,-2.3635674007460925,1.05921303709029
-2.5799944748575117,-1.3603346219113615,-2.3529752703751896,1.0812375977923265
-2.5935978210766253,-1.3190921383219283,-2.3421628943972665,1.10640749356718
-2.6067887424598446,-1.2802021098557237,-2.331098819461595,1.1346732317966368
-2.619590763558402,-1.2435561075184591,-2.3197520871436286,1.1659632614164972
-2.6320263246335864,-1.2090327947285775,-2.3080924545294637,1.2001878263747294
-2.6441166525808724,-1.1764997262381698,-2.2960905762657164,1.2372423513328301
-2.6558816498432543,-1.145814892518866,-2.283718152752388,1.2770104099120159
-2.667339798768443,-1.1168280493363643,-2.270948048653268,1.3193663357545022
-2.678508079261807,-1.0893818736861276,-2.2577543852957227,1.3641775388799962
-2.689401897998668,-1.0633129849508889,-2.2441126099069226,1.4113065864620538
-2.700035027848177,-1.0384528652835847,-2.229999544042302,1.460613100049363
-2.7104195565010127,-1.0146287067989241,-2.2153934130418085,1.5119555118825483
-2.720565843569002,-0.9916642059574629,-2.200273857922983,1.5651927124767877
-2.7304824856285763,-0.9693803181747158,-2.1846219307982153,1.6201856109799386
-2.7401762888103236,-0.9475959786861589,-2.168420074688416,1.6767986197044407
-2.7496522485971853,-0.9261287894448058,-2.151652088491372,1.734901065234518
-2.7589135364916335,-0.9047956666261512,-2.134303077839027,1.794368521047197
-2.767961493157895,-0.8834134393799582,-2.1163593926285547,1.855084050935365
-2.7767956275516945,-0.8617993879222926,-2.097808552119201,1.9169393488235025
-2.7854136214309175,-0.8397717079342104,-2.078639158630966,1.9798357588242266
-2.7938113385102596,-0.8171498884652327,-2.0588408010427237,2.043685159467755
-2.801982837394912,-0.793754991988048,-2.038403949448046,2.108410697701815
-2.809920387314792,-0.769409827706925,-2.017319842471028,2.1739473611684845
-2.8176144855918617,-0.7439390124313542,-1.9955803688593432,2.2402423810171723
-2.825053875716175,-0.7171689170123343,-1.9731779450491715,2.30725546168322
-2.8322255648862984,-0.6889275002293292,-1.9501053904323393,2.3749588382326157
-2.8391148398885915,-0.6590440358663595,-1.926355802050013,2.443337165669899
-2.845705280247255,-0.6273487423269917,-1.9019224303933142,2.512387247720041
-2.851978767670525,-0.5936723273694096,-1.8767985579161137,2.5821176147999023
-2.857915490944219,-0.5578454633170632,-1.8509773817681148,2.652547962053231
-2.8634939455773893,-0.5196982104024389,-1.8244519021475825,2.7237084583823834
-2.868690927681414,-0.4790594077711919,-1.7972148175637586,2.7956389363917435
-2.8734815217591256,-0.43575605319522964,-1.7692584281998411,2.8683879711428215
-2.8778390822910778,-0.3896126938311853,-1.740574548488413,2.9420118527314556
-2.8817352092293897,-0.34045085154695676,-1.7111544299610983,3.0165734540805635
-2.8851397177448592,-0.28808850755923715,-1.6809886954202926,3.092140991155203
-2.888020602820452,-0.2323396725066691,-1.6500672855087406,3.168786668208651
-2.8903439995455185,-0.1730140697352952,-1.618379418826654,3.2465851958120906
-2.8920741402428716,-0.10991696157667491,-1.5859135668685331,3.3256121644541734
-2.8931733098586383,-0.04284915080004448,-1.5526574452239914,3.4059422515666493
-2.8936018013666387,0.028392807779728663,-1.518598022708325,3.4876472350917447
-2.8933178732888414,0.10401614740690888,-1.4837215503574075,3.5707937823279443
-2.8922777118147724,0.1842311396835336,-1.448013612534128,3.6554409789782096
-2.890435400417937,0.269250010102915,-1.411459202744346,3.7416375603325105
-2.887742900316908,0.3592854706368016,-1.374042827141021,3.829418804664862
-2.88415004561054,0.4545488185618812,-1.3357486390943725,3.9188030486157017
-2.879604557424921,0.5552475491528073,-1.2965606086082155,4.009787786060103
-2.874052081933393,0.6615824299971917,-1.2564627307476146,4.10234531632976
-2.867436257633421,0.7737439872483828,-1.215439277584317,4.196417915360268
-2.859698817760937,0.8919083599992828,-1.1734750984307143,4.2919125151558255
-2.850779734160944,1.0162324891192944,-1.1305559732791561,4.388694893726233
-2.8406174092697514,1.146848622395904,-1.0866690243418937,4.486583400159208
-2.8291489230457922,1.283858139698832,-1.0418031903403016,4.585342268424268
-2.816310341648804,1.4273247310424098,-0.9959497676560589,4.684674609275853
-2.80203709433838,1.5772669974654603,-0.9491030215633004,4.784215212193534
-2.7862644243637256,1.7336505896651706,-0.9012608694413651,4.8835233379490255
-2.7689279184670736,1.8963800516239988,-0.8524256360618748,4.982075735482216
-2.749964117950834,2.0652905943137028,-0.8026048787070527,5.079260171499999
-2.7293112120076968,2.2401400848933224,-0.7518122769920527,5.174369813446097
-2.7069098111587637,2.4206015950992175,-0.7000685788575917,5.2665988507179575
-2.6827037952077717,2.6062569027283375,-0.6474025903504121,5.355039768530148
-2.656641226180488,2.7965913749900997,-0.5938521926651107,5.4386826962561505
-2.628675312430587,2.990990674194505,-0.5394653657025492,5.516417230232496
-2.598765405688642,3.18873970733403,-0.48430119340022426,5.5870370741705955
-2.566878008615302,3.3890241860447574,-0.4284308226585183,5.649247745858428
-2.532987766754854,3.5909350701846505,-0.371938345199934,5.701677468877569
-2.4970784160530077,3.79347604003985,-0.3149215705111583,5.742891210923698
-2.459143655652609,3.995573988594936,-0.2574926584019213,5.771407661147009
-2.41918791576666,4.196092362738922,-0.19977858179045122,5.785718779069934
-2.3772269921392706,4.393847032704242,-0.14192139399975187,5.784311422308234
-2.333288521812228,4.587624257269623,-0.08407827977666953,5.765690494441805
-2.2874122792395317,4.776200261576704,-0.026421374832251474,5.7284030669233434
-2.2396502766237645,4.9583619710971085,0.03086265583698196,5.6710630265663715
-2.1900666569127933,5.132928553078998,0.08757328610264567,5.5923759716478605
-2.1387373713820033,5.298773592524829,0.14349704581912429,5.491164292280095
-2.085749635456755,5.454847941461088,0.19840868874192524,5.366392570502643
-2.0312011560421444,5.600203478984538,0.25207261444695167,5.217193552342037
-1.975199121252299,5.734018145253719,0.30424454997037204,5.042894901748384
-1.9178589397997619,5.85562260423612,0.3546734989878559,4.8430466779433035
-1.8593027137574007,5.9645286992851005,0.4031039657672889,4.6174489444693
-1.7996574267645498,6.060459472432339,0.4492784552119819,4.366178129341782
-1.7390528320402263,6.143379945877108,0.4929402365053997,4.089609785536692
-1.6776190325814553,6.213527189796754,0.5338363343607666,3.788434397384545
-1.6154837606834878,6.271437557000088,0.571720678334612,3.4636620547032826
-1.552769385113487,6.317968527137647,0.6063572988816449,3.1166114211827276
-1.4895896998421105,6.354312557668306,0.6375234130934722,2.7488786845011974
-1.4260465742654276,6.3820008368197865,0.6650121999384841,2.362283225926642
-1.3622265658972297,6.402895938787997,0.6886350321977506,1.958788550854544
-1.2981976065093497,6.419174028216771,0.708222917706296,1.5403993288387516
-1.234005866227182,6.433299247433466,0.7236269109946835,1.1090377502910465
-1.1696728737528472,6.447994944495274,0.7347172884975939,0.666404246878237
-1.1051929243078944,6.466218142225591,0.7413813309663763,0.21382839526556496
-1.0405307428856385,6.491144866642148,0.743519614919032,-0.24788484339934913
-0.975619294219217,6.526174561882353,0.7410407664850385,-0.7186105854461878
-0.9103575486003934,6.574961901941561,0.7338546606305766,-1.1990616867173256
-0.8446079295809779,6.641484038042,0.7218640437634033,-1.6909532589069731
-0.7781930892005579,6.73015073372021,0.7049545111743336,-2.197182584486223
-0.7108915818633558,6.8459633951170344,0.6829826853294714,-2.7220349013796943
-0.6424319479121854,6.994724601763825,0.6557623363156744,-3.2714218901715
-0.5724847018945471,7.183286428074421,0.6230481174139594,-3.8531418352949967
-0.5006518376138029,7.419788129860894,0.5845166990610094,-4.477096625815359
-0.426453956315194,7.713732564875978,0.5397457328028559,-5.155256388265775
-0.3493166306664342,8.075489891436483,0.48819316892019815,-5.90079310558488
-0.2685617317520694,8.514174406437176,0.42918523786434937,-6.7248989750852255
-0.18341998768769763,9.031390248076942,0.3619362481134971,-7.6277684727507165
