th1 (rad),w1 (rad/s),th2 (rad),w2 (rad/s),a1 (rad/s^2),a2 (rad/s^2)
2.6556494907763275,-1.510154896683099,2.259211208680698,0.8035412406385903,-2.8148435988033302,-4.090951361827853
2.6405479418094964,-1.5383033326711324,2.267246621087084,0.7626317270203118,-3.0276444712714174,-3.8356933947547316
2.625164908482785,-1.5685797773838466,2.274872938357287,0.7242747930727644,-3.252095121575706,-3.5706953850394
2.6094791107089463,-1.6011007285996037,2.282115686288015,0.6885678392223704,-3.4873093853536306,-3.297106759691983
2.5934681034229503,-1.63597382245314,2.2890013646802387,0.6555967716254506,-3.7322956557270297,-3.016300968002867
2.577108365198419,-1.6732967790104103,2.295557332396493,0.6254337619454219,-3.9859399338469426,-2.729904159992301
2.5603753974083148,-1.7131561783488798,2.3018116700159474,0.5981347203454989,-4.246984996758615,-2.439829791529497
2.543243835624826,-1.755626028316466,2.3077930172194026,0.5737364224302038,-4.514006004715255,-2.1483186408903294
2.5256875753416614,-1.8007660883636185,2.3135303814437047,0.5522532360213005,-4.7853833199708715,-1.8579830369930117
2.5076799144580253,-1.8486199215633272,2.3190529138039175,0.5336734056513703,-5.059273883974567,-1.5718532235770641
2.489193715242392,-1.8992126604030728,2.324389647860431,0.5179548734155996,-5.333583209884073,-1.293422701271085
2.4702015886383615,-1.9525484925019134,2.329569196594587,0.5050206464028888,-5.605940885720119,-1.026688110921461
2.4506761037133424,-2.0086079013591145,2.334619403058616,0.4947537652936742,-5.8736834137403555,-0.7761778009599304
2.430590024699751,-2.067344735496518,2.3395669407115527,0.4869919872840749,-6.133849151317516,-0.5469617807917452
2.409916577344786,-2.1286832270096934,2.3444368605843935,0.48152236947615745,-6.38319092307296,-0.344634514711719
2.3886297450746894,-2.192515136240423,2.349252084279155,0.4780760243290403,-6.6182123246395825,-0.1752612791057757
2.366704593712285,-2.258697259486819,2.3540328445224454,0.4763234115379825,-6.835233544506526,-0.04527901860450734
2.344117621117417,-2.3270495949318843,2.3587960786378255,0.4758706213519375,-7.030491356053889,0.03865570890097853
2.320847125168098,-2.3973545084924233,2.363554784851345,0.4762571784409473,-7.200275460007124,0.06987554111611236
2.296873580083174,-2.4693572630924945,2.3683173566357545,0.4769559338521084,-7.341099397018214,0.041965945229454474
2.272180007452249,-2.5427682570626766,2.373086915974276,0.47737559330440293,-7.449898877699222,-0.05092613150505332
2.2467523248816224,-2.6172672458396686,2.3778606719073196,0.4768663319893524,-7.524244081231319,-0.21375769634475458
2.2205796524232255,-2.6925096866519818,2.382629335227213,0.4747287550259049,-7.562546236239905,-0.4502576238794923
2.1936545555567055,-2.768135149014381,2.3873766227774724,0.47022617878711,-7.564234040825228,-0.7626326645297696
2.1659732040665616,-2.8437774894226333,2.3920788845653433,0.46259985214181226,-7.5298738068911355,-1.151349975994814
2.137535429172335,-2.9190762274915447,2.3967048830867617,0.4510863523818641,-7.46120995790289,-1.6150310258159346
2.1083446668974197,-2.9936883270705734,2.40121574661058,0.4349360421237048,-7.361110177876281,-2.1504809385369503
2.078407783626714,-3.0672994288493363,2.4055651070318174,0.41343123273833526,-7.233411361167589,-2.7528603830600282
2.0477347893382207,-3.139633542461012,2.4096994193592005,0.38590262890773497,-7.082676485212563,-3.4159868278430423
2.0163384539136104,-3.2104603073131375,2.413558445648278,0.35174276062930454,-6.913885665491993,-4.132732675329919
1.984233850840479,-3.2795991639680575,2.417075873254571,0.31041543387600534,-6.732093949217801,-4.895473790295832
1.9514378592007986,-3.3469201034602354,2.420180027593331,0.261460695973047,-6.542091768831053,-5.696536371217667
1.9179686581661963,-3.412341021148546,2.4227946345530613,0.20449533226087033,-6.34810090035202,-6.52859384705309
1.883845247954711,-3.475822030152066,2.42483958787567,0.13920939379033942,-6.15353042942804,-7.3849769643305185
1.8490870276531903,-3.5373573344463467,2.426231681813573,0.06535962414703424,-5.960805981165308,-8.259876172941532
1.8137134543087268,-3.596965394258,2.4268852780550434,-0.017239137582381076,-5.771274029123761,-9.148431978974495
1.7777438003661468,-3.6546781345492376,2.4267128866792196,-0.10872345737212602,-5.585173711438297,-10.046722872543324
1.7411970190206545,-3.7105298716636206,2.425625652105498,-0.20919068609755925,-5.4016625359226325,-10.951669854831016
1.7040917203040182,-3.764546497022847,2.4235337452445225,-0.3187073846458694,-5.218879897384485,-11.860881053766565
1.6664462553337898,-3.816735295996692,2.4203466713980637,-0.43731619518353504,-5.0340329048010135,-12.772460155195505
1.628278902373823,-3.867075625044702,2.4159735094462285,-0.5650407967354901,-4.84349165259016,-13.684799723131073
1.589608146123376,-3.9155105415706037,2.4103231014788737,-0.7018887939668008,-4.642884740440326,-14.596376378188921
1.55045304070767,-3.961939388975007,2.4033042135392058,-0.8478525577486901,-4.427189701555219,-15.505560443208509
1.51083364681792,-4.006211285990559,2.3948256879617187,-1.0029081621807752,-4.190816470041636,-16.41044884871034
1.4707715339580143,-4.048119450690975,2.384796606339911,-1.1670126506678786,-3.9276848057411553,-17.308727220272804
1.4302903394511046,-4.087396298748387,2.373126479833232,-1.3400999228706068,-3.631298605680772,-18.19756523262526
1.3894163764636207,-4.123709284805194,2.359725480604526,-1.5220755751968593,-3.2948212963884096,-19.073548392018605
1.3481792836155688,-4.1566574977690784,2.3445047248525572,-1.7128110591170453,-2.9111571053689764,-19.93264916959436
1.306612708637878,-4.1857690688227684,2.3273766142613868,-1.912137550812989,-2.4730430429459744,-20.770240583625633
1.2647550179496503,-4.210499499252228,2.3082552387532567,-2.1198399566492454,-1.973155956072281,-21.581155649133237
1.222650022957128,-4.230231058812951,2.2870568391867643,-2.335651513140578,-1.4042380830257466,-22.359796335144196
1.1803477123689985,-4.244273439643209,2.2637003240553586,-2.55924947649202,-0.7592431575489148,-23.10029558296048
1.1379049779725665,-4.251865871218698,2.2381078292904384,-2.790252432321625,-0.03150328821618819,-23.796735373610908
1.0953863192603794,-4.252180904100859,2.2102053049672223,-3.028219786057734,0.7850854121524392,-24.4434226653124
1.0528645102193708,-4.244330049979335,2.179923107106645,-3.272654012710858,1.6958631059446085,-25.03522318182447
1.0104212097195775,-4.227371418919889,2.1471965669795363,-3.5230062445291024,2.705199994282899,-25.56795051223846
0.9681474955303786,-4.20031941897706,2.1119665045342453,-3.778685749651487,3.816294160082566,-26.03880484474268
0.926144301340608,-4.162156477376234,2.0741796470377305,-4.039073798098913,5.03098693083558,-26.44685203576855
0.8845227365668457,-4.111846608067879,2.0337889090567414,-4.303542318456599,6.34961146939403,-26.793529804192364
0.8434042704861668,-4.048350493373938,1.9907534858721754,-4.571477616498523,7.7708914490004695,-27.083163847577445
0.8029207655524274,-3.9706415788839338,1.9450387097071902,-4.842309254974298,9.291905984913724,-27.323472744649067
0.763214349763588,-3.8777225190347964,1.896615617157447,-5.115543982420789,10.908133553429645,-27.526036549748675
0.72443712457324,-3.7686411835005,1.8454601773332393,-5.390804347918276,12.613580195102662,-27.706699417450228
0.6867507127382351,-3.6425053815494732,1.7915521338540565,-5.667871342092778,14.400984127734054,-27.885869882405004
0.6503256589227403,-3.4984955402721325,1.7348734204331286,-5.946730040916828,16.262067323109907,-28.088670313212518
0.615340703520019,-3.335874867041033,1.6754061200239603,-6.227616744048953,18.187770259489806,-28.34486333041206
0.5819819548496087,-3.1539971644461353,1.6131299525834708,-6.511065377353074,20.168351421350504,-28.68843627226819
0.5504419832051474,-2.95231365023263,1.5480192988099402,-6.797949740075755,22.193144950223903,-29.156635015640184
0.5209188467028211,-2.730382200730391,1.4800398014091827,-7.0895160902321575,24.249625034293494,-29.788070854369934
0.49361502469551716,-2.487885950387456,1.409144640506861,-7.387396798775857,26.32118490352797,-30.619220226074393
0.4687361651916426,-2.2246741013521767,1.3352706725191026,-7.693589001036601,28.382639017413982,-31.678103322536256
0.4464894241781208,-1.940847711178037,1.2583347825087365,-8.010370034261964,30.391811731434476,-32.97303012187273
0.4270809470663405,-1.636929593863692,1.1782310821661168,-8.340100335480692,32.27460279699044,-34.472901761802014
0.4107116511277036,-1.3141835658937877,1.09483007881131,-8.684829353098712,33.89968871370209,-36.073692246755876
0.3975698154687657,-0.9751866787567668,1.0079817852803228,-9.045566275566271,35.03822985426729,-37.54427158033079
0.387817948681198,-0.6248043802140939,0.91752612252466,-9.421008991369579,35.30622919244848,-38.44710812772272
0.38156990487905706,-0.2717420882896091,0.8233160326109642,-9.805480072646807,34.099697487135394,-38.045279031241925
0.37885248399616095,0.06925488658174483,0.7252612318844961,-10.185932862959227,30.56948216949148,-35.25586814918198
0.3795450328619784,0.37494970827665963,0.6234019032549039,-10.538491544451047,23.753482403003144,-28.80590061106885
0.383294529944745,0.6124845323066911,0.5180169878103934,-10.826550550561736,13.037005686651328,-17.821810464922773
0.3894193752678119,0.7428545891732043,0.40975148230477604,-11.004768655210963,-1.064029812425489,-2.851546935722947
0.3968479211595439,0.7322142910489494,0.2997037957526664,-11.033284124568192,-16.400534433484136,13.481885515043874
0.4041700640700334,0.568208946714108,0.1893709545069845,-10.898465269417754,-29.93020861820648,27.466444682529858
0.4098521535371745,0.26890686053204327,0.08038630181280695,-10.623800822592456,-39.47194426206742,36.585415114011234
0.41254122214249495,-0.1258125820886309,-0.025851706413117598,-10.257946671452343,-44.70516067179866,40.737655182125344
0.41128309632160864,-0.5728641888066175,-0.12843117312764102,-9.85057011963109,-46.61239710514287,41.410517169447054
0.4055544544335425,-1.0389881598580462,-0.22693687432395193,-9.436464947936619,-46.4379908344161,40.297990057072504
0.39516457283496204,-1.503368068202207,-0.3213015238033181,-9.033485047365893,-45.127015567401884,38.6108205016137
0.38013089215293994,-1.9546382238762259,-0.4116363742769771,-8.647376842349756,-43.24875690392443,37.02589860881867
0.3605845099141777,-2.3871257929154703,-0.49811014270047466,-8.277117856261569,-41.10225260200446,35.85300586695194
0.336713251985023,-2.7981483189355147,-0.5808813212630903,-7.91858779759205,-38.82998632415329,35.193930292997436
0.3087317687956678,-3.1864481821770476,-0.6600671992390108,-7.566648494662076,-36.49498320078253,35.04434134499635
0.27686728697389734,-3.5513980141848727,-0.7357336841856316,-7.216205081212112,-34.12509930184868,35.34967823862599
0.24135330683204861,-3.8926490072033593,-0.8078957349977527,-6.8627082988258525,-31.73637188128559,36.033700742574844
0.202426816760015,-4.210012726016215,-0.8765228179860112,-6.502371291400104,-29.344461418375854,37.01275658890549
0.16032668949985285,-4.503457340199974,-0.9415465309000122,-6.132243725511049,-26.969585605555874,38.20314437554609
0.11529211609785311,-4.7731531962555325,-1.0028689681551226,-5.750212281755588,-24.637919318788544,39.52533711062281
0.06756058413529778,-5.019532389443418,-1.0603710909726785,-5.35495891064936,-22.381076555855017,40.90683271864746
0.0173652602408636,-5.243343155001968,-1.113920680079172,-4.9458905834628855,-20.234584352117334,42.28435719527351
-0.03506817130915608,-5.445688998523141,-1.163379585913801,-4.52304701151015,-18.235898937323324,43.60562672741335
-0.08952506129438749,-5.628047987896374,-1.2086100560289024,-4.086990744236017,-16.422321133666625,44.83063278018293
-0.14580554117335123,-5.79227119923304,-1.2494799634712626,-3.6386844164341876,-14.829044204771925,45.932317450960376
-0.20372825316568163,-5.94056164128076,-1.2858668076356043,-3.179361241924584,-13.487462923520631,46.89648025832588
-0.2631338695784892,-6.075436270515966,-1.3176604200548503,-2.7103964393413253,-12.423761651006426,47.72075155882299
-0.3238882322836489,-6.19967388702603,-1.3447643844482635,-2.2331889237530955,-11.657665881835774,48.41243946193547
-0.3858849711539092,-6.316250545844388,-1.3670962736857946,-1.7490645291337408,-11.201070357355357,48.98496271871176
-0.44904747661235306,-6.428261249417941,-1.384586918977132,-1.2592149019466232,-11.056024552768985,49.45237128844994
-0.5133300891065324,-6.538821494945632,-1.3971790679965983,-0.7646911890621237,-11.21122921922507,49.82107150342717
-0.5787183040559888,-6.650933787137882,-1.4048259798872196,-0.266480474027852,-11.63573886863499,50.07726341839838
-0.6452276419273676,-6.767291175824232,-1.407490784627498,0.23429216015613175,-12.26797920050559,50.16778499438603
-0.7129005536856099,-6.889970967829288,-1.4051478630259366,0.7359700100999921,-12.997666487588972,49.97133914731695
-0.7818002633639027,-7.019947632705177,-1.3977881629249367,1.2356834015731615,-13.638520815314429,49.25757406020054
-0.8519997396909545,-7.1563328408583216,-1.385431328909205,1.728259142175167,-13.892960922720556,47.636298158118244
-0.9235630680995378,-7.295262450085527,-1.3681487374874535,2.2046221237563493,-13.320968003104893,44.5149172709731
-0.9965156926003931,-7.428472130116576,-1.34610251624989,2.6497712964660805,-11.350489448324925,39.11803400474162
-1.0708004139015588,-7.541977024599825,-1.3196048032852292,3.0409516365134968,-7.403194243975241,30.674461684337867
-1.146220184147557,-7.616008967039578,-1.2891952869200942,3.3476962533568755,-1.2109619478182443,18.87744515508485
-1.2223802738179528,-7.62811858651776,-1.2557183243865255,3.5364707049077237,6.747127903798449,4.513710475795176
-1.2986614596831303,-7.560647307479776,-1.2203536173374483,3.5816078096656754,15.071878823467983,-10.293095204274994
-1.3742679327579281,-7.4099285192450965,-1.1845375392407915,3.4786768576229252,21.97747471625347,-22.86025275169825
-1.448367217950379,-7.190153772082562,-1.1497507706645622,3.2500743301059427,26.274919324159054,-31.377567843247707
-1.5202687556712047,-6.927404578840972,-1.1172500273635029,2.9362986516734657,27.878054115131825,-35.65640568899617
-1.5895428014596145,-6.648624037689654,-1.0878870408467682,2.579734594783504,27.471890712119873,-36.664489665082215
-1.656029041836511,-6.373905130568455,-1.0620896948989331,2.213089698132682,25.905493807140154,-35.6458119428151
-1.7197680931421955,-6.1148501924970535,-1.0399587979176064,1.8566315787045309,23.837335616627165,-33.59266485495686
-1.780916595067166,-5.876476836330782,-1.021392482130561,1.5207049301549622,21.669542696647913,-31.134770887711053
-1.8396813634304738,-5.659781409364303,-1.0061854328290114,1.2093572212778516,19.6088948388462,-28.617571588173522
-1.8962791775241168,-5.463692460975841,-0.9940918606162329,0.9231815053961163,17.743001826859775,-26.208168015974902
-1.9509161021338752,-5.286262442707243,-0.9848600455622717,0.6610998252363673,16.09554847802316,-23.974385940552736
-2.0037787265609475,-5.125306957927012,-0.978249047309908,0.42135596583084,14.659324989695488,-21.93320923148315
-2.0550317961402174,-4.978713708030057,-0.9740354876515996,0.2020238735160085,13.414087829627158,-20.077717296528903
-2.104818933220518,-4.844572829733785,-0.9720152489164395,0.0012467005507194873,12.335575008093032,-18.391208917287273
-2.153264661517856,-4.721217079652855,-0.9720027819109324,-0.18266538862215323,11.399752367934566,-16.854250488846635
-2.2004768323143846,-4.60721955597351,-0.9738294357971539,-0.35120789351061954,10.584611520659553,-15.447980359998297
-2.24654902787412,-4.501373440766914,-0.97734151473226,-0.5056876971106026,9.870762813427763,-14.155491684583588
-2.291562762281789,-4.402665812632636,-0.9823983917033661,-0.6472426139564385,9.241466335290138,-12.962260039569218
-2.3355894204081156,-4.310251149279734,-0.9888708178429304,-0.7768652143521306,8.68242446832383,-11.856118266394805
-2.3786919319009128,-4.223426904596496,-0.9966394699864517,-0.8954263970160787,8.181493737036458,-10.827035398492539
-2.420926200946878,-4.141611967226131,-1.0055937339566126,-1.0036967510010042,7.728389242710657,-9.866828106770724
-2.4623423206191393,-4.0643280747990245,-1.0156307014666226,-1.1023650320687115,7.314412713408569,-8.968866548881065
-2.5029856013671297,-3.991183947664939,-1.0266543517873097,-1.1920536975575222,6.932214623083065,-8.127802395284197
-2.5428974408437792,-3.9218618014341082,-1.038574888762885,-1.2733317215103641,6.5755912767813545,-7.339329611220436
-2.5821160588581202,-3.8561058886662947,-1.0513082059779886,-1.3467250176225685,6.2393137249235275,-6.599980161479303
-2.6206771177447834,-3.7937127514170594,-1.0647754561542142,-1.4127248192373616,5.918984034573062,-5.906952913127998
-2.658614245258954,-3.7345229110713287,-1.0789027043465877,-1.4717943483686415,5.610914368957247,-5.257972412334673
-2.6959594743696673,-3.6784137673817563,-1.0936206478302741,-1.5243740724919883,5.312024782134038,-4.651173745025145
-2.732743612043485,-3.625293519560416,-1.108864388555194,-1.5708858099422398,5.01975626602825,-4.085009758323048
-2.768996547239089,-3.5750959569001335,-1.1245732466546166,-1.6117359075254702,4.73199622371528,-3.5581772160496845
-2.8047475068080905,-3.5277759946629805,-1.1406906057298714,-1.647317679685967,4.4470141136853165,-3.069558836375808
-2.8400252667547203,-3.483305853526127,-1.1571637825267311,-1.678013268049725,4.163405490693838,-2.6181785419367465
-2.8748583252899818,-3.441671798619189,-1.1739439152072284,-1.7041950534690926,3.8800430584698478,-2.203167611574276
-2.909275043276174,-3.4028713680344906,-1.1909858657419192,-1.7262267295848355,3.5960336569013345,-1.8237397473444341
-2.9433037569565186,-3.3669110314654773,-1.2082481330377677,-1.74446412705828,3.3106803438586674,-1.4791733586602727
-2.9769728672711735,-3.3338042280268905,-1.2256927743083506,-1.7592558606448827,3.023448912501194,-1.1687996193470016
-3.010310909551442,-3.3035697389018783,-1.2432853329147995,-1.7709438568383526,2.7339383206676473,-0.8919950761211196
-3.043346606940461,-3.2762303556952017,-1.260994771483183,-1.7798638075995639,2.4418546101051164,-0.6481777817979002
-3.076108910497413,-3.2518118095941504,-1.2787934095591786,-1.786345585417543,2.1469879684434217,-0.43680609627569855
-3.1086270285933546,-3.230341929909716,-1.2966568654133541,-1.7907136463803,1.8491926429252525,-0.2573794455041149
-3.1409304478924516,-3.2118500034804636,-1.3145640018771572,-1.7932874408353412,1.5483694574489892,-0.10944045529473434
-3.1730489479272563,-3.1963663089059735,-1.3324968762855105,-1.7943818453882885,1.2444507177108257,0.007422015240143391
-3.205012611016316,-3.1839218017288653,-1.3504406947393934,-1.7943076252358872,0.9373873163504051,0.09356932506648895
-3.236851829033605,-3.174547928565361,-1.3683837709917523,-1.7933719319852224,0.62713787337479,0.14930929684164476
-3.2685973083192588,-3.168276549831613,-1.3863174903116047,-1.791878839016806,0.3136597684611007,0.17489250557741315
-3.300280073817575,-3.165139952147002,-1.4042362787017728,-1.7901299139610318,-0.0030980577959060585,0.17050881176770788
-3.3319314733390453,-3.165170932724961,-1.4221375778413832,-1.7884248258433548,-0.32320063622532746,0.1362843050329524
-3.3635831826662947,-3.168402939087214,-1.4400218260998168,-1.7870619827930252,-0.6467309167135563,0.07227879991068997
-3.395267212057167,-3.17487024825435,-1.457892445927747,-1.7863391947939182,-0.9737921912928872,-0.021515989103934048
-3.4270159145397106,-3.184608170167279,-1.475755837875686,-1.7865543546849576,-1.3045090304900944,-0.1451774717893224
-3.4588619962413834,-3.1976532604721797,-1.4936213814225356,-1.7880061294028509,-1.6390267475852487,-0.2988522819099778
-3.4908385288461052,-3.214043527948032,-1.511501442716564,-1.7909946522219506,-1.977509381617028,-0.48275531932803956
-3.5229789641255858,-3.2338186217642026,-1.5294113892387835,-1.795822205415231,-2.320136165746745,-0.6971675861393818
-3.5553171503432277,-3.25701998342167,-1.5473696112929358,-1.8027938812766249,-2.6670964233314294,-0.9424326482217976
