th1 (rad),w1 (rad/s),th2 (rad),w2 (rad/s),a1 (rad/s^2),a2 (rad/s^2)
2.4546974711314546,-2.416008166265658,5.438637464271754,0.6941408824600519,-5.877369183278772,0.606267463487443
2.4305373894687983,-2.4747818580984458,5.445578873096355,0.7002035570949263,-6.174605403455689,0.3835962470824117
2.405789570887814,-2.5365279121330024,5.452580908667304,0.7040395195657504,-6.453502988277337,0.20216255933778401
2.380424291766484,-2.601062942015776,5.459621303862962,0.7060611451591282,-6.708303988148952,0.07189626084406674
2.3544136623463263,-2.6681459818972653,5.466681915314553,0.7067801077675688,-6.933248490746803,0.0028096064570676356
2.3277322025273537,-2.7374784668047334,5.473749716392229,0.7068082038321395,-7.122876088050678,0.004551918459570456
2.3003574178593063,-2.80870722768524,5.48081779843055,0.7068537230167352,-7.2723625503035105,0.08590855085850178
2.272270345582454,-2.881430853188275,5.4878863356607175,0.7077128085253203,-7.37786907815237,0.2542781142957201
2.243456037050571,-2.955209543969799,5.494963463745971,0.7102555896682775,-7.436876217994315,0.5151708970093156
2.213903941610873,-3.029578306149742,5.502066019642654,0.7154072986383707,-7.44847218838772,0.8717762015426622
2.1836081585493754,-3.104063028033619,5.509220092629038,0.7241250606537973,-7.413566821376406,1.3246454558144654
2.152567528269039,-3.178198696247383,5.516461343235576,0.737371515211942,-7.335007788598372,1.8715308636011958
2.120785541306565,-3.251548774133367,5.523835058387695,0.756086823847954,-7.217584733113044,2.507406555733928
2.0882700535652314,-3.323724621464497,5.531395926626174,0.7811608894052933,-7.067918171014071,3.224682287871702
2.0550328073505866,-3.394403803174638,5.539207535520227,0.8134077122840103,-6.894241948867626,4.013601077414308
2.0210887693188404,-3.463346222663314,5.547341612643066,0.8535437230581534,-6.706098955643682,4.862794450544989
1.9864553070922073,-3.530407212219751,5.555877049873648,0.9021716675636033,-6.513978265198564,5.759954629845022
1.9511512349700098,-3.5955469948717367,5.564898766549284,0.9597712138620536,-6.328927002010924,6.692573846790325
1.9151957650212923,-3.6588362648918458,5.574496478687904,1.0266969523299567,-6.162171649151664,7.648697956711671
1.8786074023723738,-3.7204579813833623,5.584763448211204,1.1031839318970735,-6.024781483428603,8.617644705672989
1.8414028225585402,-3.7807057962176485,5.595795287530175,1.1893603789538034,-5.927401996398055,9.590645599444015
1.8035957645963636,-3.839979816181629,5.607688891319713,1.2852668349482435,-5.880079493392373,10.561383026762247
1.7651959664345473,-3.8987806111155527,5.620541559669195,1.3908806652158658,-5.892190641891777,11.52640944148396
1.7262081603233919,-3.9577025175344707,5.634450366321354,1.5061447596307054,-5.972483656565233,12.48545130113505
1.6866311351480472,-4.017427354100123,5.649511813917661,1.630999272642056,-6.129232052020902,13.441615575790586
1.6464568616070459,-4.0787196746203325,5.6658218066440815,1.7654154283999617,-6.370498276596517,14.401529873689132
1.6056696648608426,-4.1424246573862975,5.683475960928081,1.909430727136853,-6.704503643976329,15.375458035778903
1.5642454182869796,-4.209469693826061,5.702570268199449,2.063185307494642,-7.1401031497123855,16.37744152140634
1.522150721348719,-4.280870725323185,5.7232021212743955,2.2269597227087052,-7.687369137106097,17.42552373404865
1.4793420140954872,-4.357744416694246,5.7454717185014825,2.4012149600491917,-8.358296350465773,18.542120775141946
1.4357645699285446,-4.441327380198904,5.7694838681019744,2.586636167800611,-9.167652550990613,19.75460932711907
1.3913512961265555,-4.53300390570881,5.795350229779981,2.784182261071802,-10.134013223140617,21.09621157540656
1.3460212570694674,-4.634344037940216,5.823192052390699,2.9951443768258676,-11.281034980606373,22.607268310022725
1.2996778166900653,-4.74715438774628,5.853143496158958,3.221217059926095,-12.639037265915148,24.337001680661874
1.2522062728126024,-4.873544760405431,5.885355666758219,3.464587076732714,-14.246968150990758,26.345868363114437
1.2034708252085482,-5.016014441915338,5.920001537525546,3.7280457603638584,-16.154807681487835,28.7085645763065
1.153310680789395,-5.177562518730217,5.957281995129184,4.015131406126923,-18.426361864512998,31.517597149800064
1.1015350556020926,-5.361826137375347,5.997433309190454,4.330307377624924,-21.142101080144855,34.886909904919804
1.0479167942283392,-5.573247148176796,6.040736382966703,4.6791764766741215,-24.400904465229797,38.95393991433205
0.9921843227465712,-5.817256192829094,6.087528147733444,5.068715875817442,-28.317576320185285,43.87567826121829
0.9340117608182803,-6.100431956030946,6.1382153064916185,5.5074726584296245,-33.00810474229432,49.807445972298424
0.8730074412579708,-6.430513003453889,6.193290033075915,6.0055471181526086,-38.54291979279291,56.83667481492643
0.808702311223432,-6.8159422013818185,6.253345504257441,6.573913866301873,-44.82169964305833,64.80652453581672
0.7405428892096138,-7.264159197812402,6.319084642920459,7.2219791116600405,-51.269440141560885,72.88862770242567
0.6679012972314897,-7.776853599228011,6.3913044340370595,7.9508653886842975,-56.18255667556509,78.66464106122639
0.5901327612392095,-8.338679165983661,6.4708130879239025,8.737511799296561,-55.65226798200997,76.61469508470762
0.5067459695793729,-8.895201845803761,6.558188205916868,9.503658750143638,-43.0811373609718,57.44117943790748
0.41779395112133527,-9.326013219413479,6.653224793418304,10.078070544522712,-13.377537843068684,13.96993839456014
0.32453381892720046,-9.459788597844167,6.754005498863531,10.217769928468313,25.7247416272662,-42.939608100419434
0.2299359329487588,-9.202541181571505,6.856183198148214,9.788373847464118,53.53411818186977,-84.21401613876357
0.13791052113304375,-8.667199999752807,6.954066936622855,8.946233686076482,60.47934031500786,-96.35161224119568
0.05123852113551568,-8.062406596602727,7.04352927348362,7.982717563664526,54.59232061786475,-90.51306930684326
-0.029385544830511603,-7.51648339042408,7.123356449120266,7.077586870596093,45.08687511677697,-79.55364691822516
-0.1045503787347524,-7.06561463925631,7.194132317826226,6.282050401413842,36.0186693761233,-69.15341346876983
-0.1752065251273155,-6.705427945495077,7.256952821840365,5.590516266726143,28.402655282838676,-60.75493860044008
-0.2422608045822663,-6.421401392666691,7.312857984507626,4.982966880721743,22.216548495580355,-54.34773209248828
-0.3064748185089332,-6.199235907710887,7.362687653314843,4.43948955979686,17.19876206984938,-49.57751699422624
-0.3684671775860421,-6.027248287012393,7.407082548912812,3.943714389854598,13.08753813785928,-46.07902882822907
-0.428739660456166,-5.8963729056337995,7.446519692811358,3.482924101572307,9.67481103227218,-43.551170786503654
-0.487703389512504,-5.799624795311078,7.481348933827081,3.047412393707271,6.80759511730147,-41.75902359241951
-0.5456996374656148,-5.7315488441380635,7.511823057764154,2.629822157783076,4.377677899703905,-40.519536109747335
-0.6030151259069955,-5.687772065141025,7.5381212793419845,2.2246267966856026,2.3108800544464168,-39.68679478242596
-0.6598928465584057,-5.664663264596561,7.56036754730884,1.827758848861343,0.5583042733912811,-39.14052255378627
-0.7165394792043713,-5.659080221862648,7.578645135797454,1.4363536233234804,-0.9104440814744292,-38.7780680367167
-0.7731302814229978,-5.668184662677392,7.593008672030689,1.0485729429563135,-2.1126029315412445,-38.50937712517197
-0.8298121280497717,-5.689310691992804,7.603494401460252,0.6634791717045938,-3.056678901615273,-38.25437253542152
-0.8867052349696997,-5.719877481008957,7.610129193177298,0.28093544635037865,-3.746301365516811,-37.94222441526045
-0.9439040097797893,-5.757340494664126,7.612938547640802,-0.09848679780222586,-4.183670850275166,-37.51202062722957
-1.0014774147264305,-5.799177203166877,7.611953679662779,-0.47360700407452155,-4.372602396642337,-36.91432005747513
-1.0594691867580992,-5.8429032271333,7.607217609622034,-0.8427502046492729,-4.321039245853187,-36.113027435530995
-1.1178982190294322,-5.886113619591832,7.5987901075755415,-1.203880479004583,-4.042846817720885,-35.0870115258996
-1.1767593552253506,-5.9265420877690405,7.586751302785496,-1.5547505942635789,-3.558705912073103,-33.83094401265714
-1.236024776103041,-5.9621291468897715,7.57120379684286,-1.8930600343901502,-2.8960073878165287,-32.35498544530643
-1.2956460675719388,-5.991089220767937,7.552273196498958,-2.2166098888432146,-2.087787404995978,-30.683174111153196
-1.3555569597796182,-6.011967094817897,7.530107097610526,-2.5234416299547466,-1.1708934346875954,-28.850636462659036
-1.4156766307277973,-6.023676029164773,7.504872681310979,-2.811947994581337,-0.1836911445550048,-26.899968426713727
-1.475913391019445,-6.025512940610323,7.476753201365166,-3.080947678848474,0.8363241689939834,-24.877277300891848
-1.5361685204255484,-6.017149698920383,7.445943724576681,-3.3297204518573924,1.8546726126172226,-22.828395260657317
-1.5963400174147522,-5.9986029727942105,7.412646520058107,-3.5580044044639654,2.8415412987260846,-20.795687256487106
-1.6563260471426944,-5.970187559806949,7.377066476013468,-3.765961277028836,3.7728148808072657,-18.81571799524843
-1.7160279227407638,-5.932459410998876,7.3394068632431795,-3.9541184569813206,4.630477939212599,-16.917866082245627
-1.7753525168507525,-5.88615463160675,7.299865678673366,-4.1232971178037765,5.402474703558648,-15.123822154442864
-1.83421406316682,-5.832129884571164,7.2586327074953285,-4.274535339348205,6.082164280482734,-13.447807151449236
-1.8925353620125316,-5.771308241766337,7.215887354101847,-4.4090134108626975,6.667523899567672,-11.897301765157245
-1.950248444430195,-5.70463300277066,7.17179721999322,-4.52798642851427,7.160238650679235,-10.474079001845574
-2.0072947744579017,-5.633030616263868,7.126517355708077,-4.632727218532725,7.564786367397085,-9.175362465132235
-2.0636250806205405,-5.557382752589898,7.08019008352275,-4.724480843184048,7.887591759608334,-7.994977236245332
-2.1191989081464393,-5.478506834993814,7.032945275090909,-4.804430615546501,8.136292132758376,-6.924405727158314
-2.1739839764963773,-5.3971439136662305,6.9849009689354435,-4.873674672818084,8.31913189195478,-5.953700166029778
-2.2279554156330397,-5.313952594746683,6.936164222207263,-4.933211674478382,8.44448551661126,-5.072233277955062
-2.2810949415805064,-5.22950773958057,6.886832105462479,-4.983934007257933,8.52049807527992,-4.269289027940635
-2.333390018976312,-5.144302758827771,6.836992765389899,-5.026626897537339,8.554827122225216,-3.5345073878051627
-2.38483304656459,-5.058754487605519,6.786726496414526,-5.061971971415391,8.554468332548128,-2.85820296515666
-2.435420591440645,-4.973209804280038,6.736106776700372,-5.090554001066957,8.52564805546773,-2.2315789607815972
-2.4851526894834453,-4.887953323725361,6.685201236689703,-5.1128697906747735,8.473767998144293,-1.6468569479401507
-2.534032222720699,-4.8032156437439175,6.634072538782955,-5.129338360154175,8.403389738404261,-1.0973406264397696
-2.582064379158138,-4.719181746359875,6.582779155181413,-5.140311766418573,8.318249231664064,-0.5774288396807858
-2.629256196621737,-4.635999254043234,6.531376037517227,-5.14608605481538,8.22129366510489,-0.0825902814543189
-2.6756161891621693,-4.553786317392186,6.479915176969073,-5.146911957629923,8.114734805902948,0.3906902453835767
-2.7211540523360913,-4.472638969333157,6.428446057392774,-5.143005055176087,8.000114367764798,0.8449862914246756
-2.765880442029423,-4.392637825655509,6.377016006841013,-5.134555192261841,7.878377913374456,1.2820188940645691
-2.809806820285978,-4.313854046521764,6.325670454918395,-5.121735003321195,7.749954480753519,1.7027555824247123
-2.8529453607511956,-4.236354501714229,6.2744531048851835,-5.104707447496948,7.614839542440816,2.1075153468362844
-2.895308905768338,-4.160206106289821,6.223406030410214,-5.083632294028585,7.472679153114819,2.4960762807080696
-2.9369109668312365,-4.085479314758673,6.172569707469928,-5.0586715312215045,7.3228532841994465,2.8677830233712136
-2.977765759978823,-4.012250781916678,6.121982992157713,-5.029993700987792,7.164556444145751,3.2216514363465216
-3.01788826779799,-3.9406052174752206,6.071683055147836,-4.997777186624327,6.99687378921101,3.556468197866121
-3.0572943199727423,-3.8706364795831107,6.021705283281593,-4.962212504645666,6.818851076343183,3.8708832518293077
-3.0960006847685735,-3.802447968819679,5.972083158235136,-4.923503672127373,6.629557017183457,4.163493331445423
-3.1340251644567703,-3.7361523986478447,5.922848121513862,-4.881868738812918,6.428136865944456,4.432915111658792
-3.1713866884432487,-3.6718710299884,5.874029434125733,-4.83753958769633,6.213856407103828,4.677846929743347
-3.2081053987431325,-3.6097324659173617,5.82565403824877,-4.790761118398897,5.986135884565468,4.897118439138103
-3.244202723402306,-3.549871107071707,5.7777464270647805,-4.741789934007516,5.744573808621746,5.089728007419317
-3.279701434473023,-3.4924253689854896,5.730328527724705,-4.690892653933322,5.488960964182702,5.254868109874793
-3.314625688162878,-3.4375357593436626,5.6834196011853715,-4.638343972834575,5.219285297450054,5.391939379006353
-3.3490010457563146,-3.385342906369162,5.637036161457026,-4.584424579044511,4.935728656370938,5.500554323529338
-3.3828544748200065,-3.3359856198054527,5.59119191566658,-4.529419035809218,4.638656586659114,5.580532009511681
-3.416214331018061,-3.2895990539388618,5.545897725308488,-4.473613715714101,4.3286025310024,5.631885189718688
-3.4491103215574497,-3.2463130286288377,5.501161588151347,-4.417294863816914,4.006247842789797,5.6548014712192405
-3.481573451843738,-3.2062505502009397,5.4569886395131775,-4.360746849104721,3.6723990125318213,5.649620129354116
-3.5136359573457474,-3.1695265600756217,5.41338117102213,-4.30425064781118,3.32796342570445,5.616806117834985
-3.5453312229465035,-3.1362469258185772,5.370338664544018,-4.2480825866328304,2.9739248392153304,5.556922703966625
-3.5766936922046892,-3.106507677426424,5.32785783867769,-4.192513359593164,2.6113195960124664,5.470603991160108
-3.6077587689789534,-3.0803944814662994,5.285932705081758,-4.137807319681563,2.24121440951223,5.35852839506666
-3.6385627137936165,-3.057982337371177,5.2445546318849425,-4.084222035730896,1.8646863561547045,5.22139393092832
-3.6691425371673283,-3.03933547380963,5.203712411527634,-4.032008096421613,1.4828055278202654,5.0598959621658866
-3.6995358919054246,-3.0245074185314276,5.1633923305634175,-3.9814091367999542,1.0966206255182098,4.874707865081962
-3.729780966090739,-3.0135412122762455,5.123578239195418,-3.9326620581491345,0.7071476281265556,4.666464890040805
-3.7599163782135014,-3.00646973599498,5.084251618613927,-3.8859974092487266,0.3153615485969817,4.435751350764873
-3.789981075573451,-3.00331612050901,5.04539164452144,-3.841639895741078,-0.07780880397115242,4.183091152892217
-3.8200142367785412,-3.0040942085487217,5.006975245564029,-3.799808984212156,-0.4714832055468907,3.908941580833571
-3.8500551788640283,-3.0088090406041905,4.968977155721908,-3.76071956840382,-0.8648297343170908,3.6136901966685144
-3.88014326927007,-3.0174573379473615,4.93136996003787,-3.7245826664371346,-1.2570620391321,3.297654663523733
-3.910317842649544,-3.0300279583386827,4.894124133373499,-3.6916061198018975,-1.6474343803817764,2.9610852850396054
-3.9406181222329306,-3.0465023021425006,4.85720807217548,-3.6619952669515015,-2.0352346572124684,2.604170048263711
-3.971083145254356,-3.0668546487146253,4.820588119505965,-3.6359535664688645,-2.419775618603029,2.2270419656861296
-4.001751691741502,-3.0910524049006556,4.784228583841276,-3.613683146812003,-2.8003844337733135,1.829788529405557
-4.032662215790508,-3.1190562492383886,4.748091752373156,-3.5953852615179476,-3.176390772807876,1.412463113160989
-4.063852778282892,-3.1508201569664673,4.712137899757977,-3.5812606303863377,-3.5471135238886458,0.9750981831475167
-4.095360979852557,-3.186291292205354,4.676325293454114,-3.5715096485548625,-3.9118462513369345,0.5177202035448739
-4.1272238927746105,-3.225409754718723,4.640610196968565,-3.566332446519414,-4.269841480526571,0.040366145328710946
-4.159477990321798,-3.268108169523989,4.604946872503371,-3.5659287850661268,-4.620293883017805,-0.45689847458773275
-4.192159072017038,-3.314311108354167,4.5692875846527095,-3.570497769812004,-4.962322428997211,-0.9739600839345993
-4.225302183100579,-3.363934332644139,4.53358260695459,-3.58023737065135,-5.294951575008055,-1.5106361291736523
-4.25894152642702,-3.416883848394219,4.4977802332480765,-3.5953437319430863,-5.6170915634567935,-2.066652787928907
-4.293110364910962,-3.473054764028787,4.461826795928646,-3.6160102598223753,-5.927517926673112,-2.6416213832791153
-4.32784091255125,-3.5323299432955184,4.425666693330422,-3.6424264736551666,-6.224850312336078,-3.235013579670651
-4.363164211984205,-3.594578446418879,4.38924242859387,-3.674776609451873,-6.507530778597001,-3.8461354635002634
-4.399109996448393,-3.659653754204849,4.3524946624993515,-3.7132379640868756,-6.773801745781472,-4.474100640824443
-4.435706533990442,-3.7273917716626634,4.315362282858483,-3.75797897049512,-7.021683836554859,-5.117802518819172
-4.472980451707069,-3.797608610028212,4.2777824931535315,-3.8091569956833116,-7.248953887259236,-5.775885974838851
-4.510956537807351,-3.870098148900804,4.239690923196698,-3.8669158554317002,-7.453123469248293,-6.446718655323388
-4.549657519296359,-3.9446293835932873,4.201021764642381,-3.931383041984934,-7.63141832026479,-7.12836218460483
-4.589103813132292,-4.0209435667959355,4.161707934222532,-4.002666663830983,-7.780759152669262,-7.818543599669331
-4.629313248800251,-4.098751158322628,4.121681267584222,-4.080852099827676,-7.897744379149525,-8.51462736116926
-4.670300760383477,-4.177728602114123,4.080872746585945,-4.165998373439368,-7.978635380495171,-9.213588325603391
-4.712078046404619,-4.257514955919075,4.039212762851552,-4.258134256695402,-8.019345039318358,-9.911986103952257
-4.75465319596381,-4.337708406312259,3.9966314202845976,-4.357254117734924,-8.0154303861228,-10.605941287993872
-4.798030280026932,-4.417862710173487,3.9530588791072483,-4.463313530614863,-7.962090360818485,-11.29111411259845
-4.842208907128667,-4.497483613781672,3.9084257438010996,-4.576224671740847,-7.854169897718069,-11.962686262902631
-4.887183743266483,-4.576025312758852,3.862663497083691,-4.695851534369873,-7.686171811837675,-12.61534675916295
-4.932943996394072,-4.6528870308772285,3.815704981739992,-4.822005001961503,-7.452278316512651,-13.243283195947688
-4.979472866702844,-4.727409814042355,3.7674849317203774,-4.95443783392098,-7.146384452367788,-13.840180117535162
-5.026746964843268,-4.798873658566033,3.7179405533811676,-5.092839635096332,-6.7621462638346195,-14.399227019429846
-5.074735701428928,-4.866495121204379,3.667012157030204,-5.2368319052906305,-6.293047215267968,-14.913139410373207
-5.123400652640972,-4.929425593357059,3.614643837977298,-5.385963299394363,-5.732487062800399,-15.374197563644339
-5.172694908574543,-4.986750463985063,3.5607842049833542,-5.539705275030807,-5.073898120702811,-15.774309007413564
-5.222562413214393,-5.037489445192091,3.505387152233046,-5.697448365104942,-4.310894459213094,-16.10510236970229
-5.272937307666314,-5.080598389784222,3.4484126685819967,-5.858499388801965,-3.437459853292952,-16.35806173963301
-5.323743291564156,-5.1149729883171515,3.389827674693977,-6.022080006198295,-2.4481799980844303,-16.524711962036147
-5.374893021447328,-5.1394547882979955,3.329606874631994,-6.187327125818657,-1.3385232666042381,-16.596865852750565
-5.426287569330308,-5.152840020964038,3.2677336033738076,-6.353295784346162,-0.1051716968378454,-16.5669436902623
-5.477815969539948,-5.153891737932416,3.204200645530346,-6.518965221248785,1.2536004652013168,-16.428372898525623
-5.529354886919273,-5.141355733280403,3.139010993317858,-6.6832489502340415,2.7375098196399716,-16.176070967944014
-5.580768444252077,-5.113980635084004,3.072178503815518,-6.845009659913481,4.343826349598686,-15.807006878131142
