th1 (rad),w1 (rad/s),th2 (rad),w2 (rad/s)
2.2301821360772127,-1.780652007419697,0.6212292861833288,0.508254871089912
2.212375616003016,-1.8599401188815416,0.6263118348942279,0.47987493276057996
2.1937762148142004,-1.9397880023648897,0.6311105842218337,0.455801906270473
2.1743783347905516,-2.0203373538752376,0.6356686032845384,0.43625925840700375
2.1541749612517993,-2.1017356184645433,0.6400311958686085,0.4214830893707368
2.133157605067154,-2.1841375415151867,0.6442460267623158,0.41172332551111607
2.111316229652002,-2.2677069872350084,0.648363260017427,0.4072450837284462
2.088639159779652,-2.352619057097307,0.6524357108547114,0.4083302491519434
2.0651129692086787,-2.4390625452712222,0.6565190133462309,0.4152793126222907
2.0407223437559665,-2.527242772323667,0.6606718064724537,0.4284135189229816
2.01544991603273,-2.6173848421589407,0.6649559416616835,0.44807737972297024
1.9892760676111405,-2.7097373694365046,0.6694367154589131,0.4746416053039455
1.9621786939167754,-2.8045767240698,0.6741831315119526,0.5085065038445561
1.9341329266760774,-2.902211833296936,0.6792681965503982,0.5501058822085134
1.905110808343108,-3.0029895659185017,0.6847692553724833,0.5999114511186383
1.875080912683923,-3.107300690442931,0.6907683698836697,0.6584376793649103
1.8440079057794936,-3.2155863371958477,0.6973527466773188,0.7262469385323125
1.811852042407535,-3.3283447843971636,0.704615216062642,0.803954602822179
1.7785685945635634,-3.446138197762217,0.7126547620908638,0.8922334711764364
1.7441072125859411,-3.569598630108849,0.7215770968026282,0.9918163856441699
1.7084112262848528,-3.699432047175333,0.7314952606590699,1.1034951095502687
1.6714169058130994,-3.8364182530115856,0.7425302117545726,1.2281122089170449
1.6330527232829837,-3.981403130476088,0.754811333843743,1.3665405504936734
1.5932386919782229,-4.135277267488596,0.7684767393486798,1.5196416376193747
1.551885919303337,-4.298931349542546,0.7836731557248735,1.6881887134890667
1.5088966058079114,-4.473173092537135,0.8005550428597642,1.8727325874925644
1.46416487488254,-4.658582480099927,0.8192823687346898,2.0733768475346266
1.4175790500815406,-4.855271927019312,0.8400161372100361,2.289414994539338
1.3690263308113475,-5.062508541504502,0.8629102871554295,2.518769257060552
1.3184012453963025,-5.278156280187243,0.888097979726035,2.75717298326383
1.2656196825944301,-5.497929362836775,0.9156697095586733,2.9970883727830864
1.2106403889660624,-5.714557683772896,0.9456405932865042,3.2265099790234504
1.1534948121283335,-5.917200184351462,0.9779056930767387,3.4281427626790224
1.0943228102848188,-6.091781767222408,1.012187120703529,3.579929744544292
1.0334049926125948,-6.223101865285861,1.0479864181489718,3.6581499453742254
0.9711739739597361,-6.298961478389124,1.084567917602714,3.6434456283226337
0.908184359175845,-6.3148530527134525,1.1210023738859405,3.5276983243003115
0.8450358286487104,-6.276226864836449,1.1562793571289436,3.3174639073656285
0.7822735600003459,-6.19639068240563,1.1894539962025998,3.0311309842054115
0.7203096531762896,-6.091473549134757,1.219765306044654,2.6917778888291872
0.6593949176849421,-5.975798746211634,1.246683084932946,2.320491100764956
0.5996369302228257,-5.859650442082055,1.2698879959405955,1.9330343239732277
0.5410404258020052,-5.749182748244425,1.2892183391803278,1.5395817200922388
0.48354859831956093,-5.647333802725374,1.3046141563812501,1.1459313093374779
0.4270752602923072,-5.554882721430144,1.3160734694746248,0.7549711196691847
0.37152643307800576,-5.471288548970698,1.3236231806713166,0.3678688580264002
0.31681354758829877,-5.395255600736741,1.3273018692515806,-0.015110508128028832
0.26286099158093135,-5.32508138801736,1.3271507641703002,-0.39409154548537867
0.20961017770075774,-5.25885915273087,1.3232098487154464,-0.7692850104428053
0.15702158617344902,-5.194591974382155,1.3155169986110185,-1.1408183146148905
0.10507566642962747,-5.1302567282124905,1.3041088154648695,-1.5086485086363077
0.053773099147502564,-5.063841660398969,1.2890223303785064,-1.872525999554536
0.0031346825435128664,-4.993371628696718,1.270297070382961,-2.2319902030404424
-0.04679903374345431,-4.91692893170331,1.2479771683525567,-2.586386274398872
-0.09596832306048741,-4.832673856841451,1.222113305608568,-2.934896638429504
-0.14429506162890193,-4.738866705172267,1.192764339224273,-3.2765835101613767
-0.1916837286806246,-4.633891526778631,1.1599985041226593,-3.610439805413398
-0.2380226439484109,-4.516280791129254,1.1238941060685252,-3.935446316840754
-0.28318545185970345,-4.384739543406511,1.0845396429001177,-4.250633118619693
-0.3270328472937686,-4.238167172510329,1.0420333117139209,-4.5551430839471445
-0.3694145190188719,-4.075674702307909,0.9964818808744494,-4.848295303919095
-0.410171266041951,-3.896595502155129,0.9479989278352585,-5.129646185658515
-0.4491372210635023,-3.700487490799594,0.8967024659786733,-5.399046146722228
-0.4861420959714982,-3.48712527143216,0.842712004511451,-5.656690143903524
-0.5210133486858198,-3.2564811683498727,0.7861451030724158,-5.903160775694202
-0.5535781603693186,-3.0086948128168878,0.7271134953154738,-6.139463338570639
-0.5836651084974875,-2.7440317226966817,0.6657188619297674,-6.367052911126675
-0.6111054257244544,-2.4628322319637617,0.6020483328185007,-6.587854139249029
-0.635733748044092,-2.1654532019391897,0.5361697914260104,-6.804274663463737
-0.6573882800634839,-1.8522063523900982,0.468127044791373,-7.019212683200313
-0.6759103435873849,-1.5232991761023076,0.39793491795936986,-7.236057344897159
-0.691143335348408,-1.1787880386922454,0.32557434451039824,-7.458676328506809
-0.7029312157353305,-0.8185597319649544,0.25098758122533016,-7.691376114391256
-0.71111681305498,-0.44237021472541194,0.17407382008141759,-7.938803163871441
-0.715540515202234,-0.04999235874364072,0.09468578844270317,-8.205721979355292
-0.7160404387896705,0.3584341424289202,0.01262856864915024,-8.496547913697766
-0.7124560973653813,0.7816884429464068,-0.07233691048782742,-8.814414637360622
-0.7046392129359172,1.216128459865029,-0.16048105686143366,-9.159413038687196
-0.692477928337267,1.6533765882324665,-0.25207518724830563,-9.525503406992556
-0.6759441624549423,2.076800275914385,-0.3473302213182312,-9.895735116109044
-0.6551761596957985,2.457419359920004,-0.44628757247932166,-10.236549130972405
-0.6306019660965985,2.7523309024358182,-0.5486530637890457,-10.495274209581154
-0.6030786570722403,2.912234391108493,-0.6536058058848572,-10.609731253974815
-0.5739563131611554,2.902782412497474,-0.7597031184246054,-10.536418705802374
-0.5449284890361806,2.728495513904634,-0.8650673054826291,-10.282075123344654
-0.5176435338971342,2.433560261957657,-0.9678880567160757,-9.904105095871618
-0.4933079312775577,2.0755833033863964,-1.0669291076747918,-9.475309609858451
-0.4725520982436937,1.7000474240951515,-1.1616822037733763,-9.05068195913364
-0.4555516240027422,1.3331557247018306,-1.2521890233647126,-8.659225184963894
-0.4422200667557239,0.9865212516871922,-1.3387812752143515,-8.311112039159527
-0.43235485423885195,0.6635831947842097,-1.4218923956059468,-8.006525043409113
-0.42571902229100983,0.36398274029928757,-1.501957646040038,-7.741425675093788
-0.42207919488801693,0.08590803375346368,-1.5793719027909758,-7.510505646477419
-0.4212201145504823,-0.1728008947911882,-1.65447695925575,-7.308487216299043
-0.42294812349839417,-0.41418446146952903,-1.7275618314187404,-7.130610252286652
-0.42708996811308947,-0.639996629861879,-1.798867933941607,-6.972756926094659
-0.43348993441170824,-0.8516716046195083,-1.8685955032025534,-6.831429946906774
-0.4420066504579033,-1.0503455559546606,-1.9369098026716212,-6.703681117819996
-0.45251010601744995,-1.2368977879129648,-2.003946613849821,-6.587031041205008
-0.4648790838965796,-1.411995870308136,-2.0698169242618714,-6.479395589480471
-0.478999042599661,-1.576138444430755,-2.134610880156676,-6.379023806367327
-0.4947604270439685,-1.7296935014178305,-2.198401118220349,-6.284447397264898
-0.5120573620581468,-1.8729316687139275,-2.261245592192998,-6.19444031376644
-0.5307866787452861,-2.0060547108367492,-2.3231899953306625,-6.107986510004429
-0.5508472258536535,-2.129219655183935,-2.384269860430707,-6.024254020194304
-0.5721394224054929,-2.2425589695139143,-2.4445124006326497,-5.942573758040535
-0.5945650121006321,-2.3461971712980016,-2.503938138213055,-5.86242173369285
-0.6180269838136121,-2.440264195151917,-2.5625623555499835,-5.783403668105644
-0.6424296257651313,-2.5249058038950576,-2.62039639223104,-5.705241238339111
-0.6676786838040819,-2.600291306385074,-2.677448804614431,-5.627759405174667
-0.6936815968679326,-2.666618838830989,-2.7337263986661777,-5.5508744563283505
-0.7203477852562425,-2.724118470625182,-2.7892351432294613,-5.474582546183665
-0.7475889699624944,-2.77305340506259,-2.843980968691298,-5.398948628500074
-0.7753195040131202,-2.813719554422742,-2.897970454976299,-5.324095764442258
-0.8034566995573477,-2.8464437737506456,-2.9512114126207214,-5.25019484733479
-0.8319211372948542,-2.8715810356873033,-3.003713361094069,-5.177454821033781
-0.8606369476517272,-2.889510818692651,-3.055487909304407,-5.106113484400804
-0.8895320558386537,-2.9006329630412893,-3.1065490441484154,-5.036428974037364
-0.9185383854690666,-2.9053632240865213,-3.156913333888789,-4.968672005246057
-0.9475920177099318,-2.904128722148403,-3.2066000539412496,-4.903118931027547
-0.9766333049314159,-2.8973634549640512,-3.255631243251525,-4.840045654323013
-1.0056069394810563,-2.8855040039471977,-3.304031699794755,-4.7797224026441
-1.0344619795205283,-2.868985531351014,-3.3518289238211962,-4.722409349022846
-1.0631518348340385,-2.848238133291152,-3.3990530173114246,-4.668353040512866
-1.09163421616695,-2.8236835845369477,-3.445736547716553,-4.617783576290443
-1.1198710520123196,-2.79573248567522,-3.4919143834794575,-4.570912462192295
-1.1478283768690718,-2.764781801971078,-3.5376235081013805,-4.527931057289399
-1.1754761948887826,-2.731212765956411,-3.5829028186742744,-4.489009520508361
-1.2027883225483467,-2.6953891021944916,-3.627792913879358,-4.454296160834385
-1.2297422135702916,-2.6576555223653617,-3.672335875487702,-4.423917092612186
-1.2563187687939452,-2.6183364312740016,-3.7165750464138236,-4.39797609722387
-1.2825021331066853,-2.5777347790633858,-3.7605548073860624,-4.376554593323289
-1.308279480897319,-2.5361309913111025,-3.8043203533192953,-4.359711619287455
-1.33364079081043,-2.4937819063701125,-3.84791746951217,-4.347483733172004
-1.358578609874131,-2.450919647962147,-3.89139230684389,-4.339884736946452
-1.3830878063537526,-2.407750360472474,-3.9347911542133547,-4.336905133034206
-1.4071653099584773,-2.364452734634181,-3.9781602055436966,-4.338511222305692
-1.430809837304819,-2.3211762525563726,-4.021545317766754,-4.344643754043504
-1.4540215998303827,-2.2780390838406124,-4.064991755307189,-4.355216040707323
-1.4768019906687888,-2.2351255696679497,-4.108543915714263,-4.370111454658342
-1.4991532463654682,-2.1924832404446675,-4.152245030260846,-4.389180231929247
-1.521078078769915,-2.150119326554633,-4.196136832580138,-4.412235521808556
-1.5425792720354612,-2.1079967431956748,-4.240259187798224,-4.439048643302548
-1.563659239467418,-2.0660295619536355,-4.284649674231249,-4.469343544066936
-1.5843195350869543,-2.0240780269900327,-4.329343109671918,-4.50279050855281
-1.6045603153568546,-1.9819432361413956,-4.374371014757447,-4.538999234893207
-1.6243797477182687,-1.9393616904762898,-4.419761007106379,-4.577511499686184
-1.6437733646230315,-1.89600002282298,-4.465536122103241,-4.6177937609342745
-1.6627333648512612,-1.8514503474758128,-4.511714059712583,-4.6592302146447855
-1.6812478683260192,-1.8052268271342595,-4.558306361859031,-4.70111701859097
-1.699300136597362,-1.7567642206789507,-4.60531753204494,-4.742658619140438
-1.7168677788041513,-1.7054193396236654,-4.6527441182363445,-4.78296734502663
-1.733921972200388,-1.6504764737604094,-4.700573791686611,-4.821067632434249
-1.750426736937992,-1.5911579065570312,-4.748784468010953,-4.855906368909133
-1.7663383160035624,-1.5266405753110284,-4.797343531700045,-4.886370822950005
-1.7816047217566726,-1.4560796805986154,-4.846207239929544,-4.911315384509381
-1.7961655185626588,-1.378639560570825,-4.895320393774639,-4.929597805052038
-1.809951914168367,-1.2935313895350666,-4.944616371825159,-4.940124746997555
-1.8228872280637178,-1.2000562579959781,-4.994017619295135,-4.941905241698996
-1.8348877906436776,-1.097651036966731,-5.043436671712125,-4.934109211896997
-1.8458643010133449,-0.9859333015712248,-5.092777763831095,-4.916126745262027
-1.855723634029057,-0.8647407376332259,-5.141939031283715,-4.88762261238908
-1.8643710414053893,-0.7341601538663705,-5.190815257407606,-4.848579950080018
-1.8717126429440532,-0.5945416907855001,-5.239301056908406,-4.799327372415116
-1.8776580598519081,-0.44649513173997796,-5.287294330632557,-4.740545159663838
-1.882123011169308,-0.29086725068114505,-5.334699782229196,-4.673248493199468
-1.8850316836761194,-0.12870153454385694,-5.38143226716119,-4.598748576334601
-1.886318699021558,0.038816081334211355,-5.4274197529245365,-4.518595346889042
-1.8859305382082159,0.21042010798717617,-5.472605706393427,-4.434507760054516
-1.8838263371283441,0.38483087384699355,-5.516950783993972,-4.348298858534703
-1.8799780283898742,0.5608164448008992,-5.560433772579319,-4.261802879588457
-1.874369863941865,0.7372462712106369,-5.603051801375204,-4.176810600760801
-1.8669974012297588,0.9131333991866146,-5.6448199073828125,-4.095017348464305
-1.8578660672378926,1.0876639084775768,-5.685770080867456,-4.017986032773765
-1.8469894281531167,1.2602138884062852,-5.725949941195193,-3.9471256387102476
-1.8343872892690538,1.4303555127880299,-5.765421197582295,-3.883684084769185
-1.8200837341411735,1.597854538809505,-5.804258038429987,-3.828753384015954
-1.8041051887530786,1.7626618628624338,-5.842545572270146,-3.7832846064968426
-1.7864785701244543,1.9249017196363476,-5.880378418335114,-3.7481101496911
-1.7672295529280908,2.084858837797752,-5.917859519832025,-3.7239711438158514
-1.7463809645501134,2.2429664881370366,-5.955099231270184,-3.7115483205545554
-1.723951299668743,2.3997969746828622,-5.99221471447573,-3.7114952526095313
-1.6999533299219143,2.5560557915704383,-6.029329667001825,-3.7244734574517073
-1.67439277200621,2.7125804358756413,-6.066574401576342,-3.75118941486922
-1.6472669676474536,2.8703447449900477,-6.104086295725034,-3.79243406312204
-1.6185635201975532,3.0304696168297456,-6.142010636356255,-3.8491258168819495
-1.5882588240292557,3.1942410604232485,-6.180501894525074,-3.922358599181224
-1.5563164134250231,3.3631366860763934,-6.219725480516886,-4.013456793579722
-1.5226850465642592,3.5388619215522215,-6.259860048452683,-4.124039354756999
-1.487296427348737,3.7233973108293092,-6.301100442000253,-4.256095422622592
-1.4500624542404439,3.919057945239813,-6.343661396226479,-4.412073312051347
-1.4108718747880458,4.12856479948573,-6.387782129346992,-4.594982883214247
-1.3695862267931884,4.35512419696962,-6.433731958179135,-4.808506226735702
-1.3260349848234922,4.602502978199329,-6.481817020446492,-5.057099362968546
-1.280009955041499,4.875067072407793,-6.532388014076178,-5.346039679377597
-1.231259284317421,5.177707055524124,-6.5858484108699535,-5.681311850026669
-1.1794822137621799,5.515479221883268,-6.64266152937022,-6.069091513893695
-1.1243274215433472,5.892594710884593,-6.703352444509157,-6.514310757074915
-1.0654014744345013,6.310020297040602,-6.768495552079907,-7.017270981829227
-1.0023012714640953,6.760407061298356,-6.838668261898199,-7.566498399820187
-0.9346972008511117,7.218854708196106,-6.914333245896401,-8.12574033725824
-0.8625086537691506,7.630561313118627,-6.995590649268983,-8.616564413333338
-0.7862030406379643,7.9070165510256185,-7.081756293402317,-8.912923325747197
-0.7071328751277082,7.957958672582781,-7.170885526659789,-8.885925940041746
-0.6275532884018804,7.763116087434175,-7.259744786060207,-8.504508839059003
-0.5499221275275387,7.403011176624649,-7.344789874450797,-7.878825140230916
-0.47589201576129214,6.991554469569553,-7.423578125853106,-7.1661516058403905
-0.40597647106559664,6.604459403183984,-7.4952396419115095,-6.470920886642798
-0.3399318770337568,6.271594769733724,-7.559948850777937,-5.833962211739372
-0.2772159293364196,5.997427729644777,-7.618288472895331,-5.260867533033708
-0.2172416520399718,5.776835721613373,-7.670897148225667,-4.743922820951047
-0.1594732948238381,5.602422477188603,-7.718336376435178,-4.272256091239504
-0.10344907005195206,5.467154933197027,-7.761058937347573,-3.8355112986060225
-0.04877752071998179,5.365071585724751,-7.799414050333634,-3.424863096060856
0.004873195137265723,5.291306723668832,-7.833662681294243,-3.0330950851038927
0.057786262373954046,5.241911860792462,-7.863993632145282,-2.6544065322229917
0.11020538098187867,5.2136442238894976,-7.890537697467511,-2.2841813504041744
0.16234182322077365,5.20377540738132,-7.913379510971553,-1.9187912446465143
0.21437957729458684,5.2099322038295,-7.932567423418019,-1.5554472443265475
0.2664788993328818,5.229968660013291,-7.948121895861284,-1.1920947208193777
0.3187785859330147,5.261865525653207,-7.960042843069478,-0.8273415869481082
0.3713972411895468,5.303653693189604,-7.968316258938959,-0.4604085755472867
0.42443377812144284,5.35335944462046,-7.9729203446944314,-0.09109111681721282
0.47796737256764743,5.408970369064822,-7.973831255862604,0.28027656683788676
0.5320570762582957,5.468421324758407,-7.971028490194225,0.6528630827858342
0.5867412895058798,5.529599671330648,-7.9644998593663665,1.0253932340230434
0.6420372862191863,5.5903682220759885,-7.954245927026136,1.3962166990102056
0.6979409684399462,5.648603124458081,-7.940283760036034,1.7633926562073023
0.7544269996845271,5.702242455458972,-7.922649833473961,2.1247878381535115
0.8114494242391168,5.749340081958336,-7.9014019550924255,2.4781826032559686
0.8689428250587001,5.788118649370456,-7.876620129059866,2.8213774948919172
0.9268240115524047,5.817015685353331,-7.848406354110947,3.152291862665935
0.984994168405938,5.8347178114518625,-7.8168834354842875,3.469046660327576
1.0433413465204566,5.840179795010544,-7.782192968881012,3.7700253994301676
1.101743144470562,5.832627317074985,-7.74449271488671,4.053910018131959
1.160069417641312,5.811544468489022,-7.70395361470539,4.319691531743605
1.2181848623262022,5.776648742406015,-7.660756699387954,4.566658167352076
1.2759513497502624,5.72785742342409,-7.615090117714433,4.7943657949138245
1.3332299239845034,5.665249706205088,-7.567146459765295,5.002596627298823
1.3898824210465541,5.589028684010446,-7.517120493492307,5.191312379641163
1.4457727078866587,5.49948669828517,-7.465207369695896,5.36060753187908
1.5007675748695104,5.396976631668247,-7.411601294377105,5.510667286613791
1.554737341186193,5.281890734029646,-7.356494621510967,5.6417335168463065
1.6075562485264894,5.154647620489475,-7.300077286342503,5.754080662458252
1.659102724731384,5.0156872445148615,-7.242536479717921,5.848002296944563
1.7092595971765328,4.865472958490821,-7.1840564567484755,5.923808018076713
1.757914326761441,4.704499234338982,-7.124818376567708,5.9818294435731385
1.8049593191048308,4.533303225488649,-7.065000082131976,6.022433418453679
1.8502923513597171,4.352478109558374,-7.0047757479474395,6.046040063101996
1.8938171324553008,4.162686066240538,-6.94431534731642,6.053143014270908
1.935443993117706,3.964668828869627,-6.8837839171737105,6.044329145999492
1.9750906814064024,3.759254008882922,-6.8233406257137155,6.020295214380998
2.0126832214952315,3.547355824040652,-6.763137673569905,5.981859249376734
2.048156779735638,3.3299694362028402,-6.703319081076137,5.929965097051119
2.081456474097666,3.1081587699633766,-6.644019430105626,5.86567924741467
2.1125380617973,2.883038365619749,-6.585362637631479,5.790179890152079
2.1413684454534976,2.6557504345696037,-6.527460838729958,5.704738928696538
2.1679259497991934,2.427438753182945,-6.470413449442993,5.6106983561693
2.192200337331023,2.199221294507205,-6.4143064658813,5.509442874593632
2.214192550276095,1.972163530711036,-6.3592120371353635,5.402370873087653
