th1 (rad),w1 (rad/s),th2 (rad),w2 (rad/s),a1 (rad/s^2),a2 (rad/s^2)
5.7736260410742615,-1.241404442417683,5.700090125218551,-1.0052900964229279,3.970736604408365,1.5491985424991939
5.7612119966500845,-1.2016970763735995,5.690037224254322,-0.9897981109979359,4.115400232126563,1.475660870299026
5.7491950258863485,-1.160543074052334,5.6801392431443425,-0.9750415022949457,4.252434349748509,1.4087434752872956
5.737589595145825,-1.1180187305548488,5.670388828121393,-0.9609540675420727,4.381645384406818,1.3487219688078111
5.7264094078402765,-1.0742022767107806,5.660779287445972,-0.9474668478539946,4.502882059490471,1.2958075610658721
5.715667385073169,-1.0291734561158759,5.651304618967432,-0.9345087722433358,4.616032479640682,1.2501521405922955
5.70537565051201,-0.983013131319469,5.641959531244998,-0.9220072508374129,4.721020792410377,1.2118541200186959
5.695545519198815,-0.9358029233953652,5.632739458736624,-0.9098887096372259,4.817803540026172,1.1809648386177092
5.686187489964861,-0.8876248879951034,5.6236405716402516,-0.8980790612510489,4.906365816449554,1.1574953101917531
5.67731124108491,-0.8385612298306079,5.614659781027741,-0.8865041081491313,4.986717342594437,1.141423110112702
5.668925628786604,-0.7886940564046635,5.6057947399462495,-0.8750898770480042,5.058888566776216,1.132699206443132
5.661038688222558,-0.7381051707369013,5.597043841175769,-0.8637628849835729,5.12292688896077,1.131254555828545
5.653657636515189,-0.6868759018472936,5.588406212325934,-0.8524503394252875,5.1788930968681655,1.1370063039714287
5.646788877496716,-0.635086970878612,5.579881708931681,-0.8410802763855731,5.226858090120762,1.149863451822488
5.64043800778793,-0.5828183899774043,5.571470906167825,-0.8295816418673483,5.266899955968772,1.1697318711589315
5.634609823888156,-0.5301493904177166,5.563175089749151,-0.817884323155759,5.299101447114621,1.1965185761836943
5.629308329983979,-0.47715837594657035,5.554996246517594,-0.8059191373939221,5.323547899103311,1.230135180607852
5.624536746224513,-0.42392289695553725,5.546937055143655,-0.7936177855878436,5.340325611840752,1.2705004920197123
5.620297517254958,-0.37051964083712974,5.539000877287776,-0.7809127806676465,5.3495207071415525,1.3175422170216737
5.616592320846586,-0.3170244337657142,5.5311917494811,-0.7677373584974297,5.351218461813744,1.3711977715933878
5.613422076508929,-0.26351224914757676,5.523514375896125,-0.7540253807814958,5.345503103648436,1.431414211460406
5.6107869540174535,-0.2100572181110924,5.51597412208831,-0.7397112386668918,5.332458045780199,1.4981473169854662
5.608686381836343,-0.1567326376532904,5.508577009701641,-0.7247297654970372,5.312166523236859,1.5713598862976739
5.60711905545981,-0.10361097242092182,5.501329712046671,-0.7090161666340604,5.2847125841844464,1.6510193089985148
5.606082945735601,-0.05076384657907736,5.49423955038033,-0.6925059735440753,5.250182377562315,1.7370945106747255
5.60557530726981,0.0017379771965457952,5.48731449064489,-0.675135028437328,5.208665668762583,1.8295523753018226
5.605592687041775,0.05382463388417163,5.480563140360516,-0.6568395046843097,5.160257506113067,1.9283537679678735
5.606130933380617,0.1054272089453023,5.473994745313673,-0.637555967004631,5.105059953640877,2.0334492935651025
5.60718520547007,0.15647780848171108,5.467619185643627,-0.61722147406898,5.043183800464131,2.1447749374417353
5.608749983554887,0.2069096464863524,5.461446970902937,-0.5957737246945626,4.974750154750203,2.2622477406615387
5.61081908001975,0.2566571480338544,5.4554892336559915,-0.5731512472879472,4.899891831034562,2.385761664671429
5.613385651500089,0.30565606634420006,5.449757721183112,-0.5492936306412329,4.818754444277098,2.515183797101044
5.6164422121635305,0.353843610786971,5.4442647848767,-0.5241417926702225,4.731497132650991,2.6503510415747056
5.6199806482714,0.40115858211348093,5.439023366949998,-0.4976382822544755,4.638292843810668,2.791067419543343
5.623992234092535,0.44754151055158764,5.434046984127454,-0.46972760805904207,4.539328136101055,2.9371020913423416
5.6284676491980505,0.4929347919125982,5.429349708046863,-0.44035658714561865,4.434802466385527,3.0881881774629876
5.633396997117177,0.5372828165764535,5.424946142175407,-0.4094747053709888,4.32492695911732,3.244022430337941
5.6387698252829415,0.5805320861676266,5.420851395121697,-0.3770344810676094,4.209922675916031,3.404265773136914
5.644575146144618,0.622631312926787,5.417081050311021,-0.34299182333624023,4.090018429976501,3.568544686836392
5.650801459273886,0.663531497226552,5.413651132077658,-0.3073063764678763,3.965448213743628,3.736453392072363
5.657436774246151,0.7031859793639883,5.410578068312979,-0.26994184254715264,3.8364483300251866,3.9075567399828075
5.664468634039792,0.7415504626642402,5.4078786498875075,-0.23086627514732455,3.703254334779901,4.081393698272005
5.671884138666434,0.7785830060120392,5.405569987136034,-0.19005233816460448,3.566097913123973,4.257481296687537
5.679669968726555,0.814243985143279,5.403669463754388,-0.1474775251977291,3.4252038178785256,4.435318881185
5.6878124085779875,0.8484960233220643,5.40219468850241,-0.1031243363858791,3.2807870018581675,4.614392518927524
5.696297368811208,0.881303893340646,5.401163445138551,-0.05698041119660387,3.1330500711216303,4.794179397011392
5.705110407744614,0.9126343940518623,5.400593641026585,-0.009038617226489944,2.982181177028644,4.974152065922085
5.714236751685133,0.9424562058221487,5.40050325485432,0.040702903432730905,2.828352450992292,5.1537823931825235
5.723661313743355,0.9707397303320716,5.400910283888647,0.09224072736455614,2.671719068381505,5.332545112011308
5.733368711046675,0.9974569210158867,5.4018326911622925,0.14556617848466924,2.5124190083863476,5.509920872339087
5.743343280256834,1.0225811110997503,5.403288352947139,0.2006653872080601,2.3505735561398002,5.685398725387378
5.753569091367831,1.0460868466611482,5.40529500681922,0.25751937446193385,2.1862885732748514,5.858477996378016
5.764029959834443,1.0679497323938967,5.407870200563839,0.316104154425714,2.019656544522015,6.028669521158626
5.774709457158382,1.0881462978391168,5.411031242108097,0.37639084963730024,1.8507593918429432,6.195496240217155
5.785590920136773,1.1066538917575461,5.41479515060447,0.43834581203947176,1.6796720346173624,6.358493156672695
5.796657459054348,1.1234506121037198,5.419178608724865,0.5019307436061987,1.5064666649499416,6.5172066726976245
5.8078919651753855,1.1385152787532191,5.424197916160927,0.567102810333175,1.3312177013741968,6.671193321145577
5.819277117962918,1.151827455766961,5.429868944264259,0.6338147435446307,1.1540073820011805,6.820017905973696
5.830795392520588,1.1633675295869728,5.436207091699705,0.7020149226043677,0.974931959190667,6.963251056699839
5.842429067816457,1.1731168491788795,5.443227240925749,0.7716474331713661,0.7941084616500216,7.100466189228142
5.854160236308246,1.1810579337953797,5.450943715257463,0.8426520950636475,0.6116819959003787,7.231235848724418
5.8659708156462,1.1871747537543835,5.459370236208099,0.9149644535508916,0.42783356659089256,7.355127390832376
5.877842563183744,1.1914530894202924,5.468519880743608,0.9885157274592153,0.2427884033828279,7.471697936578818
5.889757094077948,1.1938809734541207,5.478405038018201,1.0632327068250036,0.05682479013111856,7.580488515216259
5.901695903812489,1.1944492213554319,5.489037365086451,1.1390375919771663,-0.12971660124510992,7.681017289647498
5.913640396026043,1.1931520553429809,5.500427741006222,1.2158477648736412,-0.31642286584172497,7.77277174297544
5.9255719165794725,1.1899878266845636,5.512586218654958,1.2935754823033956,-0.5027985038550672,7.85519969460222
5.937471794846318,1.184959841646013,5.525521973477992,1.3721274792494178,-0.6882545426991489,7.9276990132871115
5.949321393262778,1.1780772962190216,5.539243248270486,1.451404469382289,-0.8720971604763899,7.989605906617794
5.961102166224968,1.1693563246142578,5.553757292964309,1.5313005284484669,-1.0535158572978,8.040181696461762
5.972795729471111,1.1588211660412797,5.569070298248794,1.6117023454130845,-1.2315712674766106,8.078598044421613
5.984383941131523,1.1465054533665135,5.585187321702924,1.6924883258573007,-1.4051827750199886,8.10392067784474
5.995848995665188,1.1324536256163136,5.6021122049614975,1.773527532635748,-1.5731161937046994,8.115091794786567
6.007173531921351,1.1167224636792665,5.619847480287855,1.8546784505836138,-1.7339719088603656,8.110911506137727
6.018340756558144,1.0993827445906628,5.638394264793691,1.935787565644991,-1.886174058810727,8.090018916430859
6.029334584004051,1.0805210040025555,5.657752140450141,2.0166877548092996,-2.0279615673625564,8.050873762968129
6.040139794044077,1.06024138832893,5.677919017998234,2.097196492438981,-2.1573821304561314,7.991739934990722
6.050742207927366,1.0386675670243686,5.698890982922624,2.1771138917888884,-2.272290611327449,7.910672684349926
6.061128883597609,1.015944660911094,5.720662121840513,2.2562206186323874,-2.3703537023729835,7.805511909941256
6.071288330206721,0.9922411238873642,5.7432243280268365,2.3342757377318,-2.4490631482353127,7.673884526348758
6.081210741445594,0.9677504924050111,5.766567085404154,2.4110145829952874,-2.5057602537249197,7.513219563279714
6.090888246369644,0.9426928898677619,5.790677231234107,2.4861467786280844,-2.5376747555506975,7.320780201334945
6.100315175268322,0.9173161423122549,5.815538699020388,2.559354580641434,-2.5419813185393054,7.093717301258392
6.109488336691444,0.8918963291268618,5.841132244826802,2.630291753654018,-2.515876788304328,6.829148947269803
6.118407299982713,0.8667375612438185,5.867435162363343,2.6985832431267163,-2.4566807232893306,6.524269872928242
6.127074675595151,0.8421707540109252,5.89442099479461,2.7638259418559987,-2.3619604531947735,6.176493116664313
6.13549638313526,0.8185511494789774,5.92205925421317,2.825590873022642,-2.229679799802683,5.783623629581667
6.14368189463005,0.7962543514809506,5.950315162943396,2.8834271093184585,-2.0583675579322263,5.344059691926017
6.151644438144859,0.7756706759016283,5.9791494340365805,2.9368677062377184,-1.8472979309282167,4.857012948776073
6.1594011449038755,0.7571976965923461,6.008518111098958,2.985437835725479,-1.5966706499042334,4.322732029443808
6.166973121869799,0.7412309900933038,6.038372489456213,3.028665156019917,-1.307774089914141,3.742708857636821
6.174385431770732,0.7281532491941625,6.068659141016412,3.0660922445962853,-0.9831112529023217,3.119842099344992
6.181666964262674,0.7183221366651392,6.0993200634623745,3.097290665589735,-0.6264671490828111,2.458530226935565
6.188850185629326,0.7120574651743111,6.130292970118272,3.121875967859091,-0.24289797527559934,1.7646688623598956
6.195970760281069,0.7096284854215551,6.161511729796863,3.13952265648269,0.16137173137886773,1.0455343499648533
6.203067045135285,0.7112422027353438,6.19290695636169,3.1499779999823385,0.579148164883339,0.30954782221771326
6.2101794671626385,0.7170336843841771,6.224406736361513,3.1530734782045156,1.0025553982217257,-0.43407009510029226
6.2173498040064805,0.7270592383663944,6.255937471143558,3.1487327772535125,1.4233895014729188,-1.1757271248653647
6.2246203963901445,0.7412931333811236,6.287424798916093,3.136975506004859,1.833507667975394,-1.905929023175384
6.232033327723956,0.7596282100608776,6.318794553976142,3.1179162157731053,2.2252141926975084,-2.615742636138945
6.239629609824565,0.7818803519878527,6.3499737161338725,3.091758789411716,2.5916052172900956,-3.297204281241609
6.2474484133444435,0.8077964041607536,6.3808913040279895,3.0587867465992997,2.9268405714937242,-3.943634058908324
6.255526377386051,0.8370648098756909,6.4114791714939825,3.0193504060102163,3.226322303906124,-4.5498315470484005
6.263897025484808,0.8693280329147521,6.441672675554084,2.973852090539732,3.486773015430074,-5.112145918723152
6.272590305813956,0.9041957630690529,6.471411196459481,2.9227306313525006,3.706220019843496,-5.628430079693653
6.281632263444646,0.9412579632674879,6.500638502773007,2.866446330555564,3.8839013352212715,-6.097900943951956
6.29104484307732,0.9800969766197006,6.529302966078562,2.8054673211160446,4.020115299152856,-6.520934886459474
6.300845812843518,1.0202981296112292,6.557357639289723,2.7402579722514497,4.116037102943347,-6.898828710162928
6.31104879413963,1.0614585006406627,6.584760219012238,2.6712696851498205,4.173523558197205,-7.233553286357292
6.321663379146036,1.1031937362226347,6.611472915863736,2.5989341522862475,4.194923207666115,-7.527521095247775
6.3326953165082625,1.145142968299296,6.6374622573865985,2.52365894133377,4.182903770945201,-7.783381936346636
6.344146746191256,1.1869720060087479,6.662698846799936,2.4458251219703033,4.140303918656664,-8.00385445470498
6.356016466251344,1.2283750451953146,6.687157098019639,2.3657865774232536,4.070012160426292,-8.191595675766976
6.368300216703297,1.2690751667995774,6.710814963793871,2.2838706206655837,3.9748725080213165,-8.349106802401925
6.380990968371292,1.3088238918797905,6.733653670000527,2.2003795526415644,3.857614550958562,-8.478671079507015
6.3940792072900905,1.3474000373893762,6.7556574655269435,2.115592841846494,3.7208045031946426,-8.582318336704057
6.407553207663984,1.3846080824213227,6.7768133939454085,2.0297696584794536,3.5668134184936613,-8.661810555149259
6.421399288488197,1.4202762166062592,6.797111090530203,1.943151552927961,3.3977988958387284,-8.718643150995566
6.43560205065426,1.4542542055646466,6.816542606059483,1.8559651214180053,3.2156970049107954,-8.754057357852968
6.450144592709906,1.4864111756137546,6.835102257273663,1.7684245478394756,3.022221703217027,-8.769059924472138
6.465008704466044,1.5166333926459248,6.852786502752058,1.6807339485947541,2.818869586884509,-8.764447188752959
6.480175038392503,1.5448220885147699,6.869593842238006,1.5930894767072246,2.606928352784127,-8.740831366255835
6.495623259277651,1.5708913720426112,6.885524737005078,1.5056811630446663,2.3874878170893035,-8.69866756160077
6.5113321729980775,1.5947662502135043,6.900581548635524,1.4186944874286587,2.1614527216686574,-8.638280561634938
6.527279835500212,1.6163807774301908,6.914768493509811,1.3323116818123093,1.9295568643972159,-8.559890902609935
6.543443643274514,1.635676346074163,6.928091610327934,1.24671277278621,1.6923783186294674,-8.463640030026006
6.559800406735256,1.6526001292604577,6.940558738055796,1.16207637248595,1.45035566931904,-8.34961460193914
6.576326408027861,1.667103685953648,6.952179501780655,1.0785802264665585,1.2038052972563578,-8.21787013648917
6.592997444887398,1.6791417389262118,6.962965304045321,0.9964015251016668,0.9529397960335788,-8.068454282231958
6.60978886227666,1.6886711368865475,6.9729293192963375,0.9157169822793472,0.6978876142965917,-7.901430003095413
6.626675573645525,1.6956500130295133,6.982086489119131,0.8367026822483931,0.4387139826426822,-7.71689892383135
6.64363207377582,1.7000371528559401,6.990453515941614,0.7595336930100796,0.17544311311848376,-7.515024980825517
6.66063244530438,1.701791583987125,6.998048852871715,0.6843834432018244,-0.09191844760174321,-7.296058371171206
6.677650361144251,1.7008723995111075,7.004892687303734,0.6114228594901123,-0.36335756901805977,-7.060359595640442
6.694659085139362,1.6972388238209268,7.011006915898635,0.5408192635337079,-0.6388298141571642,-6.808423157419212
6.7116314733775715,1.6908505256793551,7.016415108533972,0.4727350319595158,-0.9182348481451693,-6.54090022179282
6.728539978634365,1.6816681771979034,7.021142458853568,0.4073260297415876,-1.2013927687418928,-6.258619281943753
6.745356660406344,1.6696542495104845,7.025215719150983,0.34473983692215004,-1.4880223217089077,-5.962603638687926
6.762053202901448,1.6547740262933954,7.028663117520205,0.2851138005352708,-1.7777220998257486,-5.654084319143644
6.778600943164382,1.636996805295138,7.031514255525558,0.22857295734383437,-2.0699558989898583,-5.3345069663815075
6.794970911217334,1.6162972463052394,7.033799985098996,0.1752278876800193,-2.364043392822074,-5.0055312640367235
6.8111338836803865,1.5926568123770186,7.035552263975797,0.12517257503965207,-2.65915716695879,-4.6690216456947775
6.827060451804157,1.5660652407074307,7.036803989726193,0.07848235858270429,-2.954326912570079,-4.3270283950221575
6.842721104211232,1.53652197158173,7.037588813312021,0.035212074632482715,-3.2484512155731804,-3.9817587664140497
6.858086323927049,1.5040374594259982,7.037940934058345,-0.004605513031657786,-3.540316910309079,-3.635538420635757
6.873126698521308,1.4686342903229075,7.037894878928029,-0.040960897238015354,-3.82862542915441,-3.2907642231416743
6.887813041424537,1.4303480360313634,7.037485269955648,-0.07386853946943209,-4.112025024094735,-2.949850219447267
6.90211652178485,1.389227785790416,7.036746584560954,-0.10336704166390476,-4.389147225004089,-2.6151692927439028
6.916008799642754,1.345336313540375,7.035712914144315,-0.12951873459134378,-4.658645496676012,-2.2889935329369013
6.929462162778158,1.298749858573615,7.034417726798401,-0.15240866992071278,-4.919233818433083,-1.9734366261234522
6.942449661363894,1.2495575203892841,7.032893640099195,-0.17214303618194732,-5.169722873510915,-1.670401559972822
6.954945236567787,1.197860291654175,7.031172209737375,-0.18884705178167555,-5.40905171111479,-1.3815366227828587
6.966923839484329,1.143769774543027,7.029283739219558,-0.20266241800950413,-5.636313113595647,-1.1082020834523816
6.978361537229759,1.0874066434070706,7.027257115039463,-0.21374443884402794,-5.850771419546201,-0.8514491451087439
6.98923560366383,1.0288989292116086,7.025119670651023,-0.22225893029511537,-6.051872156927943,-0.6120118615131385
6.999524592955946,0.9683802076423292,7.022897081348072,-0.22837904891024677,-6.239243456980449,-0.3903117972827612
7.009208395032369,0.9059877730725248,7.020613290858969,-0.23228216688307438,-6.412689782023805,-0.18647439783610922
7.018268272763094,0.8418608752522867,7.018290469190138,-0.23414691086143546,-6.572178954759422,-0.00035538869122829763
7.026686881515617,0.7761390857046925,7.015949000081523,-0.23415046474834775,-6.7178237901143865,0.16842490814149766
7.034448272372663,0.7089608478035486,7.01360749543404,-0.23246621566693276,-6.849859792199231,0.3204416576805863
7.041537880850699,0.6404622498815563,7.01128283327737,-0.2292617990901269,-6.968620397880985,0.45642230657375443
7.047942503349515,0.5707760459027464,7.008990215286469,-0.22469757602438936,-7.074511149259016,0.5772022217177536
7.053650263808542,0.5000309344101563,7.006743239526226,-0.21892555380721182,-7.167983993134878,0.6836810056267419
7.058650573152644,0.42835109447880754,7.004553983988154,-0.2120887437509444,-7.249512671980733,0.7767809524402015
7.0629340840974315,0.3558559677590002,7.002433096550644,-0.20432093422654238,-7.319569920863996,0.8574087199287919
7.066492643775022,0.2826602685503602,7.000389887208378,-0.19574684702725445,-7.37860694518766,0.926420924309914
7.069319246460526,0.2088741990984836,6.998432418738106,-0.1864826377841553,-7.4270354442810165,0.9845940443665598
7.071407988451511,0.13460384465567343,6.996567592360265,-0.1766366973404897,-7.465212277491222,1.0325987660699056
7.0727540268980675,0.05995172188076121,6.99480122538686,-0.16631070967979064,-7.493426747441249,1.0709787154593873
7.073353544116875,-0.01498254559365128,6.993138118290062,-0.15560092252519678,-7.5118903992674735,1.100133415016123
7.073203718660938,-0.09010144958632602,6.991582109064811,-0.14459958837503556,-7.520729201033167,1.1203052508999105
7.072302704165075,-0.1653087415966577,6.990136113181061,-0.13339653586603645,-7.51997797302904,1.1315702456878125
7.070649616749109,-0.2405085213269481,6.9888021478224,-0.12208083340915832,-7.509576965096694,1.1338324825012829
7.068244531535839,-0.31560429097791504,6.987581339488309,-0.11074250858414549,-7.489370533802025,1.1268221098829216
7.06508848862606,-0.3904979963159353,6.986473914402468,-0.09947428748531627,-7.459107937506338,1.1100969606041327
7.061183508662901,-0.46508907569099867,6.985479171527614,-0.08837331787927494,-7.418446339336708,1.0830479297933313
7.056532617905991,-0.5392735390843657,6.984595438348822,-0.07754283858134162,-7.366956177714341,1.0449083660772538
