th1 (rad),w1 (rad/s),th2 (rad),w2 (rad/s),a1 (rad/s^2),a2 (rad/s^2)
1.1757622784524533,-1.1028663776775591,1.555565279364132,2.680762877643869,-5.193038206089934,-5.42682631912019
1.1647336146756777,-1.1547967597384585,1.5823729081405706,2.626494614452667,-4.943397700716629,-5.821730787926763
1.153185647078293,-1.2042307367456249,1.6086378542850972,2.5682773065733993,-4.731210216385363,-6.181947825493544
1.1411433397108368,-1.2515428389094785,1.6343206273508313,2.5064578283184638,-4.555384894328171,-6.509256492747781
1.1286279113217421,-1.29709668785276,1.659385205634016,2.441365263390986,-4.413936271642686,-6.806524089499902
1.1156569444432145,-1.341236050569187,1.6837988582679257,2.3733000224959873,-4.304246183520609,-7.077373021752853
1.1022445839375226,-1.384278512404393,1.7075318584928856,2.3025262922784586,-4.2233053769195745,-7.325871918866498
1.0884017988134786,-1.4265115661735888,1.73055712141567,2.2292675730897935,-4.167918432024521,-7.556272548523703
1.0741366831517427,-1.468190750493834,1.752849797146568,2.1537048476045566,-4.134864779128535,-7.772801946364421
1.0594547756468045,-1.5095393982851195,1.7743868456226135,2.0759768281409126,-4.12101557012392,-7.9795099912998255
1.0443593816639534,-1.5507495539863587,1.7951466139040226,1.9961817282279144,-4.123410646367579,-8.180166774782325
1.0288518861240898,-1.5919836604500346,1.8151084311863017,1.9143800604800911,-4.139302142057914,-8.378201123827305
1.0129320495195895,-1.6333766818706137,1.8342522317911025,1.8305980492418181,-4.166171931323677,-8.576670798506672
0.9965982827008834,-1.6750384011838504,1.8525582122835207,1.7448313412567513,-4.201729751416362,-8.778255417931408
0.9798478986890449,-1.717055698698014,1.8700065256960883,1.6570487870774373,-4.243897901799859,-8.985264427575588
0.9626773417020648,-1.7594946777160128,1.8865770135668627,1.5671961428016814,-4.2907872808672085,-9.199653942638175
0.9450823949249046,-1.8024025505246848,1.9022489749948794,1.4751996033752997,-4.340668399617187,-9.423047798774183
0.9270583694196578,-1.8458092345208568,1.9170009710286324,1.3809691253875578,-4.3919400235607515,-9.6567594611252
0.9086002770744492,-1.8897286347564644,1.930810662282508,1.2844015307763057,-4.443097288447781,-9.90181252668278
0.8897029907268846,-1.9341596076409422,1.9436546775902712,1.1853834055094778,-4.492700517016584,-10.158958401676934
0.8703613946504752,-1.979086612811108,1.955508511645366,1.0837938214927085,-4.539345514948522,-10.428690372361395
0.8505705285223641,-2.024480067960593,1.9663464498602932,0.9795069177690946,-4.58163581717115,-10.711253753400955
0.8303257278427583,-2.070296426132305,1.976141519037984,0.8723943802350851,-4.618157161621712,-11.0066521334262
0.8096227635814353,-2.116477997748522,1.9848654628403348,0.7623278589008231,-4.6474543600359315,-11.31464997846094
0.78845798360395,-2.1629525413488815,1.992488741429343,0.6491813591162137,-4.668010691796622,-11.634772030783354
0.7668284581904612,-2.209632648266848,1.9989805550205053,0.5328336388083801,-4.678229949155065,-11.966300076561934
0.7447321317077927,-2.2564149477583983,2.004308891408589,0.4131706380427608,-4.676421295774897,-12.308267767248845
0.7221679822302087,-2.303179160716147,2.0084405977890167,0.2900879603702723,-4.660787154060567,-12.65945427867434
0.6991361906230472,-2.349787032256753,2.0113414773927194,0.1634934175835289,-4.629414400770346,-13.018377684870249
0.6756383203004797,-2.3960811762644565,2.012976411568555,0.033309640734826396,-4.580269217006272,-13.38328901374476
0.6516775085378351,-2.441883868434519,2.013309507975903,-0.1005232494026212,-4.511196000612494,-13.752168038414052
0.6272586698534899,-2.4869958284406444,2.0123042754818767,-0.23804492978676173,-4.419920799404419,-14.122721938045032
0.6023887115690835,-2.5311950364346885,2.0099238261840093,-0.3792721491672121,-4.304059755628952,-14.492388029897437
0.5770767612047366,-2.5742356339909778,2.0061311046923374,-0.5241960294661865,-4.161133058676761,-14.858341822375824
0.5513344048648269,-2.6158469645777456,2.0008891443976755,-0.6727794476899447,-3.9885848773581403,-15.217511658386572
0.5251759352190494,-2.655732813351327,1.994161349920776,-0.8249545642738104,-3.783809678222375,-15.566601199363099
0.4986186070855361,-2.693570910133551,1.985911804278038,-0.9806205762674414,-3.544185226182389,-15.902120933028177
0.4716828979842006,-2.729012762395375,1.9761055985153635,-1.1396417855977232,-3.2671124028279084,-16.22042976299396
0.4443927703602468,-2.7616838864236537,1.9647091806593862,-1.3018460832276628,-2.9500617625358414,-16.517787547870764
0.4167759314960103,-2.791184504049012,1.9516907198271096,-1.4670239587063705,-2.5906264752092407,-16.79041919633945
0.3888640864555202,-2.8170907688011044,1.937020480240046,-1.634928150669765,-2.1865809783125485,-17.034590590698592
0.3606931787675091,-2.83895657858423,1.9206711987333482,-1.8052740565767509,-1.735944284214765,-17.246696207014836
0.33230361298166683,-2.8563160214263776,1.9026184581675807,-1.9777410186468993,-1.237046469862413,-17.42335783240574
0.303740452767403,-2.868686486125002,1.8828410479811117,-2.1519745969709567,-0.6885964268000092,-17.561533261864433
0.27505358790615303,-2.875572450393002,1.8613213020114021,-2.327589929589601,-0.08974848731516902,-17.658633306920834
0.246297863402223,-2.8764699352661536,1.8380454027155062,-2.5041762626588095,0.5598349115684591,-17.712644890888182
0.21753316404956147,-2.870871586150469,1.813003640088918,-2.6813027115676915,1.259927784284258,-17.722257471143127
0.18882444818805677,-2.858272308307626,1.786190612973241,-2.858525286279123,2.0096959859822663,-17.686989554567464
0.1602417251049805,-2.838175348447803,1.7576053601104498,-3.0353951818247973,2.807667303120169,-17.607311700463935
0.13185997162050248,-2.8100986754166013,1.7272514082922017,-3.2114682988294367,3.6517202322537945,-17.484762183568805
0.10375898486633646,-2.7735814730940636,1.6951367253039074,-3.3863159206651248,4.539095377697247,-17.322051469483245
0.07602317013539582,-2.7281905193170912,1.6612735660972562,-3.5595364353599575,5.466433132199784,-17.12315188814386
0.04874126494222491,-2.6735261879950936,1.6256782017436566,-3.730767954241396,6.4298407993294715,-16.893369426579934
0.022006003062273974,-2.609227780001799,1.5883705222012428,-3.8997016485071954,7.424991555531265,-16.63939543883761
-0.004086274737744016,-2.5349778644464864,1.5493735057161708,-4.0660956028955715,8.447256635270136,-16.36933730831948
-0.02943605338220888,-2.450505298093785,1.5087125496872151,-4.229788975978766,9.491870877517066,-16.092728685569035
-0.05394110636314673,-2.355586589318614,1.4664146599274275,-4.390716262834457,10.554130341338242,-15.820521809282779
-0.07749697225633287,-2.2500452859052316,1.422507497299083,-4.548921480927285,11.629619142807186,-15.56506648837516
-0.09999742511538519,-2.1337490944771598,1.37701828248981,-4.704572145811036,12.714461041783055,-15.34008238966444
-0.12133491606015678,-2.0066044840593293,1.3299725610316997,-4.8579729697076806,13.805589633154357,-15.1606330468522
-0.14140096090075008,-1.8685485877277856,1.2813928313346228,-5.009579300176203,14.9010291907179,-15.043111040135962
-0.16008644677802794,-1.7195382958206067,1.2312970383328607,-5.160010410577562,16.00017599083768,-15.005243414815723
-0.17728182973623402,-1.55953653591223,1.179696934227085,-5.310062844725719,17.104066662956033,-15.066123533057945
-0.1928771950953563,-1.3884958692826697,1.1265963057798278,-5.460724080056298,18.21561449847528,-15.246268388079708
-0.206762153788183,-1.2063397242979168,1.071989064979265,-5.613186763937096,19.339784330072657,-15.56768584184541
-0.21882555103116216,-1.0129418809971902,1.015857197339894,-5.76886362235555,20.483657307248265,-16.053908749605394
-0.22895496984113406,-0.8081053079247076,0.9581685611163385,-5.929402709851604,21.656301069442353,-16.729902577124335
-0.23703602292038115,-0.5915422972302841,0.8988745340178225,-6.0967017356228475,22.868295099776052,-17.621662032847226
-0.242951445892684,-0.3628593462325235,0.837907516661594,-6.27291835595132,24.130642075520786,-18.755148552619836
-0.24658003935500925,-0.12155292547731567,0.7751783331020808,-6.460469841477519,25.45258374027861,-20.153928496711043
-0.2477955686097824,0.13297291192547045,0.7105736346873056,-6.662009126444629,26.837468251840317,-21.83435839326555
-0.24646583949052772,0.40134759444387363,0.6439535434228594,-6.880352710377284,28.275186242768232,-23.796285719011884
-0.24245236354608898,0.6840994568715559,0.5751500163190866,-7.118315567567403,29.72868948377839,-26.00581737745479
-0.23561136897737342,0.9813863517093399,0.5039668606434126,-7.37837374134195,31.110709743024657,-28.364695690937623
-0.22579750546028002,1.2924934491395863,0.4301831232299931,-7.662020698251327,32.245505039548796,-30.658844688813165
-0.21287257096888415,1.6149484995350742,0.3535629162474798,-7.9686091451394585,32.811527602135136,-32.47972847418663
-0.1967230859735334,1.9430637755564257,0.2738768247960852,-8.293406429881324,32.27111884863377,-33.12558780531356
-0.17729244821796916,2.2657749640427634,0.190942760497272,-8.624662307934459,29.82736133405887,-31.53573402109232
-0.15463469857754153,2.564048577383352,0.1046961374179274,-8.940019648145382,24.520939051852803,-26.411035952812924
-0.128994212803708,2.80925796790188,0.015295940936473573,-9.20413000767351,15.650340823353922,-16.772380995814444
-0.10090163312468921,2.9657613761354193,-0.07674535914026154,-9.371853817631655,3.5549652441898627,-3.0150133033946203
-0.07124401936333502,3.001311028577318,-0.17046389731657807,-9.4020039506656,-9.80718639708986,12.313713478431353
-0.04123090907756184,2.9032391646064197,-0.26448393682323407,-9.278866815881287,-21.517645008548303,25.41161967637549
-0.012198517431497646,2.6880627145209366,-0.35727260498204694,-9.024750619117532,-29.46521387683865,33.599715849854306
0.01468210971371172,2.39341057575255,-0.44752011117322227,-8.688753460618988,-33.39418100911192,36.685400246241485
0.03861621547123722,2.0594687656614306,-0.5344076457794121,-8.321899458156574,-34.33731740297932,36.14349452567809
0.05921090312785152,1.7160955916316374,-0.6176266403609779,-7.960464512899793,-33.55038404973377,33.67418172085302
0.0763718590441679,1.3805917511342995,-0.6972312854899758,-7.623722695691263,-31.95802443722111,30.48703374197588
0.0901777765555109,1.0610115067620884,-0.7734685124468884,-7.318852358271504,-30.096721055837403,27.255228766493243
0.10078789162313179,0.7600442962037144,-0.8466570360296034,-7.046300070606572,-28.232246704741765,24.290751506300584
0.10838833458516893,0.47772182915629674,-0.9171200367356691,-6.8033925555435655,-26.476324381125178,21.707211056421897
0.1131655528767319,0.21295858534504497,-0.9851539622911047,-6.586320444979346,-24.862372486118826,19.521978584082152
0.11529513873018235,-0.03566513951614328,-1.0510171667408983,-6.391100659138525,-23.387454288437464,17.71087579481136
0.11493848733502092,-0.26953968240051795,-1.1149281733322836,-6.213991901190411,-22.033734009772214,16.23496008276107
0.11224309051101573,-0.4898770224982401,-1.1770680923441876,-6.051642300362801,-20.778895674723287,15.05270652989907
0.10734432028603333,-0.697665979245473,-1.2375845153478156,-5.90111523506381,-19.600946656351546,14.125011751682726
0.10036766049357859,-0.8936754458089885,-1.2965956676984536,-5.759865117546983,-18.48025843425334,13.41683449989928
0.0914309060354887,-1.078478030151522,-1.3541943188739234,-5.6256967725479905,-17.40028507771852,12.897351780043913
0.08064612573397348,-1.2524808809287071,-1.4104512865994032,-5.496723254747551,-16.347669740702607,12.539529585175623
0.06812131692468641,-1.4159575783357332,-1.4654185191468787,-5.371327958895795,-15.312082247295407,12.319525407375666
0.05396174114132908,-1.5690784008086873,-1.5191317987358366,-5.248132704822038,-14.285949074702007,12.216106405471395
0.0382709571332422,-1.7119378915557073,-1.5716131257840569,-5.125971640767324,-13.26414840157934,12.210155712878564
0.02115157821768513,-1.8445793755715008,-1.6228728421917302,-5.003870083638539,-12.243700708286449,12.284287121177229
0.0027057844619701246,-1.9670163826543652,-1.6729115430281156,-4.881027212426766,-11.223466288840955,12.422564624703138
-0.01696437936457353,-2.0792510455427746,-1.7217218151523832,-4.756801566179735,-10.203853210829404,12.610313206318002
-0.03775688982000128,-2.181289577651069,-1.7692898308141807,-4.630698434116555,-9.186536800579656,12.834003646807115
-0.059569785596511965,-2.273154945656865,-1.8155968151553463,-4.502358397648484,-8.17419161431061,13.081193657861679
-0.08230133505308061,-2.354896861799971,-1.860620399131831,-4.371546461069867,-7.170237544112425,13.340508677500601
-0.10585030367108032,-2.426599237241095,-1.9043358637425298,-4.2381413742948615,-6.178602437501747,13.601647476490841
-0.1301162960434913,-2.488385261616113,-1.9467172774854784,-4.102124899529953,-5.203504036010407,13.855399932698708
-0.15500014865965242,-2.540420301976217,-1.9877385264807779,-3.9635709002029653,-4.249254050130426,14.093666723806928
-0.1804043516794146,-2.5829128424775214,-2.0273742354828075,-3.822634232964896,-3.3200868047229553,14.309473115943172
-0.20623348010418982,-2.616113710524751,-2.0656005778124564,-3.6795395018054644,-2.4200142005404213,14.49697136162257
-0.23239461720943733,-2.6403138525301553,-2.1023959728305113,-3.5345697881892386,-1.5527078633193474,14.651428359913403
-0.2587977557347389,-2.6558409311633486,-2.1377416707124035,-3.3880555045901044,-0.7214084134789772,14.769197093413181
-0.2853561650463724,-2.6630550152981383,-2.1716222257583047,-3.2403635336559726,0.07113910793385285,14.847671887817704
-0.3119867151993538,-2.6623436242187997,-2.2040258610948644,-3.0918868147777956,0.8227253990515134,14.885228718921187
-0.3386101514415418,-2.6541163702282846,-2.2349447292426423,-2.943034527588584,1.5316949939782216,14.881152626051499
-0.3651513151438246,-2.6387994202885023,-2.264375074518528,-2.794223001328069,2.196945068387171,14.835554810673852
-0.3915393093467096,-2.6168299696046304,-2.292317304531809,-2.64586745322133,2.817907960665261,14.749282250086107
-0.4177076090427559,-2.588650889997978,-2.3187759790640223,-2.4983746307204693,3.3945204840085776,14.623822692030473
-0.4435941179427357,-2.554705685157892,-2.343759725371227,-2.3521364038001646,3.927183036100297,14.461207770261842
-0.4691411747943146,-2.515433854796889,-2.3672810894092287,-2.207524326097546,4.41671133907071,14.263916742507936
-0.4942955133422835,-2.471266741406182,-2.389356332670204,-2.0648851586724666,4.8642833946220545,14.03478304205638
-0.5190081807563454,-2.4226239074599616,-2.410005184256929,-1.9245373282519027,5.271383945043662,13.77690548503169
-0.543234419830945,-2.369910068009525,-2.4292505575394476,-1.7867682734015857,5.63974841292304,13.493565611785119
-0.5669335205110403,-2.3135125838802946,-2.4471182402734635,-1.6518326172837345,5.971307968162503,13.188152280408696
-0.5900686463498432,-2.2537995041986694,-2.4636365664463007,-1.5199510944796475,6.268137053390219,12.864094285692257
-0.61260664139183,-2.191118133664767,-2.4788360773910973,-1.3913101516227249,6.532404397276893,12.524801456639555
-0.6345178227284777,-2.1257940896919982,-2.4927491789073244,-1.2660621370563292,6.766328266087305,12.173614396145242
-0.6557757636253977,-2.0581308070311253,-2.5054098002778877,-1.1443259930948768,6.972136451372519,11.813762771980915
-0.6763570716957089,-1.9884094425174001,-2.5168530602088364,-1.0261883653750676,7.152031268834615,11.448331851777493
-0.6962411661208829,-1.916889129829054,-2.527114943862587,-0.9117050468572927,7.308159651621344,11.080236797855731
-0.7154100574191735,-1.8438075333128405,-2.53623199433116,-0.8009026788787353,7.442588261127987,10.712204100896452
-0.7338481327523019,-1.7693816507015607,-2.5442410211199475,-0.6937806378697708,7.5572834093503705,10.346759433620734
-0.7515419492593175,-1.693808816608057,-2.5511788274986453,-0.5903130435335635,7.654095487644596,9.986221144698034
-0.768480037425398,-1.617267861731611,-2.557081957933981,-0.4904508320865832,7.734747525350307,9.632698585747109
-0.7846527160427141,-1.539920386478108,-2.561986466254847,-0.3941238462291121,7.800827455450893,9.288094466390369
-0.8000519199074952,-1.461912111923599,-2.565927704717138,-0.30124290156520844,7.853783640143465,8.954110459114577
-0.8146710410267313,-1.3833742755221643,-2.5689401337327897,-0.21170179697406266,7.894923203466238,8.632255322130616
-0.8285047837819529,-1.304425043487502,-2.5710571517025302,-0.1253792437527565,7.925412727481371,8.323854869461147
-0.8415490342168279,-1.2251709162126883,-2.572310944140058,-0.04214069505814502,7.946280889517536,8.030063188325531
-0.8538007433789548,-1.1457081073175128,-2.5727323510906395,0.03815993682511029,7.958422647440327,7.751874580203834
-0.86525782445213,-1.0661238808431095,-2.5723507517223885,0.11567868262714863,7.962604614973811,7.490135780012794
-0.875919063260561,-0.9864978346933714,-2.571193964896117,0.19058004042727658,7.959471307278401,7.245558084554985
-0.8857840416074947,-0.9069031216205874,-2.569288164491844,0.2630356212728264,7.949551976270088,7.018729094435445
-0.8948530728237005,-0.8274076018578865,-2.566657808279116,0.33322291221718087,7.9332677939541,6.810123841264727
-0.9031271488422794,-0.7480749239183455,-2.563325579156944,0.4013241506298281,7.910939179167614,6.620115133068461
-0.9106078980814628,-0.6689655321266694,-2.559312337650646,0.46752530196051273,7.882793097781705,6.448983004800977
-0.9172975534027294,-0.5901376011488524,-2.554637084631041,0.5320151320085225,7.848970198124374,6.296923207538325
-0.923198929414218,-0.5116478991676087,-2.5493169333109558,0.5949843640839058,7.8095316719425245,6.164054709461198
-0.9283154084058941,-0.4335525824481834,-2.5433670896701166,0.6566249111785177,7.764465756615146,6.050426214533421
-0.9326509342303759,-0.35590792488203193,-2.5368008405583313,0.717129173323852,7.713693816710802,5.956021731412356
-0.9362100134791963,-0.2787709867149239,-2.529629548825093,0.7766893906379755,7.657075962600044,5.880765246274781
-0.9389977233463456,-0.20220022708892343,-2.521862654918713,0.8354970431007233,7.594416180999663,5.8245245696437955
-0.9410197256172348,-0.1262560652789268,-2.513507684487706,0.8937422887971612,7.525466967378201,5.787114439712519
-0.9422822862700241,-0.051001395605144786,-2.504570261599734,0.9516134331942864,7.449933463425952,5.768298973818527
-0.9427923002260755,0.023497939029114734,-2.495054127267791,1.0092964229324717,7.367477114598882,5.767793566333748
-0.9425573208357844,0.09717271017510357,-2.4849611630384665,1.0669743585958091,7.277718873355257,5.785266335952476
-0.9415855937340333,0.16994989890865614,-2.4742914194525083,1.1248270219553338,7.1802419833356765,5.820339228779956
-0.9398860947449467,0.24175231874201292,-2.4630431492329548,1.1830304142431334,7.0745943885523195,5.8725888862733315
-0.9374685715575265,0.3124982626275361,-2.4512128450905233,1.2417563031058667,6.960290819748655,5.941547389422268
-0.9343435889312511,0.38210117082502265,-2.4387952820594645,1.3011717770000895,6.836814617498834,6.026702992958685
-0.9305225772230009,0.45046931700001097,-2.4257835642894636,1.3614388069296763,6.7036193583024595,6.127500966155828
-0.9260178840530008,0.5175055105830355,-2.412169176220167,1.4227138165912345,6.560130355796798,6.243344660135142
-0.9208428289471704,0.5831068141410035,-2.3979420380542544,1.485147263192586,6.405746114093164,6.373596925676481
-0.9150117608057604,0.6471642752819351,-2.3830905654223287,1.5488832324493507,6.239839813925944,6.517582010363485
-0.9085401180529411,0.7095626734211945,-2.367601733097835,1.6140590525529854,6.061760914505075,6.674588069434492
-0.9014444913187292,0.7701802825662453,-2.351461142572305,1.6808049332473303,5.870836954360605,6.8438704307929825
-0.8937426884930667,0.8288886521098513,-2.3346530932398317,1.74924363755526,5.66637563269687,7.0246557609973115
-0.8854538019719682,0.88555240843682,-2.3171606568642793,1.8194901951652331,5.447667248442354,7.216147285327216
-0.8765982778876,0.9400290809212436,-2.298965754912627,1.8916516680185054,5.213987566890453,7.4175312207343005
