th1 (rad),w1 (rad/s),th2 (rad),w2 (rad/s)
5.290579706331089,1.1584924874853233,4.283885888517744,-0.02208899563522818
5.302164631205942,1.2229057785520312,4.283664998561392,0.04395335592842815
5.314393688991462,1.286353282036061,4.284104532120676,0.11252822025027605
5.327257221811823,1.3487436958976888,4.285229814323179,0.1837607552508656
5.3407446587708,1.4099816496457906,4.287067421875688,0.25776905404077
5.3548444752672575,1.4699669296770974,4.289645112416095,0.33466350156489066
5.369544144564029,1.5285936713780375,4.292991747431744,0.4145461066383467
5.384830081277809,1.5857495266384793,4.297137208498127,0.49750981055387467
5.400687576544194,1.641314817033348,4.302112306603666,0.5836377753447067
5.417100724714528,1.6951616845912278,4.307948684357113,0.673002657127578
5.43405234156044,1.7471532537693912,4.314678710928389,0.7656658727360587
5.451523874098133,1.797142819963551,4.322335369655749,0.8616768710791114
5.469495302297769,1.8449730815573433,4.33095213836654,0.9610724243015056
5.487945033113343,1.8904754341059276,4.340562862609556,1.0638759578402384
5.506849787454402,1.9334693466783068,4.351201622187958,1.1700969428014276
5.526184480921185,1.9737618415639053,4.362902591615972,1.279730378637987
5.545922099336824,2.011147099371623,4.375699895402352,1.3927563987761067
5.56603357033054,2.0454062118867826,4.3896274593901135,1.5091400364767595
5.586487632449408,2.076307104759935,4.404718859754881,1.6288311926576506
5.607250703497008,2.1036046510268562,4.421007171681458,1.7517648514449093
5.628286750007276,2.12704099444224,4.438524820195907,1.8778615926521072
5.649557159951699,2.146346098497422,4.4573034361224275,2.0070284529577114
5.671020620936673,2.161238532651136,4.477373720652005,2.1391601890197833
5.6926330062631845,2.17142650163504,4.498765322542202,2.2741409958743843
5.714347271279535,2.176609116664871,4.521506732500947,2.411846732463869
5.736113362446184,2.1764778990421116,4.545625199825586,2.552147702800031
5.7578781414366045,2.170718497137334,4.571146676853586,2.694912035871466
5.779585326407978,2.1590125874311954,4.5980957972123,2.840009699756856
5.80117545228229,2.141039919686293,4.626495894209869,2.987317175305081
5.822585851479152,2.116480456236903,4.65636906596292,3.1367228019396944
5.8437506560415216,2.0850165469708037,4.687736293982317,3.288132792255267
5.86460082151123,2.046335076462577,4.72061762190487,3.4414778924282197
5.885064172275856,2.0001295201613756,4.755032400829152,3.596720640864922
5.90506546747747,1.9461018556880438,4.790999607237802,3.7538631458285785
5.92452648603435,1.88396429758859,4.828538238696088,3.9129552603520246
5.9433661290102355,1.8134408656505365,4.867667791299608,4.074102973381738
5.9615005376667405,1.7342688672981226,4.908408821033426,4.237476749662713
5.9788432263397215,1.646200487171873,4.950783588530053,4.403319421003558
5.99530523121144,1.549004851936564,4.994816782740088,4.571953032289909
6.0107952797308055,1.4424712058993499,5.040536313062987,4.743783736311017
6.025219991789799,1.326414238490994,5.087974150426097,4.919303349472331
6.038484134174708,1.2006832153499511,5.137167183920821,5.099085430877774
6.050490966328208,1.0651774783066068,5.188158038229599,5.283772589963763
6.061142741111274,0.9198722317944786,5.240995764129236,5.474049964404149
6.0703414634292185,0.7648604978804454,5.295736263773278,5.670597179559489
6.077990068408023,0.6004198832244814,5.352442235568873,5.874007310933381
6.083994267240268,0.42711645112220353,5.411182308678207,6.084656226602608
6.0882654317514895,0.2459622532057073,5.472028870944233,6.302499454294133
6.0907250542835465,0.0586466539175762,5.535053865487175,6.526767998613466
6.091311520822722,-0.13213915357437464,5.600321545473309,6.75553406653287
6.089990129286978,-0.3222782716158885,5.667876886138638,6.985133403969634
6.086767346570819,-0.5057395798076206,5.737728220178334,7.20948356973092
6.081709950772743,-0.6741485758455976,5.809823055875643,7.419455801708583
6.074968465014288,-0.8166890578796393,5.88401761389273,7.602657056209979
6.066801574435491,-0.9207632197067698,5.960044184454829,7.744193325696696
6.057593942238423,-0.9738239479166669,6.037486117711796,7.828974920359165
6.047855702759256,-0.9663317866985661,6.115775866915388,7.845511938398731
6.0381923848922705,-0.8948465405229244,6.194230986299375,7.789887365534157
6.029243919487041,-0.7635447815320873,6.272129859954716,7.667642452280166
6.021608471671721,-0.5830377091883947,6.348806284477518,7.492114902141835
6.0157780945798365,-0.36713055996059274,6.423727433498936,7.280143594262125
6.012106788980231,-0.12939867229329674,6.4965288694415575,7.0476583026116515
6.0108128022572975,0.11896191689701288,6.567005452467674,6.8070456293923245
6.012002421426268,0.3697796394587043,6.635075908761597,6.566516151246727
6.015700217820855,0.6175926102801513,6.700741070274065,6.330694132825774
6.021876143923657,0.8589825811599101,6.7640480116023225,6.101608426418784
6.030465969735256,1.091920518438259,6.8250640958665105,5.879616221993692
6.041385174919639,1.3152584583718236,6.883860258086448,5.664100873871438
6.054537759503357,1.5283797275573068,6.940501266825162,5.453943880619016
6.06982155677893,1.7309757748794725,6.995040705631352,5.247823151401758
6.087131314527724,1.9229119368816012,7.0475189371453695,5.044392590099814
6.1063604338965405,2.1041514184097414,7.097962863046368,4.842385615889365
6.127401948080638,2.274715671025841,7.146386719205261,4.640671665763925
6.150149104790897,2.4346666612981425,7.1927934358629,4.438284173713728
6.174495771403878,2.5841017010627114,7.237176277600038,4.234431329892749
6.200336788414505,2.7231549457247737,7.279520590898965,4.028496346715541
6.2275683378717535,2.8520018751003304,7.319805554366121,3.8200311714962103
6.256088356622757,2.970864478881972,7.358005866081083,3.608745946929331
6.285797001411577,3.0800157713636835,7.394093325550376,3.394495593699804
6.316597159125214,3.179782848516677,7.428038281487374,3.1772643909488116
6.348394987610381,3.270548092636703,7.459810925396862,2.957149182371258
6.381100468536748,3.3527483958864903,7.4893824172205745,2.7343417281099054
6.414627952495613,3.4268724549905145,7.516725834501673,2.5091106877799407
6.448896677045519,3.4934563083218872,7.541816941379473,2.2817837174305233
6.483831240128738,3.553077356683818,7.564634778553778,2.052730170091619
6.519362013695575,3.6063471376147698,7.585162080254694,1.8223448945539458
6.555425485071723,3.6539031144090437,7.603385529200233,1.5910336270985084
6.591964516215813,3.69639969800028,7.619295865471218,1.3592004687424954
6.628928513195816,3.734498644153861,7.632887870158643,1.1272379431191513
6.666273499637354,3.768858860941373,7.644160249589834,0.8955201472801548
6.703962088246768,3.80012552220785,7.653115451062636,0.6643995513526001
6.741963343468846,3.8289182108461888,7.659759446576162,0.4342080856700403
6.780252525577309,3.8558176101010924,7.664101527432862,0.20526328720115583
6.81881070167832,3.881350022338072,7.666154160304874,-0.022119532034338613
6.857624201901701,3.905968728794239,7.66593296498453,-0.247607886584297
6.896683889189643,3.930030930296854,7.663456886118687,-0.4708240063692657
6.935984198492612,3.9537687750682156,7.6587486460549945,-0.6913062917081134
6.975521886243294,3.9772528844742934,7.651835583137913,-0.9084585531076318
7.015294415088038,4.000347017760048,7.642750997606837,-1.1214856368503214
7.055297885265638,4.022653393883788,7.631536141238334,-1.3293153167603777
7.095524419204476,4.043450209316022,7.61824298807073,-1.530509205903357
7.135958921297636,4.061626711361259,7.602937896011696,-1.7231708236532788
7.176575188411249,4.075627436712437,7.585706187775163,-1.9048677078110443
7.217331462778374,4.083425960457978,7.566657510697052,-2.0725966277230397
7.258165722382953,4.082558110061463,7.545931544419822,-2.222834206543319
7.298991303483568,4.070250312140385,7.523703202354389,-2.351722821092377
7.339693806604972,4.043671905529561,7.500185974143465,-2.455431307581657
7.380130525660268,4.000311066390128,7.4756316610676485,-2.5306880376972787
7.420133636324169,3.9384203597999288,7.450324780690676,-2.5754076801717036
7.459517839922168,3.857417698041245,7.424570703888959,-2.589248034274025
7.49809201690258,3.7581012528441162,7.398678223546218,-2.573895963522902
7.535673029431021,3.6425796387238645,7.37293926391099,-2.5329438277654304
7.5720988258182595,3.5139254082942983,7.347609825633335,-2.4713706837831677
7.607238079901203,3.3756701486129157,7.322896118795503,-2.394799571411049
7.640994781387332,3.231304360866118,7.298948123081392,-2.308765502018367
7.673307824995993,3.0839074659493675,7.275860468061209,-2.2181739259033417
7.704146899655487,2.935953605941856,7.253678728802176,-2.1270150191924637
7.733506435714905,2.7892707823794027,7.232408578610251,-2.038301310211061
7.761399143538699,2.6450996943955953,7.2120255655081404,-1.954151261948789
7.7878501404826554,2.5041992377668727,7.192484052888653,-1.875942097558649
7.812892132860324,2.3669611311374865,7.173724631913067,-1.8044773116145165
7.836561744171699,2.233513134264355,7.155679858796922,-1.7401387354498405
7.8588968755143425,2.103802847042882,7.1382784714424234,-1.683011117352174
7.879934903984771,1.9776613494002109,7.121448360268902,-1.6329777641722931
7.8997115174787735,1.854849290529978,7.1051185826271785,-1.5897907365132085
7.918260010384073,1.7350890528995626,7.089220675262046,-1.5531206597500662
7.935610900913069,1.618086483888291,7.073689468664545,-1.5225911006867836
7.951791765751952,1.50354511197021,7.058463557657677,-1.497801682948948
7.966827216871653,1.3911751046450398,7.043485540828188,-1.4783431965450455
7.9807389679181036,1.2806986353714718,7.0287021088627375,-1.4638071254636762
7.993545954271818,1.1718528535277466,7.014064037608101,-1.4537913443575783
8.005264482807096,1.0643912938788915,6.999526124164525,-1.447903223507264
8.015908395745885,0.9580843016127589,6.985047091929452,-1.4457610061587025
8.025489238762013,0.8527188638053858,6.970589481867865,-1.446994054052991
8.034016427400067,0.7480981085805479,6.956119541327335,-1.4512423682581952
8.041497408485872,0.6440406435661097,6.941607117644753,-1.4581556612743716
8.047937814921534,0.5403798437199674,6.927025561032009,-1.4673921661247866
8.053341613358734,0.4369631566234219,6.912351639370761,-1.478617306564063
8.057711244924969,0.33365146482166214,6.89756546630512,-1.49150231089873
8.061047759573185,0.2303185254567412,6.882650443196133,-1.505722824073063
8.063350944827752,0.12685049432298123,6.867593214955402,-1.5209575543217635
8.064619449770982,0.023145532535107732,6.852383639412184,-1.5368869788391495
8.064850905096334,-0.08088651216408503,6.837014769623793,-1.5531921254846488
8.064042039974693,-0.18532436177030845,6.821482848368946,-1.569553443091677
8.06218879635699,-0.29023551753398713,6.80578731393803,-1.5856497704611472
8.05928644118165,-0.3956764405137226,6.789930816233419,-1.6011574128879975
8.055329676776513,-0.5016927229977197,6.773919242104538,-1.6157493345758351
8.050312749546535,-0.6083192722733608,6.75776174875878,-1.6290944751619103
8.044229556823801,-0.7155805296824107,6.741470804007161,-1.6408571985117686
8.037073751526977,-0.823490749212914,6.725062232022044,-1.650696881717307
8.028838844034848,-0.9320543610590536,6.708555263204871,-1.6582676516477948
8.019518300424258,-1.0412664466102153,6.691972586688393,-1.66321827528842
8.009105635958155,-1.1511133521745676,6.675340403935508,-1.6651922082984663
7.99759450243641,-1.2615734693532585,6.658688481852524,-1.663827803586525
7.984978767742877,-1.3726182103063695,6.642050203816659,-1.658758678099949
7.971252585639814,-1.4842132061400393,6.62546261703566,-1.6496142313405682
7.956410453578413,-1.5963197562530151,6.608966474722254,-1.6360203032476515
7.940447256015883,-1.7088965556833262,6.592606271689777,-1.6175999519567652
7.92335829045905,-1.8219017262881223,6.576430272170209,-1.5939743235084682
7.905139273196169,-1.9352951759991084,6.560490528935125,-1.5647635758477074
7.885786321436178,-2.049041308487013,6.544842893176647,-1.5295878084853105
7.865295908351308,-2.163112103447541,6.5295470150917945,-1.4880679371224173
7.843664787316833,-2.277490585536593,6.5146663357205705,-1.4398264395946871
7.820889881461467,-2.3921746979169107,6.500268071324624,-1.3844878860207308
7.796968134482298,-2.507181594628926,6.486423192464416,-1.3216791525366298
7.771896318536009,-2.622552364736896,6.47320640093905,-1.2510292051715135
7.74567079488864,-2.7383572005009538,6.460696108887335,-1.1721683292698653
7.71828722288363,-2.854701021538603,6.448974425594637,-1.0847266718396307
7.6897402126682435,-2.9717295664912995,6.438127158876241,-0.9883319614388223
7.660022917003331,-3.089635961765902,6.428243839261852,-0.8826062759603368
7.629126557385671,-3.208667770825806,6.419417776502248,-0.7671617480217052
7.597039879677413,-3.3291345123945044,6.411746159022031,-0.6415951387459156
7.5637485345534685,-3.45141560323459,6.405330207634572,-0.5054812867493343
7.529234378521123,-3.5759686161509894,6.400275394767078,-0.358365571854655
7.493474692359613,-3.703337621591504,6.396691739048531,-0.1997557583489302
7.456441316143698,-3.834161159785873,6.394694181465042,-0.02911396010857495
7.418099704545839,-3.9691789998539675,6.394403041863956,0.15414990154403985
7.378407914547299,-4.109236166758773,6.3959445408793965,0.3506807334935118
7.337315552879712,-4.255281565829718,6.399451348214331,0.5611728614533905
7.294762737221415,-4.40835659970242,6.405063076828865,0.786349599152186
7.250679171224391,-4.569565969868893,6.412926572820387,1.0269161942921863
7.204983511525702,-4.740017664650182,6.4231957347633095,1.2834671398413613
7.157583334879201,-4.920711000906539,6.4360304061617235,1.5563173365776342
7.108376224870136,-5.112339568262156,6.4515935795275,1.8452097539421066
7.057252829187514,-5.314960125652752,6.470045677066921,2.148830368915908
7.004103227930987,-5.527463072070007,6.4915339807560795,2.464040421534661
6.948828597210286,-5.746780436723801,6.516174384971426,2.7847386141279653
6.891360792843049,-5.966823358199782,6.544021771112705,3.100348895650869
6.831692559261051,-6.177330412094108,6.575025260069213,3.394203209818537
6.76991925514011,-6.363219311864451,6.6089672921673985,3.642677475657142
6.706287062021465,-6.505596017233031,6.64539406692397,3.8167384488538727
6.641231101849135,-6.585687216792806,6.683561451412508,3.8877115180233397
6.5753742296812066,-6.591467966065829,6.722438566592742,3.8369364113771653
6.509459550020548,-6.523605415530656,6.760807930706513,3.664464925061852
6.444223495865241,-6.395927002463554,6.797452579957132,3.389906191123183
6.380264225840606,-6.229511216978468,6.8313516418683635,3.0440465501597767
6.317969113670822,-6.044969239434636,6.861792107369961,2.657717451724168
6.257519421276475,-5.857713871436411,6.888369281887203,2.254813417956864
6.198942282562111,-5.677081949598573,6.910917416066772,1.8508071490895275
6.142171463066125,-5.507575803477625,6.929425487557667,1.4543586434028273
6.0870957050313494,-5.350537208019928,6.9439690739916955,1.0696201774622425
6.03359033295115,-5.205491900955563,6.954665275766318,0.698125856612004
5.981535413941595,-5.071033129684624,6.961646534332438,0.340051149322961
5.930825082644748,-4.945342959276731,6.965047045825667,-0.005035340842442393
5.881371653051981,-4.826479237052141,6.964996692417243,-0.3377556503301214
5.833106860681459,-4.712525072076918,6.961619135913941,-0.6587083159250332
5.78598160996069,-4.601662435782557,6.9550320527546905,-0.9683700573012672
5.739964985602865,-4.492205908997752,6.945348352181678,-1.2670619034984338
5.695042926512887,-4.382616598485778,6.9326777331466936,-1.5549503826011166
5.651216760528029,-4.271506889669258,6.917128229320682,-1.832067288813981
5.608501691631337,-4.157641418487125,6.898807556432542,-2.098338809780523
5.566925277446465,-4.0399367245138595,6.877824168334737,-2.3536187976806913
5.526525910201327,-3.917460466041239,6.85428798035793,-2.597723135499093
5.487351305540915,-3.7894302517198963,6.828310749002939,-2.8304633167049946
5.449457003023715,-3.655211746389,6.800006115835889,-3.051677993070133
5.412904885559826,-3.5143155594860715,6.769489335905188,-3.2612616136754724
5.3777617299649645,-3.3663924207523124,6.736876719768434,-3.459189521700209
5.344097805757442,-3.21122623025046,6.702284824551432,-3.645539069902116
5.311985543454937,-3.048724701037263,6.665829433852411,-3.820506497342511
5.281498296444564,-2.878907468262873,6.627624368878986,-3.984419492845209
5.252709221761935,-2.701891699760796,6.5877801739505335,-4.137745555805551
5.225690304764328,-2.5178753963338623,6.546402718392478,-4.281096445793113
5.200511550800989,-2.3271187043697155,6.503591753934546,-4.415229178491858
5.177240363757292,-2.129923672190592,6.459439462149628,-4.541044164578306
5.155941127035386,-1.9266129621055945,6.414029020503844,-4.659581186941678
5.13667499741433,-1.7175080855416958,6.367433208634427,-4.772013956044196
5.1194999165589135,-1.5029077692236696,6.319713069073985,-4.879643956746222
5.104470838866677,-1.283067106206331,6.270916629506523,-4.983894180608224
5.091640167804614,-1.0581782301488283,6.221077687700441,-5.086303092078386
5.081058385503125,-0.8283534276552555,6.170214656779657,-5.188518750005182
5.072774851226573,-0.5936119546084911,6.1183294692796055,-5.292292304392188
5.0668387316804875,-0.3538724772465766,6.065406546235684,-5.399468955019135
5.063300006908022,-0.10895421816319131,6.011411856685492,-5.511972633101849
5.06221046472639,0.1414081395348943,5.956292130354473,-5.631777731162246
5.063624546121739,0.3975274908516767,5.899974353042851,-5.760856518737955
5.067599821030256,0.6596918424328959,5.842365787855472,-5.901083540137626
5.074196739454584,0.9280351294165696,5.783354952454095,-6.054067239660551
5.08347709074875,1.2023193769061726,5.72281428005749,-6.220863684652296
5.0955002845178115,1.481583982132086,5.660605643210967,-6.40150928296478
5.110316124339132,1.7636107303650763,5.596590550381319,-6.594297756752574
5.127952231642783,2.0441703616989995,5.530647572813794,-6.794747672199659
5.148393935259773,2.3161004592811016,5.4627000960917975,-6.9943192337007964
5.171554939852585,2.568481599723381,5.3927569037547896,-7.179235938627614
5.197239755849818,2.786563869462632,5.320964544368514,-7.330299257212745
5.225105394544444,2.9534625073284815,5.247661551796386,-7.425099364213442
5.254640019617729,3.054338831327089,5.173410558154252,-7.4436247170975225
5.285183407931,3.0820583466671323,5.098974310983277,-7.375914625500272
5.316003991397672,3.0409808734555073,5.025215164728274,-7.2271933533916615
5.346413800132227,2.945694276541468,4.952943231194357,-7.0161497410482
5.375870742897642,2.815392504326298,4.882781733783875,-6.767359192582051
5.404024667940905,2.6679429131820824,4.815108141858055,-6.50337404894975
5.430704097072725,2.5167018993666646,4.750074401368557,-6.240589976093482
5.455871116066392,2.37014861411551,4.687668501607622,-5.988904346440319
5.479572602207547,2.232930356494688,4.627779458143219,-5.75321873263763
5.501901905772494,2.107152615659863,4.570247270816843,-5.535210067896905
5.522973431929092,1.99341107079385,4.514895170137874,-5.334714272376646
5.542907542637031,1.8914826298789684,4.461548027414107,-5.150631968024334
5.561822368935821,1.8007453448679134,4.410041707733864,-4.981463996109435
5.5798298223845,1.7204178087416417,4.36022706777277,-4.825605489832221
5.597034000471917,1.6496884463782295,4.311971012874447,-4.681495827941642
5.613530884935699,1.5877809738393978,4.265156054595031,-4.54768719431786
5.629408694674093,1.5339841400893628,4.219679182651852,-4.422869155166946
5.644748536074987,1.4876621219335389,4.175450491100182,-4.3058706043028625
5.659625157294323,1.4482548578109875,4.132391785057154,-4.195650900825329
5.674107705872433,1.4152734808024916,4.0904352760489004,-4.091286576092884
5.688260440680458,1.3882936560866184,4.049522410287971,-3.991956941791415
5.702143377241324,1.366948299876145,4.009602840870057,-3.8969302588101464
5.715812860240085,1.3509204150501806,3.9706335382819558,-3.8055512262340927
5.729322064390587,1.3399363687567158,3.932578026019615,-3.7172300784626655
