th1 (rad),w1 (rad/s),th2 (rad),w2 (rad/s)
5.445557539368682,1.8566134954632307,2.014482816949795,0.3928244595624158
5.464123674323314,1.9045301121068297,2.0184110615454194,0.34039647203591555
5.483168975444383,1.949379757669746,2.0218150262657786,0.2839808780416313
5.502662773021081,1.9910506081610104,2.024654835046195,0.2233939319018634
5.522573279102691,2.029452199030772,2.0268887743652133,0.15847788856368178
5.542867801092998,2.064519476336587,2.02847355325085,0.08910613005659694
5.563512995856364,2.096216748738051,2.029364614551416,0.015187981754964747
5.584475163343744,2.1245413840208056,2.029516494368966,-0.06332702519375233
5.605720577183952,2.149527082176358,2.0288832241170285,-0.1464457000808308
5.627215848005716,2.1712465545102204,2.0274187671162203,-0.23412879866162156
5.648928313550818,2.189813447014068,2.025077479129604,-0.3262899190107128
5.670826448020959,2.20538336780476,2.021814579939497,-0.42279587710778677
5.692880281699007,2.218153913205945,2.017586621168419,-0.5234686933524554
5.715061820831067,2.2283636340448285,2.0123519342348946,-0.6280892464528205
5.737345457171515,2.236289940448527,2.006071041770366,-0.7364025651223854
5.7597083565760006,2.24224600589339,1.9987070161191423,-0.8481246375494195
5.782130816634934,2.24657679441273,1.990225769743648,-0.9629505318380904
5.804596584579062,2.249654393084202,1.9805962644252673,-1.0805635461440528
5.827093128509904,2.2518728797667453,1.9697906289638267,-1.2006450528983172
5.849611857307571,2.2536429890716683,1.9577841784348435,-1.32288467334356
5.8721482871982875,2.255386854901506,1.944555331701408,-1.4469904198676746
5.894702155747303,2.2575331048105496,1.9300854275027313,-1.5726984743684873
5.917277486795408,2.26051256134496,1.9143584427590463,-1.6997823280161264
5.939882612408858,2.264754771759694,1.897360619478885,-1.828061085590914
5.962530160126454,2.2706855448503824,1.879080008622976,-1.9574068287185589
5.985237015574958,2.2787256275644006,1.8595059403357903,-2.0877510289689876
6.008024271850602,2.289290610037046,1.8386284300461004,-2.219090096743108
6.030917177950973,2.302792110561271,1.8164375290786694,-2.3514902395096073
6.053945099056586,2.3196402654788186,1.7929226266835734,-2.4850918797502746
6.077141501711374,2.3402475355014962,1.7680717078860706,-2.6201139476788273
6.100543977066389,2.365033840618235,1.7418705684092823,-2.7568584172232096
6.124194315472571,2.394433050346289,1.7143019842370502,-2.8957154982355378
6.148138645976034,2.4289008832912677,1.6853448292546949,-3.037169936461841
6.1724276548089465,2.468924307144751,1.6549731298900765,-3.1818089081169
6.197116897880394,2.515032572887083,1.6231550408089075,-3.3303320286496905
6.222267223609265,2.5678100573943095,1.5898517205224105,-3.483564021691793
6.247945324183208,2.6279111131375346,1.5550160803054927,-3.6424706018028603
6.274224435314583,2.6960771068478824,1.5185913742874642,-3.808178084593796
6.301185206383062,2.773155723298301,1.4805095934415262,-3.981997090392085
6.328916763616045,2.8601223258432684,1.4406896225376054,-4.165450334941259
6.357517986874477,2.958102532115001,1.3990351191881927,-4.360303674910891
6.387099012195627,3.068393860135656,1.3554320824390838,-4.568597861395559
6.417782950796983,3.192481721428746,1.3097461038251281,-4.792675022316826
6.449707768011271,3.3320400477641114,1.26181935360196,-5.035187180275389
6.483028168488912,3.4888973347123384,1.2114674817992062,-5.299061203354684
6.517917141836035,3.664931086197214,1.1584768697656593,-5.587370213187931
6.554566452698007,3.861821153357821,1.10260316763378,-5.903016668784103
6.593184664231585,4.080535937305438,1.043573000945939,-6.24805388470126
6.63399002360464,4.32033659920593,0.9810924620989263,-6.622348558070319
6.677193389596699,4.576977138937959,0.9148689765182231,-7.0211350669921355
6.722963160986079,4.839759554534866,0.8446576258483017,-7.430979994524262
6.771360756531427,5.087542636387664,0.7703478259030592,-7.824274854443924
6.8222361828953035,5.285495200644975,0.6921050773586199,-8.154714266895166
6.875091134901753,5.387791435098152,0.6105579346896682,-8.360945457718175
6.928969049252735,5.353073812617637,0.5269484801124865,-8.387833767930703
6.982499787378911,5.1694891700737085,0.4430701424331795,-8.220855263239358
7.034194679079648,4.866616459699368,0.3608615898007859,-7.902155009940091
7.082860843676642,4.497470648867419,0.281840039701385,-7.505275307032559
7.127835550165316,4.109765882742566,0.20678728663105939,-7.095532630363752
7.168933208992741,3.7325339179447554,0.13583196032742187,-6.712019151552727
7.206258548172189,3.3784232915829535,0.0687117688118946,-6.371214651199944
7.240042781088018,3.0504296210510864,0.0049996222998951595,-6.076472651724431
7.270547077298529,2.747054698654484,-0.05576510421734915,-5.825163592722808
7.298017624285074,2.4651555777409735,-0.11401674014457722,-5.6125604494394805
7.3226691800624835,2.201277214182862,-0.17014234463897202,-5.433618928620183
7.344681952204312,1.9521978851158588,-0.22447853392517383,-5.28367836132966
7.364203931055471,1.715110041558402,-0.27731531753847044,-5.158670080433264
7.381355031471055,1.4876460835451162,-0.3289020183428031,-5.055120813536593
7.396231492306506,1.2678453381681223,-0.37945322647816904,-4.970081564078261
7.408909945688187,1.05410416988234,-0.42915404211895164,-4.901037872406596
7.41945098738701,0.8451262810897593,-0.4781644208430176,-4.84582366114743
7.427902250197907,0.63987923926159,-0.5266226574544919,-4.802546212117708
7.434301042590524,0.43755856020565287,-0.574648119575669,-4.769523749722524
7.43867662819258,0.23755879486510753,-0.6223433570728942,-4.745234817886496
7.441052216141231,0.03945042065145843,-0.6697957052517592,-4.72827796658851
7.441446720347746,-0.15703878636980795,-0.7170784849176444,-4.717340242284878
7.439876332484048,-0.35203914049299906,-0.7642518873404931,-4.711173178002231
7.4363559410791185,-0.5455522850443751,-0.8113636191205154,-4.708575221173797
7.430900418228675,-0.7374631965692546,-0.8584493713322533,-4.708379746702601
7.423525786262982,-0.927551696204795,-0.9055331687992794,-4.709447953974231
7.4142502693009344,-1.1155040373780405,-0.9526276483390217,-4.710666035960278
7.403095228927154,-1.3009249672074485,-0.9997343086986245,-4.710946042610192
7.39008597925508,-1.4833504877488806,-1.0468437691247263,-4.709229851189651
7.375252474377591,-1.662261375013729,-1.0939360676366228,-4.704495618094429
7.358629860627454,-1.8370973543252636,-1.140981023817567,-4.69576603696284
7.340258887084202,-2.007271688764033,-1.1879386841871955,-4.682117684354531
7.320186170196561,-2.1721858234927556,-1.2347598610307409,-4.662690713637249
7.2984643119616335,-2.3312436527616467,-1.2813867681671134,-4.636698173866473
7.275151875434017,-2.483864946256988,-1.327753749905778,-4.603434292237961
7.250313225971447,-2.6294974909304574,-1.3737880928281576,-4.562281168448124
7.224018251062143,-2.7676275718702605,-1.4194109045126388,-4.512713481969833
7.19634197534344,-2.897788523661686,-1.4645380393323373,-4.454300996822338
7.167364090106823,-3.0195672193957206,-1.5090810493005606,-4.386708845468741
7.137168417912866,-3.1326085118733027,-1.552948137755248,-4.309695763765178
7.105842332794133,-3.236617783267023,-1.5960450953929,-4.223110612400597
7.073476154961463,-3.3313618794675053,-1.638276201516906,-4.126887640198524
7.040162536166788,-3.4166687909328712,-1.6795450779188912,-4.021041009712175
7.005995848257459,-3.4924264853632523,-1.7197554880160129,-3.905659111222925
6.971071583403827,-3.558581296700578,-1.758812079128242,-3.780899139934384
6.935485770436821,-3.615136232738351,-1.7966210705275858,-3.646982311226887
6.899334408109437,-3.6621494871510882,-1.8330908936398547,-3.5041899531309726
6.862712913237926,-3.699733341032587,-1.8681327931711644,-3.352860559143516
6.825715579827601,-3.728053525578597,-1.9016613987625997,-3.1933877244698334
6.7884350445718145,-3.747329003152226,-1.933595276007298,-3.0262187404711494
6.750961754540292,-3.7578320197352317,-1.9638574634120096,-2.851853499587319
6.71338343434294,-3.7598881974113367,-1.9923759984078828,-2.670843277850387
6.675784552368826,-3.7538763788458014,-2.0190844311863865,-2.4837889227246346
6.6382457885803685,-3.7402279121527937,-2.0439223204136328,-2.291337985101043
6.600843509458841,-3.719425076735414,-2.0668357002646434,-2.0941803962726087
6.563649258691487,-3.6919983981506723,-2.0877775042273696,-1.8930423993631444
6.52672927470998,-3.658522678912617,-2.106707928221001,-1.688678590880801
6.490144047920854,-3.6196116751603924,-2.1235947141298093,-1.4818620982352722
6.45394793116925,-3.575911466120046,-2.138413335112162,-1.2733730961354923
6.418188816508049,-3.528092682113017,-2.151147066073517,-1.0639860299563952
6.382907889686919,-3.476841864714866,-2.1617869263730807,-0.8544560491381592
6.3481394710397705,-3.422852317774216,-2.170331486864462,-0.645505243205092
6.313910947862029,-3.3668148612721547,-2.176786539296513,-0.4378093071152965
6.280242799249307,-3.309408916344439,-2.181164632367666,-0.23198523827225911
6.247148710085862,-3.251294328809865,-2.1834844847503887,-0.028580588826694564
6.214635766797763,-3.1931042844687,-2.183770290638656,0.17193532544861354
6.182704723953076,-3.135439590237355,-2.1820509373841697,0.3691780090965181
6.151350328050703,-3.078864501187859,-2.1783591572932046,0.5628520746707538
6.120561683038824,-3.023904175733495,-2.172730636546497,0.7527533007040271
6.090322641281489,-2.97104374956737,-2.1652031035394566,0.9387686619896842
6.060612203785815,-2.920728941362976,-2.15581541691956,1.120874639971258
6.031404914372185,-2.87336804465259,-2.144606670519847,1.2991341921891217
6.00267123392566,-2.8293351226571017,-2.131615328597956,1.4736927960573636
5.9743778826990885,-2.788974205383301,-2.116878400637382,1.6447739871324345
5.946488140645256,-2.7526042881429684,-2.1004306607660577,1.812674791174909
5.918962097763826,-2.7205249434463155,-2.0823039128543086,1.977761409242734
5.891756848329363,-2.6930223787833145,-2.062526298761881,2.140465461862638
5.86482662454153,-2.6703757954293397,-2.0411216441432547,2.3012810364612664
5.838122866587237,-2.652863921920287,-2.018108833778642,2.4607627135366865
5.811594227368034,-2.640771603196555,-1.9935012066432751,2.619524669731042
5.785186511336069,-2.634396313796237,-1.9673059599459648,2.778240863350608
5.758842548198107,-2.6340544186711674,-1.9395235513124587,2.937646186467583
5.732502004011395,-2.6400869099691064,-1.9101470894477828,3.0985382940306136
5.706101134911704,-2.6528641740724233,-1.8791617065074766,3.2617795556847273
5.67957249317098,-2.6727890453010166,-1.8465439109506294,3.4282981578165446
5.65284460271797,-2.700296909495353,-1.812260929372464,3.599086712146276
5.625841633623017,-2.7358508196323057,-1.7762700622510013,3.7751956460556975
5.598483125426694,-2.7799283028319803,-1.7385181057904442,3.95771691593417
5.570683842398374,-2.832994514483611,-1.6989409366311026,4.1477508348376775
5.5423538972535376,-2.8954532697614654,-1.6574634282827259,4.346344530009233
5.513399364555923,-2.9675628199463153,-1.6139999829826335,4.554384120857277
5.48372373635646,-3.0492967025156714,-1.5684561417740608,4.772413626221215
5.453230769331303,-3.1401218998449263,-1.5207320055118487,5.000342244082399
5.421829550332854,-3.2386593358064406,-1.4707285830710248,5.23699126993862
5.389442956974789,-3.3421932301719868,-1.4183586703716387,5.4794331937574725
5.356021024673069,-3.446024887662913,-1.3635643384340639,5.722114435573388
5.32156077579644,-3.5427587559494307,-1.3063431940783299,5.955879113519546
5.286133188236946,-3.62180777534237,-1.2467844029431343,6.167285116090821
5.2499151104835216,-3.669701632372783,-1.1851115517822262,6.339013051029847
5.213218094159794,-3.671962062633076,-1.1217214212719278,6.4524180467068
5.176498473533464,-3.6168496384606663,-1.0571972408048598,6.49263769043528
5.140329977148857,-3.499803603466394,-0.992270863900507,6.454619796064875
5.105331941114193,-3.3258503397535932,-0.9277246659398583,6.34631260634645
5.072073437716657,-3.1079049038484765,-0.8642615398763938,6.186194912929641
5.040994388678173,-2.861995290149815,-0.8023995907470973,5.996635265193911
5.012374435776675,-2.6026063722478314,-0.7424332380951583,5.797520883251011
4.986348372054196,-2.3403071785227176,-0.6844580292626482,5.603100824383852
4.962945300268968,-2.0815808224486005,-0.6284270210188097,5.421867412402342
4.942129492044482,-1.8297389378105517,-0.5742083468947863,5.257896309722199
4.923832102666377,-1.5860119973910103,-0.5216293837975643,5.112388480926197
4.907971982692467,-1.350420200653586,-0.4705054989883023,4.984880827778969
4.894467780685931,-1.122358476238006,-0.4206566907105126,4.874046779983594
4.883244195923551,-0.9009526271831654,-0.37191622291067666,4.778174350249376
4.874234669651719,-0.6852619923436585,-0.3241344794081829,4.695430509106786
4.867382049728283,-0.47438809055160797,-0.27718017431711506,4.623996249754657
4.862638168822767,-0.2675287606945639,-0.23094021181956847,4.562127843715957
4.8599628812158215,-0.06400195162363367,-0.1853189333824089,4.508177988779947
4.859322861699585,0.13674677247723055,-0.14023715349460944,4.460596407241617
4.860690329424357,0.33514510059872127,-0.09563118942219326,4.417920915408959
4.864041780430345,0.5314989173057796,-0.051451980268103666,4.3787650314455595
4.869356769603402,0.7259990881299696,-0.007664329953648068,4.341805381542508
4.876616760484702,0.9187290221260789,0.03575372386177701,4.3057705989564745
4.885804050705963,1.1096725889136725,0.07881142985134176,4.269432547003342
4.8969007765951,1.2987223107877932,0.1215057553213752,4.231600223070778
4.909887999702978,1.485687920758279,0.16382175755208297,4.191116437900878
4.924744878910561,1.670305446610081,0.20573292193109177,4.146857212366169
4.941447933376661,1.8522469900717677,0.24720149405475345,4.097733736939888
4.959970403277379,2.031131342403869,0.28817883142415235,4.0426966669255995
4.980281716701418,2.206535527208267,0.32860579809340834,3.980742463992292
5.0023470719735,2.378007297082163,0.36841322273333127,3.9109214350521775
5.026127144944322,2.5450785394517856,0.40752243708385305,3.8323470614634716
5.05157793033884,2.707279473843213,0.44584590769848775,3.7442061562506055
5.078650725077272,2.8641534526512693,0.4832879692609938,3.645769337310016
5.107292259603784,3.0152721143697105,0.5197456626340939,3.5364012638051134
5.137444980747481,3.160250586018779,0.555109675272145,3.4155700545656074
5.169047486607669,3.298762393426831,0.5892653758178011,3.282855294398828
5.202035110541937,3.430553716843746,0.6220939287617894,3.137954039428028
5.236340647710374,3.5554566273299484,0.6534734691560696,2.9806842579975004
5.271895213983674,3.6734009582550766,0.6832803117360446,2.810985190842169
5.308629223566225,3.7844245073810607,0.7113901636444664,2.628914183887853
5.346473468640036,3.888681329187578,0.7376793054833449,2.4346396389495495
5.385360281931911,3.986447964355853,0.7620257018728405,2.2284298399002678
5.425224761575469,4.078127562562903,0.7843100002718432,2.0106375406296024
5.466006037201098,4.164251983271611,0.8044163756781392,1.7816803397214207
5.507648557033814,4.245482102333206,0.8222331790753534,1.5420170059560807
5.5501033780571465,4.32260670292938,0.8376533491349142,1.2921200470458944
5.59332944508644,4.396540478209379,0.8505745496053732,1.0324449194106957
5.6372948498685345,4.46832180794881,0.8608989987994801,0.7633963494207938
5.681978067948022,4.539111077775947,0.868532962293688,0.48529227288131904
5.727369178725782,4.6101903676007385,0.8733858850225013,0.1983259086499764
5.773471082401789,4.682965317837283,0.875369144109001,-0.09747350498015195
5.820300735580162,4.758969842014843,0.8743944090591995,-0.40228069851235
5.86789043400031,4.839874010291223,0.870371602074076,-0.7165141857263899
5.916289174103222,4.927494726276118,0.8632064602168121,-1.0408742773138184
5.965564121365984,5.023807467254206,0.8527977174436739,-1.3763760534935352
6.015802196038526,5.130954802355151,0.8390339569087386,-1.7243707496121665
6.067111744062077,5.25124260867022,0.8217902494126169,-2.086542529478893
6.1196241701487795,5.387105966557441,0.800924824117828,-2.464855280399712
6.173495229814354,5.541010240979141,0.7762762713138308,-2.8614011113559905
6.228905332224145,5.715223193484891,0.7476622602002709,-3.278060791745073
6.286057564158994,5.9113430359425365,0.7148816522828202,-3.715815224196424
6.345170994518419,6.129388322024189,0.6777235000408559,-4.173436950463483
6.406464877738661,6.366161245846694,0.6359891305362211,-4.645160232317587
6.470126490197128,6.612578766354681,0.5895375282130452,-5.116908619309544
6.536252277860674,6.850038703928057,0.5383684420199497,-5.56119152057023
6.604752664899955,7.047322495853738,0.4827565268142474,-5.932811941810217
6.675225889858493,7.162478984247706,0.42342840739614523,-6.17167746521152
6.7468506797009695,7.155891277253279,0.36171163274403006,-6.221459732320372
6.818409592473502,7.012973796814097,0.29949703542082634,-6.061847373815217
6.888539330441644,6.757545965769683,0.23887856168267418,-5.7275331628305635
6.95611479009934,6.4383355135062965,0.18160323005436854,-5.289079577523224
7.020498145234403,6.102185479566615,0.1287124342791363,-4.814823370141159
7.0815200000300695,5.779126984573707,0.08056420057772472,-4.349459997369555
7.139311269875806,5.48293138973413,0.03706960060402916,-3.9145673480655603
7.194140583773148,5.217239729220096,-0.0020760728766264433,-3.5171482703344643
7.246312981065349,4.980767255504911,-0.03724755557997109,-3.156972335820946
7.296120653620398,4.770327205423388,-0.06881727893818054,-2.830885368779683
7.343823925674632,4.582294133973856,-0.09712613262597737,-2.5349258838816424
7.3896468670143705,4.413221288904284,-0.1224753914647938,-2.265241615076918
7.433779079903413,4.2600545962102245,-0.145127807615563,-2.018426759086311
7.4763796258655155,4.120170496036669,-0.1653120752064261,-1.791601077618717
7.517581330825882,3.991344612517137,-0.18322808598261328,-1.5823835508607353
7.557494776951054,3.871698848173807,-0.19905192149122064,-1.388829528892712
7.596211765432792,3.759646784414193,-0.21294021678014777,-1.2093609466696078
7.633808233276934,3.653844796920124,-0.22503382624684384,-1.0427012480215152
7.670346681246135,3.5531508874115008,-0.235460838727059,-0.887818765403451
7.70587819012025,3.4565910316708752,-0.2443390263810935,-0.7438789915753158
7.740444100436959,3.3633320646158036,-0.25177781629684665,-0.6102049301680625
7.774077421083117,3.272659952911708,-0.25787986559852727,-0.4862443611211142
7.806804020612234,3.1839623775758534,-0.2627423092097384,-0.3715428739961563
7.838643644387993,3.096714701686075,-0.26645773794969996,-0.2657216694553024
7.869610791404853,3.0104685634891606,-0.269114954644253,-0.16845930384672753
7.899715477039745,2.924842486649302,-0.2707995476827203,-0.07947671268467972
7.928963901906238,2.8395140291271854,-0.2715943148095671,0.001475017587270852
7.95735904219751,2.754213099791544,-0.27157956463369437,0.0746245552219313
7.984901173195425,2.6687161595952062,-0.27083331908147507,0.14018825224221
8.011588334791377,2.582841094899673,-0.26943143655905294,0.19837638392642715
8.037416745740373,2.4964426070577894,-0.26744767271978864,0.24939794225326112
8.062381171810951,2.409408007025102,-0.26495369329725604,0.29346419484020736
8.086475251881202,2.321653338530005,-0.26201905134885395,0.3307911967740166
8.109691785266502,2.23311977982342,-0.2587111393811138,0.3616014237281335
8.132022983064736,2.14377029363311,-0.2550951251438324,0.3861246788598528
8.153460686001068,2.0535865088641194,-0.2512338783552339,0.40459841176931327
8.17399655108971,1.962565826873834,-0.24718789423754078,0.4172675743876995
8.193622209358448,1.8707187507519203,-0.24301521849366378,0.42438412555129273
8.212329396865968,1.7780664387925256,-0.23877137723815087,0.42620628301921537
8.230110061253894,1.6846384839981576,-0.23450931440795872,0.422997608819582
8.246956446093876,1.5904709206391403,-0.2302793383197629,0.415026001200426
8.262861155300268,1.4956044571438951,-0.22612907830775866,0.40256265431782395
8.277817199871707,1.4000829323463286,-0.22210345176458043,0.3858810353251797
