th1 (rad),w1 (rad/s),th2 (rad),w2 (rad/s),a1 (rad/s^2),a2 (rad/s^2)
3.298827563368454,1.117405299041706,1.7162920744453576,2.8138928363805147,-2.473918160925476,-8.476987183655108
3.310001616358871,1.0926661174324512,1.7444310028091627,2.7291229645439636,-2.0593144502241523,-8.447976403057952
3.3209282775331954,1.0720729729302096,1.7717222324546025,2.644643200513384,-1.6573036859275008,-8.417994178879947
3.3316490072624974,1.0554999360709347,1.7981686644597363,2.5604632587245844,-1.2678932606174254,-8.387162151131037
3.3422040066232066,1.0428210034647605,1.8237732970469822,2.476591637213274,-0.8910489738939442,-8.355457850082345
3.352632216657854,1.033910513725821,1.848539213419115,2.3930370587124505,-0.5267046745976004,-8.322731573171284
3.3629713217951123,1.028643466979845,1.8724695840062395,2.309809742980738,-0.17476992032041763,-8.288722279565262
3.373257756464911,1.0268957677766408,1.895567681436047,2.2269225201850853,0.16486418191003824,-8.253072534361424
3.3835267141426772,1.0285444095957412,1.9178369066378977,2.144391794841471,0.4923207810086392,-8.215342540660574
3.3938121582386347,1.0334676174058277,1.9392808245863125,2.062238369434865,0.8077345571166381,-8.17502329781816
3.404146834412693,1.0415449629769942,1.9599032082806611,1.9804881364566835,1.1112502915350175,-8.1315489199548
3.414562284042463,1.0526574658923444,1.979708089645228,1.8991726472571355,1.403022560273241,-8.084308141898916
3.4250888587013866,1.066687691495077,1.9986998161177993,1.8183295658381464,1.6832163869309715,-8.032655031403744
3.4357557356163375,1.0835198553643866,2.0168831117761807,1.738003015524109,1.9520086992417878,-7.975918917675842
3.4465909341699814,1.1030399423568045,2.034263141931422,1.6582438263473507,2.2095904434948843,-7.913413537615523
3.4576213335935493,1.1251358467917534,2.0508455801948955,1.5791096909711955,2.456169221689184,-7.844445393080404
3.468872692061467,1.1496975390086452,2.0666366771046074,1.5006652370403915,2.691972327190718,-7.768321305104178
3.4803696674515536,1.1766172622805524,2.0816433294750114,1.4229820239893496,2.917250065440069,-7.684355144346809
3.492135840074359,1.2057897629349532,2.095873149714905,1.3461384725458816,3.1322792565439164,-7.591873711048616
3.5041937377037087,1.2371125555003923,2.109334534440364,1.2702197354353955,3.3373668261273006,-7.490221732327389
3.5165648632587128,1.2704862237616654,2.1220367317947177,1.1953175181121216,3.532853399478175,-7.378765939764655
3.5292697254963294,1.3058147577564472,2.133989906975839,1.121529858714475,3.7191168217703314,-7.256898185946893
3.542327873073894,1.3430059259741505,2.1452052055629838,1.048960876855006,3.8965755341253456,-7.12403755516583
3.5557579323336355,1.381971681315404,2.1556948143315338,0.9777205013033478,4.065691741712861,-6.979631421183011
3.5695776491467894,1.4226285987325324,2.165472019344567,0.9079241870915177,4.226974316329877,-6.823155404291948
3.5838039351341147,1.4648983418958312,2.1745512612154823,0.8396926330485982,4.38098138233272,-6.654112181404625
3.598452918553073,1.5087081557191584,2.182948187545968,0.773151511234552,4.528322541801053,-6.472029107100497
3.6135400001102647,1.5539913811371688,2.1906797026583136,0.708431220163547,4.669660702699304,-6.276454610998349
3.6290799139216365,1.6006879881641618,2.197764014859949,0.6456666740535635,4.805713482736687,-6.066953347808623
3.6450867938032783,1.6487451229915286,2.204220681600485,0.5849971405754772,4.937254171584855,-5.843100091174335
3.6615742450331936,1.6981176647073772,2.2100706530062397,0.5265661396637339,5.065112244827044,-5.604472380870231
3.6785554216802674,1.7487687871556477,2.2153363144028773,0.4705214158550316,5.190173433958869,-5.35064195484119
3.696043109551824,1.8006705214952363,2.2200415285614277,0.4170149963066197,5.3133793671575535,-5.081165022475523
3.7140498147667764,1.8538043151668118,2.224211678524494,0.36620334608186444,5.435726804372612,-4.7955714628703765
3.7325878579184444,1.9081615832105379,2.2278737119853127,0.3182476314531607,5.558266496374972,-4.49335306109195
3.7516694737505496,1.9637442481742875,2.2310561882998443,0.2733141008422412,5.682101699420941,-4.173950926121954
3.7713069162322923,2.020565265168497,2.2337893293082667,0.23157459158102167,5.80838637377799,-3.8367422661323283
3.7915125688839773,2.0786491289062767,2.236105075224077,0.19320716891969839,5.938323084169024,-3.4810267301547215
3.81229906017304,2.138032359747967,2.238037146913274,0.15839690161815118,6.073160601934919,-3.106012560831818
3.83367938377052,2.198763965767316,2.2396211159294555,0.127336776009833,6.214191181212158,-2.7108028420706183
3.855667023428193,2.2609058775794373,2.2408944836895537,0.10022874758912682,6.362747443621467,-2.2943821700193063
3.8782760822039877,2.324533352015652,2.241896771165445,0.07728492588893376,6.520198756951179,-1.855604128448728
3.9015214157241442,2.3897353395851635,2.2426696204243344,0.05872888460444649,6.687946932326446,-1.3931800134956691
3.9254187691199958,2.456614808908428,2.2432569092703787,0.044797084469489795,6.867420990775369,-0.9056693314176212
3.94998491720908,2.5252890188161814,2.2437048801150734,0.035740391155313585,7.060070663539225,-0.39147269034774407
3.975237807397242,2.5958897254515736,2.2440622840266267,0.031825664251836146,7.267358190846141,0.15117217322233834
4.001196704651758,2.668563307360035,2.244380540669145,0.03333738598405953,7.490747871603786,0.7241903471245218
4.027882337725358,2.743470786076073,2.244713914528986,0.04057928945530475,7.731692692816026,1.329664616111182
4.0553170455861185,2.820787713004233,2.2451197074235387,0.05387593561641657,7.991617235031012,1.9698239940395175
4.083524922716161,2.9007038853545435,2.245658466779703,0.07357417555681174,8.271895913278362,2.647024429200375
4.112531961569706,2.983422844487327,2.2463942085352713,0.10004441984881549,8.57382547908562,3.3637199526437103
4.142366190014579,3.0691610992781833,2.2473946527337594,0.13368161937525258,8.898590589576894,4.122422291953793
4.173057801007361,3.1581470051739524,2.2487314689275117,0.1749058422947905,9.247221160946912,4.925646744510896
4.204639271059101,3.2506192167834214,2.25048052735046,0.22416230973989948,9.620540189142556,5.7758419290158365
4.237145463226935,3.346824618674847,2.252722150447859,0.2819207290300578,10.019100771943629,6.675300960512464
4.270613709413683,3.4470156263942835,2.2555413577381596,0.3486737386351825,10.44311124465322,7.626051687928114
4.305083865677626,3.5514467388408155,2.259028095124511,0.4249342555144636,10.892347696561965,8.629723978575996
4.340598333066034,3.6603702158064353,2.2632774376796556,0.5112314953002236,11.366053725459459,9.687392733631736
4.377202035224099,3.7740307530610298,2.268389752632658,0.608105422636541,11.86282817468537,10.799396488623925
4.414942342754709,3.8926590348078833,2.2744708068590236,0.7160993875227802,12.380502839041784,11.965133213141248
4.453868933102788,4.016464063198301,2.2816318007342513,0.8357507196541927,12.91601376190071,13.182837378303732
4.494033573734771,4.145624200817308,2.289989307930793,0.96757909343723,13.465271777999867,14.449345567713518
4.5354898157429435,4.280276918597307,2.2996650988651655,1.1120725491143653,14.023040323305883,15.759861839288982
4.578292584928916,4.4205073218303665,2.310785824356309,1.2696711675072552,14.582831080399085,17.107738534831018
4.6224976581472195,4.566335632634358,2.3234825360313818,1.4407485528555655,15.136830479047248,18.484292921224164
4.668161014473563,4.71770393742483,2.3378900215599376,1.625591482067807,15.675872011720534,19.878684333209364
4.715338053847812,4.874462657542035,2.3541459363806156,1.8243783253999006,16.189470204733254,21.277879521108378
4.764082680423232,5.036357359589368,2.3723897196346146,2.0371571206109844,16.665931273041444,22.666734626065537
4.814446254019125,5.203016672319782,2.3927612908407245,2.2638244668716396,17.09255235920214,24.02821946522037
4.866476420742323,5.373942195911804,2.415399535509441,2.5041066615238434,17.455915362614284,25.34380260681689
4.920215842701441,5.548501349537947,2.4404406021246796,2.7575446875920124,17.74227261774122,26.594003502527613
4.97570085619682,5.725924075715359,2.4680160490005996,3.0234847226172885,17.938010553400165,27.75910097460538
5.032960096953974,5.905304181249361,2.4982508962267724,3.3010757323633424,18.0301651163738,28.81996696486151
5.092013138766467,6.0856058324130995,2.531261653550406,3.5892754020119577,18.006950983967453,29.75897314514321
5.152869197090598,6.2656753422527744,2.5671544075705257,3.88686513346339,17.858257650562784,30.560899208157768
5.2155259505131255,6.444257918758402,2.6060230589051594,4.192474125544967,17.576061545417975,31.213759192825517
5.279968529700709,6.620018534212582,2.647947800160609,4.504611717473223,17.15470599819391,31.709459308795495
5.346168715042835,6.7915655941945205,2.6929939173353414,4.8217063105611775,16.591010532108132,32.044209198639905
5.414084370984781,6.9574756995156015,2.741210980440953,5.142148402547576,15.884186596914393,32.21862804280656
5.483659127979936,7.116317565484746,2.7926324644664287,5.464334682975642,15.035556077154665,32.23751469650103
5.554822303634784,7.2666731262562925,2.847275811296185,5.786709829940652,14.048088546160542,32.109282701214674
5.627489034897347,7.407154011717898,2.905142909595592,6.107802656952799,12.925790136660126,31.84509141466999
5.7015605750145255,7.536411913084499,2.96622093616512,6.426253571099499,11.672988813886441,31.457729191018284
5.776924694145371,7.653141801223363,3.030483471876115,6.740830863009682,10.29356702050707,30.960320864953324
5.8534561121576045,7.7560774714284335,3.097891780506212,7.0504340716592155,8.790194040222712,30.364939512816587
5.931016886871888,7.84397941183066,3.168396121222804,7.354083466787381,7.1636092991165725,29.681203697455285
6.009456680990195,7.915615504821826,3.2419369558906777,7.650895503761934,5.4120072281282505,28.91493997522986
6.088612836038413,7.969735577103108,3.318445910928297,7.940044903514233,3.5305772290300004,28.066990891551832
6.168310191809444,8.005041349393409,3.3978463599634394,8.220714812429751,1.511260853600429,27.132255168895124
6.248360605303378,8.020153957929413,3.480053508087737,8.492037364118703,-0.6571969441543396,26.09906198379157
6.328562144882672,8.01358198848787,3.5649738817289243,8.753027983956619,-2.9888065140605793,24.949005262195552
6.40869796476755,7.983693923347264,3.6525041615684906,9.002518036578575,-5.499387768277631,23.657393142949875
6.488534904001023,7.928700045664487,3.742529341934276,9.239091968008074,-8.204996952008234,22.194493348932447
6.567821904457668,7.846650076144405,3.834920261614357,9.461036901497398,-11.119617877274827,20.527761900029862
6.646288405219113,7.735453897371657,3.929530630629331,9.666314520497696,-14.252066134324421,18.62520838915593
6.72364294419283,7.592933236028412,4.026193775834308,9.852566604389256,-17.602171856346043,16.45994950785266
6.799572276553114,7.416911517464952,4.1247194418782005,10.017166099467783,-21.156496686148802,14.015810069689232
6.873741391727764,7.205346550603464,4.224891102872879,10.157324200164675,-24.8840973422628,11.293540544761271
6.945794857233799,6.9565055771808355,4.326464344874525,10.270259605612289,-28.733131009989037,8.316861251603166
7.015359913005607,6.669174267080945,4.4291669409306476,10.35342821812832,-32.6293207690159,5.137198911476658
7.082051655676417,6.342881059390786,4.532701223111931,10.404800207243087,-36.47733739261937,1.8357900331336754
7.145480466270325,5.978107685464592,4.636749225184362,10.423158107574423,-40.16587996139725,-1.4780496733277615
7.205261543124971,5.57644888585062,4.740980806260106,10.408377610841146,-43.5765917298651,-4.673135828565821
7.261026031983477,5.140682968551968,4.845064582368518,10.361646252555488,-46.59601301995034,-7.60679415367883
7.312432861668997,4.674722838352465,4.948681044894072,10.2855783110187,-49.12880812475903,-10.137961846659389
7.359180090052521,4.183434757104875,5.051536828004259,10.184198692552107,-51.10987681920648,-12.14064146269027
7.40101443762357,3.67233598891281,5.153378814929781,10.062792277925205,-52.51298867965489,-13.515010109199325
7.437737797512698,3.1472061021162614,5.254006737709033,9.927642176833212,-53.35434076131984,-14.193942429791175
7.46920985853386,2.6136626945030628,5.353283159477365,9.7857027525353,-53.69070360756145,-14.143803678046165
7.4953464854788905,2.076755658427448,5.451140187002718,9.644264715754838,-53.61313732944027,-13.359696212228688
7.516114042063165,1.5406242851330454,5.547582834160266,9.510667753632552,-53.2381832930875,-11.856419972436782
7.531520284914496,1.0082424522021705,5.642689511696592,9.392103553908184,-52.698732470206934,-9.656916731744639
7.541602709436518,0.48125512750010113,5.736610547235673,9.295534386590738,-52.13648080725531,-6.779864190088029
7.546415260711519,-0.04010968057245201,5.829565891101581,9.227735744689857,-51.69723724793568,-3.227558369187676
7.546014163905794,-0.5570820530518088,5.9218432485484795,9.19546016099798,-51.52960921484127,1.025425935721922
7.540443343375276,-1.0723781452002217,6.0137978501584595,9.2057144203552,-51.786882782563275,6.042747669693512
7.529719561923274,-1.5902469730258544,6.105854994362011,9.266141897052135,-52.631115475027215,11.935767094015707
7.513817092193015,-2.1165581277761265,6.198516413332532,9.385499567992293,-54.23700205774304,18.870205480985504
7.4926515109152545,-2.658928148353557,6.292371409012455,9.574201622802148,-56.789459305364005,27.063391242972834
7.466062229431719,-3.2268227414071973,6.388113425240476,9.844835535231876,-60.45935141598282,36.75231095172139
7.433794002017647,-3.8314162555670253,6.486561780592795,10.21235864474909,-65.31716530978026,48.07847574095155
7.395479839461977,-4.484587908664828,6.588685367040286,10.693143402158606,-71.08453960481799,60.75191490035202
7.350633960375329,-5.195433304713008,6.695616801061872,11.300662551162127,-76.49981690254685,73.18212284016252
7.298679627328199,-5.960431473738477,6.808623426573494,12.032483779563751,-77.94789684037714,80.57989335478109
7.239075312590814,-6.739910442142248,6.928948264369131,12.838282713111562,-67.599616408106,72.34025526057101
7.171676208169392,-7.4159066062233086,7.057331091500247,13.561685265717273,-35.16598258657211,34.3598962653892
7.097517142107159,-7.76756643208903,7.19294794415742,13.905284228371166,17.434919125934286,-30.84038827303805
7.019841477786269,-7.593217240829687,7.332000786441132,13.596880345640786,62.63820324148291,-85.81330316856977
6.9439093053779715,-6.9668352084148575,7.46796958989754,12.738747313955088,78.4253898110232,-101.26696375469197
6.874240953293823,-6.182581310304625,7.595357063037091,11.726077676408169,73.77249950569878,-90.11892219590248
6.812415140190777,-5.4448563152476375,7.712617839801172,10.824888454449145,63.435340102426785,-72.35081449399577
6.7579665770383,-4.8105029142233695,7.820866724345664,10.101380309509187,53.75461143512585,-56.15749734468097
6.709861547896066,-4.2729567998721105,7.921880527440756,9.539805336062377,46.11140216268953,-43.06410586651833
6.667131979897345,-3.8118427782452153,8.01727858080138,9.109164277397195,40.388667699934516,-32.68710674901026
6.629013552114893,-3.4079561012458703,8.108370223575351,8.782293209907092,36.19322396839677,-24.35514025971477
6.594933991102434,-3.0460238615619026,8.196193155674422,8.538741807309943,33.16581138612763,-17.49553367679409
6.564473752486815,-2.714365747700626,8.28158057374752,8.363786470542003,31.030735083007702,-11.682768311875328
6.537330095009809,-2.4040583968705493,8.36521843845294,8.24695878742325,29.583700640152628,-6.61429283209848
6.513289511041103,-2.1082213904690232,8.447688026327173,8.180815859102264,28.66996522022144,-2.0806932301574843
6.492207297136413,-1.8215217382668087,8.529496184918195,8.160008926800689,28.16436772266315,2.055904581832226
6.473992079753745,-1.5398780610401772,8.6110962741862,8.180567972619011,27.95443156435255,5.874220146390223
6.4585932991433435,-1.2603337453966517,8.69290195391239,8.239310174082913,27.925576585266732,9.398582637239395
6.445989961689377,-0.9810779795439843,8.775295055653219,8.333296000455308,27.947599840049893,12.598026262796006
6.436179181893937,-0.7016019811434855,8.858628015657771,8.459276263083268,27.86254646546597,15.382092591535095
6.429163162082502,-0.4229765164888258,8.943220778288604,8.61309718899862,27.47568672252976,17.596930900378766
6.424933396917614,-0.1482196492635282,9.02935175017859,8.789066498002407,26.553536955723878,19.027468072468047
6.423451200424978,0.11731572029371057,9.117242415158614,8.979341178727088,24.835285688641953,19.414032597823464
6.424624357627915,0.3656685771801301,9.207035826945885,9.173481504705324,22.065111594206396,18.492973118521704
6.428281043399717,0.5863196931221941,9.298770641992938,9.358411235890541,18.049747724694125,16.066834029027785
6.434144240330939,0.7668171703691353,9.392354754351844,9.519079576180818,12.7349565153886,12.096505278191282
6.44181241203463,0.8941667355230214,9.487545550113653,9.64004462896273,6.276784089871197,6.78616025279577
6.45075407938986,0.9569345764217334,9.58394599640328,9.707906231490687,-0.9317067848711427,0.6139022012933703
6.460323425154077,0.947617508573022,9.681025058718186,9.71404525350362,-8.31221509670472,-5.731425218646072
6.469799600239807,0.8644953576059747,9.778165511253222,9.65673100131716,-15.229940051287944,-11.503007039826661
6.478444553815867,0.7121959570930954,9.874732821266393,9.541700930918894,-21.150390133043704,-16.07802001010349
6.4855665133867975,0.5006920557626583,9.970149830575583,9.38092073081786,-25.755207991427696,-19.087124587375616
6.490573433944424,0.24313997584838132,10.06395903788376,9.190049484944103,-28.97437105986179,-20.44419565122023
6.493004833702908,-0.0466037347502366,10.155859532733201,8.9856075284319,-30.941434755727524,-20.28784766927343
6.492538796355405,-0.35601808230751186,10.24571560801752,8.782729051739167,-31.91121418882013,-18.88270115512398
6.48897861553233,-0.6751302241957131,10.333542898534912,8.593902040187928,-32.18005785439694,-16.52658069801417
6.482227313290373,-0.9969308027396826,10.41948191893679,8.428636233207786,-32.03057978687265,-13.48717961482018
6.472258005262976,-1.317236600608409,10.503768281268869,8.293764437059584,-31.70416899631673,-9.970279556112047
6.459085639256892,-1.6342782905715765,10.586705925639464,8.194061641498465,-31.394646989104398,-6.110777125072776
6.442742856351176,-1.9482247604626204,10.668646542054448,8.132953870247738,-31.254391737511696,-1.975961143978812
6.423260608746549,-2.260768677837737,10.749976080756925,8.11319425880795,-31.406159020799254,2.4270933244237134
6.400652921968172,-2.5748302680457296,10.831108023345005,8.137465192052186,-31.956612959776724,7.144993316207395
6.374904619287714,-2.8943963976434968,10.912482675265526,8.20891512521426,-33.009792513001685,12.274913684425316
6.34596065531128,-3.2244943227735137,10.994571826517669,8.331664262058514,-34.6800184658104,17.965903237566838
6.313715712083544,-3.5712945074316176,11.077888469138255,8.511323294434181,-37.104020728159995,24.424393682444233
6.278002767009228,-3.9423347147132177,11.163001702082596,8.755567231258624,-40.450935948902945,31.921624764555958
6.238579419862096,-4.346844074202247,11.250557374395182,9.074783478904184,-44.92466972991739,40.79507575998438
6.195110979120074,-4.7960907715014205,11.341305209184224,9.482734236504028,-50.741037661644704,51.41975567368417
6.1471500714050595,-5.303501148117867,11.436132551549264,9.996931793240869,-58.02861252100807,64.0794331421224
6.0941150599238805,-5.883787273327948,11.536101869481673,10.637726124662093,-66.51371066676924,78.54536264881
6.035277187190601,-6.54892437999564,11.642479130728294,11.423179751150194,-74.64559564079919,92.8841440077951
5.969787943390644,-7.295380336403632,11.756710928239796,12.352021191228145,-77.54709006900146,100.62967926738284
5.896834140026607,-8.070851237093647,11.880231140152077,13.358317983901973,-64.0380437101345,86.62733429748396
5.816125627655671,-8.711231674194993,12.013814319991097,14.224591326876812,-19.889324966611216,31.440409293870886
