th1 (rad),w1 (rad/s),th2 (rad),w2 (rad/s)
4.941636606004802,-2.679977669345935,3.264563659260693,2.593594790783656
4.9148368293113425,-2.613184265760181,3.2904996071685297,2.684118397081053
4.888704986653741,-2.5508536517143914,3.3173407911393404,2.7701825185823203
4.863196450136597,-2.4927191889705798,3.3450426163251636,2.8524188547271905
4.838269258246891,-2.43853501378336,3.3735668048724357,2.931419028862861
4.813883908109057,-2.388075727062857,3.4028809951610643,3.0077359509963846
4.790003150838428,-2.3411353011620903,3.4329583546710283,3.0818854637585487
4.766591797826807,-2.2975252780290343,3.463777209308614,3.1543479168990403
4.743616545046517,-2.2570722679708672,3.4953206884776042,3.2255693432750543
4.721045822366808,-2.21961469245416,3.5275763819103547,3.2959619131297853
4.698849675442266,-2.184998646243117,3.5605360010416525,3.3659033237260294
4.676999688979834,-2.1530726821672266,3.5941950342789126,3.435734738969732
4.655468962158162,-2.1236812456110576,3.62855238166861,3.5057568308733793
4.6342321497020516,-2.0966564078892107,3.663609949977344,3.576223397176674
4.613265585623159,-2.071807475600935,3.699372183949111,3.647331949188143
4.59254751086715,-2.0489080033327265,3.7358455034409923,3.7192106045005984
4.572058430833823,-2.0276797406256493,3.773037609485998,3.791900623439378
4.5517816334275665,-2.007773153772809,3.810956615720392,3.86533406824775
4.531703901889839,-1.9887444616932306,3.8496099564028694,3.939306453502801
4.511816457272906,-1.9700297309416006,3.8890030209378974,4.013445056971611
4.492116159963491,-1.950917633628763,3.9291374715076137,4.08717497280584
4.472606983627203,-1.9305241189934699,3.970009221235672,4.1596872017792075
4.453301742437268,-1.9077745137206628,4.011606093253464,4.229916130986724
4.4342239973000614,-1.881401191705338,4.053905254563332,4.29653731384527
4.415409985383008,-1.8499671490269767,4.096870627701784,4.357999442768911
4.396910313892739,-1.8119260563642723,4.140450622129473,4.412604724135583
4.3787910533290955,-1.7657255283602455,4.184576669370829,4.458646633078972
4.361133798045493,-1.7099506938896973,4.229163135701619,4.494600857424674
4.344034291106596,-1.6434901504608717,4.274109144275865,4.519344828877898
4.327599389601987,-1.5656906683987513,4.319302592564644,4.53235998691045
4.311942482918,-1.4764590898921686,4.364626192433748,4.533860526152519
4.297177892019079,-1.3762777367312207,4.409964797695274,4.524803708287154
4.283415114651766,-1.2661238714107919,4.455212834778146,4.506770406277666
4.270753875937658,-1.1473142746543439,4.500280538840922,4.481746276065081
4.259280733191115,-1.0213175459482422,4.545098001601573,4.451862786282078
4.249067557731633,-0.8895795684065317,4.589616629464394,4.419160178138228
4.240171762047567,-0.7533936876128839,4.6338082312457765,4.385414455470321
4.232637825171438,-0.6138267586906714,4.677662375800479,4.352042099111738
4.226499557584532,-0.47169542825849836,4.721182796791597,4.320073284627294
4.221782603301947,-0.32757842784078084,4.76438352963787,4.290173056450144
4.218506819023539,-0.18184946446208447,4.807285260202372,4.2626888176076045
4.216688324378919,-0.03471831684441898,4.849912148378448,4.237707081383782
4.216341141210474,0.1137279923267113,4.8922892191922855,4.215108555305743
4.217478421133741,0.2634883155313963,4.934440304745343,4.194615919665518
4.220113304289055,0.41461650878007944,4.976386463941998,4.175832330803108
4.224259469376856,0.5671967130784851,5.018144787250029,4.1582708215644075
4.22993143650764,0.7213241556281776,5.0597274954656735,4.1413758038502975
4.237144678063922,0.8770905616610319,5.101141253504176,4.124538224871337
4.2459155836805325,1.0345732668977066,5.14238663575289,4.107105908581724
4.2562613163495095,1.1938272471945495,5.183457694838707,4.08839043037099
4.268199588821455,1.3548794511232136,5.224341599142417,4.067671640881221
4.281748383332687,1.5177249894691127,5.265018315551229,4.044200729961525
4.296925633227378,1.6823248837487428,5.305460322850845,4.017202526442202
4.313748882064865,1.8486051976059856,5.3456323481152666,3.9858775678570617
4.332234934040925,2.016457470258932,5.385491123793837,3.9494043423606264
4.352399508743514,2.185740442326815,5.424985167217444,3.906941995676468
4.374256913166782,2.3562831142091323,5.464054587174209,3.8576337013485347
4.397819744308873,2.527889208326759,5.502630924187694,3.8006108060590926
4.423098636392141,2.700343121158083,5.540637032248285,3.734997777916046
4.450102067603722,2.873417450972962,5.577987010027446,3.6599179005969944
4.478836242113451,3.0468821742243315,5.614586189033416,3.5744995679810727
4.509305063855694,3.220515519549604,5.6503311847132265,3.477882942120794
4.54151021905119,3.394116555392609,5.685110014134435,3.3692266437430307
4.575451384605116,3.567519467853463,5.7188022805718655,3.2477140526487345
4.611126579283651,3.7406094621812556,5.751279421098353,3.112558711491327
4.648532673905463,3.9133401767653355,5.782405008213266,2.96300825936146
4.687666075673117,4.0857524537892145,5.812035090806881,2.798346283971532
4.728523600211009,4.257994264220859,5.840018553646597,2.617891490888701
4.771103542853218,4.430341528992673,5.866197468555484,2.420993671455128
4.815406958143145,4.603219494620761,5.890407405270035,2.2070261481735405
4.861439153089353,4.777224172138782,5.91247766675177,1.9753747527245118
4.9092113948107405,4.953143060793861,5.932231414279015,1.7254240570700645
4.958742825418679,5.131973820448436,5.949485654849716,1.4565427210630533
5.010062563623164,5.314938493438726,5.9640510820603465,1.1680717695245761
5.063211948557551,5.503488893830012,5.975731799755592,0.8593229413052501
5.1182468374958505,5.699295163962996,5.9843250291686445,0.5295999519696882
5.175239789135481,5.90420303789109,5.989621028688341,0.17826524665326726
5.234281819514392,6.12013410515936,5.991403681154874,-0.19510873952170937
5.295483160565985,6.348884496941526,5.9894525937596566,-0.5904377948114347
5.3589720055354,6.591747694810365,5.983548215811542,-1.0065658148636416
5.424889482483504,6.848846008682481,5.973482557662906,-1.4402818614796065
5.493377942570329,7.118015154930875,5.95907973904811,-1.8846972987138177
5.564558094119638,7.393100355383827,5.940232766060972,-2.326794856390502
5.638489097673476,7.661736845526271,5.916964817497067,-2.7442824230607483
5.715106466128739,7.903376342787653,5.8895219932664595,-3.1028869118408857
5.794140229556615,8.089654836262454,5.85849312414805,-3.357143216689912
5.87503677791924,8.190265682108326,5.824921691981151,-3.4592509436751007
5.956939434740323,8.18521725527855,5.7903291825444,-3.377251127484282
6.038791607293109,8.07680248538369,5.756556671269557,-3.112860052086968
6.119559632146946,7.889935157965448,5.725428070748688,-2.7024485268276175
6.1984589837266,7.659225225072107,5.698403585480412,-2.1985089673153753
6.275051235977322,7.4145710458519245,5.676418495807257,-1.648436091717907
6.349196946435841,7.1748780086910315,5.6599341348900785,-1.084746606760231
6.420945726522751,6.949021176730424,5.649086668822476,-0.5258596287678485
6.490435938290055,6.739256557587246,5.643828072534798,0.01932107634633551
6.557828503865927,6.5442199841835516,5.644021283298261,0.547207465523993
6.623270703707763,6.360851259291806,5.649493357953501,1.0567742489242966
6.686879216300681,6.185460211893247,5.660061100442744,1.5480175454860132
6.7487338184196135,6.014270662007844,5.675541275897603,2.0211795324780004
6.808876525039692,5.843684079587768,5.695753071222383,2.476404730670987
6.86731336583557,5.6704036403003,5.720517118529093,2.9136265614485413
6.924017402238573,5.491492555089051,5.749653384143579,3.332572957322416
6.9789323277894635,5.304402613524177,5.782979113716803,3.73283143461416
7.031976353924705,5.106988764423746,5.820307428062945,4.1139415021429375
7.083046241568942,4.897515344332753,5.861446843084374,4.475496401264605
7.13202139501227,4.674654671861136,5.90620180709702,4.817243406194722
7.178767941730881,4.43747669854769,5.954374241158967,5.1391757851519735
7.223142708716359,4.185427957299114,6.005765999010487,5.441611866520695
7.26499698828935,3.91829848717218,6.060182117675694,5.725258371461855
7.304179973161072,3.636176343966775,6.117434701390313,5.991256652389399
7.3405417366007395,3.33939048740054,6.177347267914207,6.241211809375379
7.373935641474745,3.0284441218082705,6.239759386007961,6.477205757501067
7.404220082692827,2.703941906833598,6.304531443582972,6.701795970241916
7.431259501761163,2.366515925049545,6.371549403285391,6.918001479296941
7.454924661011659,2.01675717213552,6.4407294180783605,7.129276234922006
7.475092232733014,1.655162216259601,6.51202218042758,7.339466262024592
7.49164385489561,1.2821096538919414,6.585416843047827,7.55273973672132
7.50446495143453,0.8978899470378967,6.66094424041504,7.773465691759797
7.513443850904909,0.5028281486940048,6.738678897332638,8.00599351196996
7.518472132391849,0.09756606686395275,6.818738832452337,8.254245869784004
7.519447793060488,-0.3163875597787439,6.901281291150177,8.520976402988282
7.5162839174627,-0.7356766935293606,6.98649105518006,8.80646355185686
7.5089271505274064,-1.153493104821576,7.074555690698628,9.106356562097298
7.497392219479191,-1.5572594600227851,7.1656192563196015,9.408517443714466
7.4818196248789635,-1.9260432695847665,7.259704430756746,9.689404849888842
7.462559192183115,-2.2294890940086614,7.356598479255634,9.912369984779623
7.440264301243029,-2.4319028856336176,7.4557221791034305,10.032779831541957
7.4159452723866925,-2.5045572452387987,7.55604997741885,10.014181080084363
7.390899699934304,-2.4417943161301534,7.656191788219694,9.849590690297786
7.366481756773003,-2.266991410968035,7.754687695122672,9.569180997459622
7.343811842663323,-2.0205825685112293,7.850379505097268,9.224136706729208
7.323606016978211,-1.7414950029266283,7.94262087216456,8.862290344677769
7.306191066948944,-1.4568487943498964,8.031243775611337,8.515247507151901
7.291622579005446,-1.1816172440837136,8.116396250682856,8.198706835680428
7.279806406564608,-0.9223934116128638,8.19838331903966,7.91786674562177
7.2705824724484795,-0.6810579023140381,8.277561986495877,7.672380814067988
7.263771893425339,-0.4571882261967608,8.354285794636557,7.459481702551237
7.259200011163371,-0.249394156832971,8.428880611662068,7.275632147708083
7.256706069595042,-0.05598858086888456,8.50163693313915,7.117298927122632
7.2561461837863535,0.12470211009737134,8.572809922410375,6.981269873530151
7.257393204887327,0.2942100737216411,8.642622621145676,6.864751424605906
7.260335305624544,0.45388595768374107,8.711270135391736,6.76536850735511
7.264874165201381,0.604898865101125,8.778923820465288,6.681125825006079
7.270923153852393,0.7482528482758628,8.845735078715348,6.610357877566725
7.278405682335151,0.884808732443302,8.911838657491016,6.551679588465108
7.287253769659585,1.015306160544248,8.977355453375667,6.5039420951801405
7.297406831265027,1.1403837139809836,9.042394874327469,6.466194920103011
7.308810668404837,1.2605963714556432,9.107056823528499,6.437654299531417
7.321416632119393,1.3764302055922304,9.171433366523813,6.417676903208921
7.335180934175316,1.4883144782279576,9.235610135555902,6.405738035694203
7.350064078957596,1.5966313757725275,9.299667515912844,6.401413440477689
7.366030392715321,1.7017236228571504,9.363681650317622,6.404363918410931
7.383047628943893,1.8039001731235405,9.427725289501732,6.4143220737963
7.401086630675128,1.903440123142433,9.491868510239694,6.431080593168102
7.420121031906553,2.0005949394646763,9.556179316171376,6.454481535600886
7.4401269813012,2.095589034042782,9.620724131527384,6.4844061676449165
7.4610828716416275,2.188618671311863,9.685568193203833,6.520764911716448
7.482969058354747,2.279849141674539,9.750775842320998,6.563486996118643
7.505767549771492,2.3694100915951353,9.816410712282185,6.612509400636243
7.529461650687443,2.457388861296289,9.882535806288548,6.667764687319053
7.554035539300406,2.5438216498387045,9.949213453161738,6.729167296227276
7.579473755798793,2.628682308858572,10.016505126124011,6.796597876936293
7.605760578887378,2.711868567984339,10.084471104893375,6.8698852276560585
7.632879264567221,2.793185528295808,10.153169957169935,6.948785438127957
7.660811119850179,2.8723263412948743,10.222657811551214,7.03295789878267
7.689534383263128,2.948850141664273,10.292987390539041,7.121937972838289
7.719022884679771,3.022157550722631,10.364206770267424,7.2151063642593805
7.749244460186997,3.091464447420725,10.436357833910018,7.311655595332099
7.780159104661204,3.155775250481372,10.509474389863339,7.410554581496566
7.811716857166018,3.2138576988095666,10.583579935678305,7.5105131052360825
7.843855434154113,3.2642220677932583,10.658685066730666,7.60994907649469
7.876497654832046,3.30510888411988,10.734784557495612,7.706962814078019
7.909548743673245,3.3344903938194648,10.811854185636392,7.799324101130093
7.94289364761144,3.3500920769315097,10.889847426647693,7.884479241012901
7.976394568380755,3.34944102197936,10.968692219057822,7.959586377336538
8.009888978600548,3.3299474620154492,11.048288082831187,8.021587362354872
8.043188453220703,3.2890236370371713,11.128503956454736,8.06732274360188
8.076078689591075,3.2242398784550663,11.209177183890755,8.093692309455585
8.108321088375625,3.1335112790033466,11.290114106985312,8.097856768309533
8.139656201165659,3.0153001118499003,11.371092674668407,8.077466986451721
8.169809202284158,2.868810875099487,11.451867344532925,8.03089734993275
8.198497311035153,2.6941489458252077,11.532176318032253,7.957451934529869
8.225438800493405,2.492413097926474,11.611750837377551,7.857509459206387
8.25036293147267,2.2656984944569114,11.690325931969616,7.732577940609945
8.27301991641724,2.0170000844799834,11.767651711375715,7.585242928593736
8.29318991726204,1.7500238764843106,11.843504140661652,7.419011666319736
8.310690156026883,1.4689305987107943,11.91769425732485,7.238074586270261
8.325379462013991,1.1780478357876467,11.990075003187552,7.047019749965439
8.337159940371867,0.8815897071299361,12.060545200687207,6.850541345575792
8.345975837443167,0.5834174077069345,12.129050614142965,6.65317947383698
8.351810011520236,0.28686213796461746,12.195582408881336,6.45911754467853
8.354678632899882,-0.005381846601956786,12.260173584328122,6.272049739386181
8.354624814433862,-0.29129841943717155,12.322894081721984,6.095118143952095
8.35171183023949,-0.5695374861913659,12.383845263161504,5.930909932734646
8.346016455377576,-0.8393657617559471,12.443154362488851,5.781500226442452
8.337622797760016,-1.100596549893482,12.500969364753276,5.648525425293098
8.326616832261081,-1.3535122846623133,12.557454619006206,5.533273683922077
8.313081709414458,-1.5987902179859284,12.612787355845427,5.43678242116055
8.2970938072346,-1.8374382563937788,12.667155180057032,5.359936301039588
8.278719424670662,-2.070745138845787,12.720754543067427,5.303562338647709
8.258011973282205,-2.3002471278064656,12.773790166453905,5.268521387537311
8.23500950200414,-2.527712140002774,12.826475380329278,5.255797202710049
8.209732380604112,-2.75514161828515,12.879033352356378,5.266585601777619
8.182180964421262,-2.9847902079819506,12.931699208374155,5.302387012685458
8.152333062341443,-3.219203126702631,12.984723078501009,5.365105806432646
8.120141031074416,-3.461270492788329,13.038374136565336,5.457158844279477
8.085528326146532,-3.714295847375207,13.09294572500813,5.581592498985549
8.04838536767278,-3.9820707054406332,13.148761649997986,5.742199439266639
8.008564660618374,-4.268934034138111,13.206183644390652,5.943607951577935
7.965875320276993,-4.579766208954808,13.26561972390643,6.191275126480628
7.920077658187445,-4.919802750951108,13.327532475171237,6.491224924521102
7.870879630677934,-5.2940177084529685,13.392444724416448,6.849181908022707
7.817939453593405,-5.70555905534376,13.460936543496675,7.268375382184753
7.760883863039967,-6.152263517801456,13.533620297318523,7.74464763303046
7.699361227861953,-6.619805321976079,13.611066773648828,8.25682859240619
7.633163174642192,-7.070771556460525,13.69363505957289,8.751358188980095
7.5624554590775865,-7.4347850508243045,13.781148641462691,9.128292654952643
7.488107608569344,-7.619336110229323,13.872431568012217,9.256229409484735
7.411914247467051,-7.5640032794270144,13.964993862107065,9.047978213806584
7.33627421467278,-7.301463975134446,14.055473644245131,8.545842191991165
7.263259574921436,-6.935924065259291,14.140932066165043,7.891678359470264
7.193900334268843,-6.56260536724467,14.219848849759746,7.214968624135452
7.128274280596396,-6.230692773044547,14.2919985360011,6.581537147522251
7.06596735286595,-5.95497493691124,14.357813907476324,6.009804181542184
7.006417603496838,-5.7345329169820625,14.417911949291746,5.496637401009126
6.949072274327017,-5.56340280177007,14.472878323301837,5.032021145174367
6.893438246309317,-5.434962043510186,14.52319853475358,4.605053996603893
6.839088625874215,-5.343370369728358,14.56924907471962,4.205906776728583
6.785654922176931,-5.283869220722277,14.611308142486905,3.8262345545159824
6.732816229969709,-5.2526944560493725,14.649570488032065,3.459081674824325
6.680289285409215,-5.246884741532219,14.684161304780309,3.0986678258438727
6.6278204379938925,-5.264081640072652,14.715147983038747,2.7401876299177563
6.575179621593166,-5.302348515687554,14.742549859337926,2.379661939178538
6.5221561364362906,-5.360011751489133,14.76634647872971,2.0138459702447857
6.468556018921399,-5.435521230807392,14.786484938432158,1.6401884899735726
6.414200806613326,-5.527326838470485,14.802886823331894,1.256832594597495
6.35892753822862,-5.633769892386809,14.815455149277868,0.8626466911843396
6.302589839304752,-5.752991332089436,14.824081616189712,0.4572722590659763
6.245059925983858,-5.882861361115818,14.828654338780371,0.04117260730642491
6.1862313123726995,-6.020937388862683,14.829066064853436,-0.3843352311398289
6.126021938484072,-6.1644578245878865,14.825222712542038,-0.817083998826416
6.064377360238193,-6.310377865700688,14.817051872553774,-1.254111624889462
6.001273581581186,-6.455449533979148,14.80451075630488,-1.691779418159657
5.9367190862413945,-6.596342134716124,14.787592962123284,-2.125954580798619
5.870755664894233,-6.729792183649845,14.766333416315298,-2.5522468529005
5.803457743057734,-6.852765519824051,14.740810947786294,-2.9662775621667974
5.734930087859494,-6.962610817592885,14.711148172164625,-3.3639511999195846
5.665303979683565,-7.057184407339916,14.67750866016543,-3.7416974796059628
5.594732135610166,-7.134931294595593,14.64009168536937,-4.096656529057652
5.52338282266421,-7.1949151955783694,14.599125120078794,-4.426790103248175
5.451433670708426,-7.236799056452377,14.554857219046312,-4.730914487786961
5.379065680143903,-7.260784672467186,14.507548074168442,-5.008662655344366
5.3064578334192305,-7.267524247529875,14.457461447614998,-5.260391618394319
5.233782590943932,-7.2580177329761515,14.404857531431055,-5.487054702220677
5.16120241361417,-7.233508191954186,14.349986984408849,-5.690058040265812
5.088867331694628,-7.195384351794733,14.293086404006191,-5.8711172916397025
5.01691348817668,-7.145096017917154,14.234375231089794,-6.032125954904807
4.945462527997509,-7.084084910687811,14.174053971540747,-6.175041988573721
4.874621678890631,-7.013731147592679,14.11230355165501,-6.301795543261068
4.804484367414704,-6.935314105474042,14.0492855962224,-6.414217786755919
4.735131226359964,-6.84998564528818,13.985143418354841,-6.513989048956784
4.666631369907082,-6.758753469049503,13.920003527865273,-6.602603636787512
4.5990438352165866,-6.66247250738362,13.853977491497398,-6.681348421211159
4.53241911014275,-6.561842545067732,13.787164007285286,-6.751292447347203
4.466800684692073,-6.457410667017404,13.719651082811813,-6.813285181433067
4.4022265780218985,-6.3495774767766,13.651518230997482,-6.867961456235295
4.3387308032541325,-6.238606363817102,13.58283861643513,-6.915751627176291
4.276344739615961,-6.124635355715285,13.513681100163366,-6.956895856693294
4.215098386058808,-6.007691279361275,13.444112141596433,-6.991461778455976
4.1550214732651956,-5.88770607065757,13.374197523811873,-7.019365043794646
