th1 (rad),w1 (rad/s),th2 (rad),w2 (rad/s)
0.9894251705983262,-2.941867770379789,1.41424575972452,1.3679945849224504
0.9600064928945283,-2.9721181446009197,1.4279257055737444,1.263084020088793
0.9302853114485191,-2.9980714012036183,1.4405565457746323,1.1494043307205781
0.900304597436483,-3.0203541761882513,1.452050589081838,1.0277777762982598
0.8701010556746004,-3.0395261663051,1.4623283668448206,0.8989768976267574
0.8397057940115494,-3.056062078320143,1.471318135821088,0.7637011765231516
0.809145173228348,-3.0703426947859747,1.4789551475863196,0.6225663564114445
0.7784417462804882,-3.082652872380392,1.485180811150434,0.4761034744143907
0.7476152175566844,-3.093184292064534,1.489941845894578,0.3247645995555761
0.716683374636039,-3.102041099760949,1.4931894918901336,0.16893266309650753
0.6856629636384295,-3.1092470180165632,1.4948788185210986,0.008933337599214691
0.6545704934582639,-3.114752947899833,1.4949681518970908,-0.1549525036698742
0.6234229639792656,-3.118444452466063,1.493418626860392,-0.3224767256724877
0.5922385194546049,-3.120148797603795,1.490193859603667,-0.4934128733584887
0.561037031478567,-3.119641426329311,1.4852597308700821,-0.6675464580893186
0.5298406172152739,-3.1166518727029024,1.478584266289189,-0.8446667600420612
0.49867409848824484,-3.1108691980652052,1.4701375986887684,-1.024560216172373
0.4675654065075928,-3.101947070201238,1.4598919965270447,-1.2070054088353
0.43654593580558043,-3.0895086172123616,1.4478219424386918,-1.3917696454814164
0.4056508496334568,-3.073151181006593,1.4339042459838776,-1.5786071118619867
0.3749193378233909,-3.052451076433384,1.4181181748652576,-1.7672585806136334
0.34439482705905705,-3.0269684352469373,1.4004455890591212,-1.9574526577113587
0.3141251427065877,-2.996252182033529,1.3808710624820075,-2.148908547133747
0.28416262088625244,-2.9598451539834882,1.35938197701067,-2.3413403069211713
0.25456416934641757,-2.9172893396076858,1.3359685739414584,-2.5344625566072834
0.2253912759503407,-2.868131174871458,1.3106239483753857,-2.727997576639527
0.19670996420162612,-2.8119268006584286,1.2833439726089904,-2.9216837153637973
0.16859069619504183,-2.7482471553014114,1.2541271354553525,-3.115284989262847
0.1411082246420277,-2.676682752998273,1.222974285562724,-3.3086017282617477
0.11434139711204498,-2.596847986846875,1.1898882682801064,-3.5014820804906903
0.08837291724357624,-2.5083847984978545,1.1548734474751996,-3.6938341493379574
0.06328906925859769,-2.410965580856543,1.11793510598182,-3.885638487402163
0.03917941345003226,-2.304295233640001,1.0790787211077986,-4.076960611235367
0.016136461113632247,-2.1881123847515265,1.0383091149954449,-4.267963116419387
-0.005744662733883018,-2.0621899391292406,0.995629483831251,-4.458916845064599
-0.026366562125175425,-1.9263353446249727,0.9510403153806051,-4.65021035490356
-0.04562991557142515,-1.7803913078398372,0.9045382118315695,-4.842356608680411
-0.06343382864982353,-1.6242382076028825,0.8561146457447654,-5.03599526255972
-0.07967621072585235,-1.4578002255525422,0.8057546931191681,-5.231888056513782
-0.09425421298137777,-1.2810583703829446,0.7534358125540304,-5.430903408357962
-0.10706479668520721,-1.0940752991481029,0.6991267784704507,-5.633984112085848
-0.11800554967668825,-0.8970393802588951,0.6427869373495922,-5.8420886708828705
-0.1269759434792772,-0.6903390709084343,0.5843660506407635,-6.056091826289333
-0.13387933418836157,-0.47468355855416666,0.5238051323778702,-6.276622963038313
-0.13862616977390324,-0.251291393274197,0.46103890274748704,-6.503812602454974
-0.1411390837066452,-0.022173685111945146,0.3960007767229373,-6.736909428398908
-0.14136082055776467,0.20946298708746344,0.32863168243894825,-6.973730245178779
-0.13926619068689003,0.4386888308154948,0.2588943799871605,-7.2099295437562585
-0.13487930237873508,0.6582546372660756,0.18679508454959787,-7.438155313348883
-0.12829675600607432,0.8581163185179728,0.11241353141610903,-7.647335112430802
-0.11971559282089458,1.0254794239521725,0.035940180291801,-7.822621728265619
-0.10946079858137286,1.1459486446122382,-0.04228603699085519,-7.946786151839075
-0.09800131213525048,1.2062245061989907,-0.12175389850924594,-8.003664746496028
-0.08593906707326057,1.1979480129983735,-0.2017905459742062,-7.983142601448098
-0.07395958694327684,1.1209744799167531,-0.2816219719886872,-7.885384660466969
-0.06274984214410931,0.9839014836494301,-0.3604758185933569,-7.721430285202065
-0.05291082730761501,0.8012540985944197,-0.43769012144537756,-7.509411989086113
-0.04489828632167081,0.5891083958723127,-0.5127842413362387,-7.268831148344482
-0.039007202362947684,0.36158500214646816,-0.5854725528196835,-7.016116614267917
-0.035391352341483,0.1292986741654571,-0.6556337189623627,-6.762825329322895
-0.03409836559982843,-0.10062077909444095,-0.7232619722555916,-6.515887206155801
-0.03510457339077284,-0.3237861974119286,-0.7884208443171496,-6.278728947576557
-0.038342435364892125,-0.5377028383144492,-0.8512081337929153,-6.052470178920161
-0.04371946374803662,-0.7410752447268708,-0.9117328355821169,-5.836864555279521
-0.05113021619530533,-0.9333218613727295,-0.9701014811349121,-5.630941094600274
-0.06046343480903262,-1.1142633772419444,-1.026410892080915,-5.43340564848074
-0.07160606858145206,-1.283934062571534,-1.0807449485657223,-5.2428776953145775
-0.08444540920716741,-1.4424731681022118,-1.133173725518868,-5.0580227877052915
-0.09887014088818953,-1.5900659158521866,-1.183753953395921,-4.877621966555441
-0.11477080004671139,-1.7269141406832407,-1.2325301730614753,-4.700604287695108
-0.1320399414535438,-1.8532240723695554,-1.2795362159384263,-4.52605827457479
-0.15057218217723936,-1.9692035895612747,-1.3247967986841742,-4.353231583869993
-0.1702642180728521,-2.0750643106923814,-1.3683291145228742,-4.181524220428555
-0.19101486117977592,-2.1710257532519464,-1.4101443567271597,-4.010478313343531
-0.21272511871229538,-2.2573199346355155,-1.450249139860595,-3.8397661282280318
-0.23529831805865054,-2.334195488442758,-1.4886468011428753,-3.6691772406514542
-0.2586402729430781,-2.4019208039663345,-1.5253385735493898,-3.4986053876336283
-0.28265948098274146,-2.4607859686287714,-1.560324627425726,-3.3280353015453237
-0.30726734066902917,-2.5111034655569893,-1.5936049804411794,-3.1575297267184848
-0.3323783753245991,-2.5532076880837713,-1.6251802777083642,-2.987216772254134
-0.35791045220543677,-2.587453401430817,-1.6550524454309055,-2.8172777350775866
-0.38378498621974494,-2.6142133221385295,-1.6832252227816813,-2.64793551827295
-0.40992711944113025,-2.633875005981391,-1.7097045779644109,-2.479443761990382
-0.43626586950094415,-2.6468372403956266,-1.7344990155843147,-2.312076793373486
-0.4627342419049004,-2.653506131581561,-1.7576197835180496,-2.1461204864886483
-0.48926930322071605,-2.6542910623266978,-1.7790809883829362,-1.981864103332449
-0.515812213843983,-2.64960067664309,-1.7988996294162607,-1.8195931637522864
-0.542308220610414,-2.6398390236144644,-1.8170955610537836,-1.6595833670648525
-0.5687066108465586,-2.625401967225473,-1.833691394724432,-1.5020955629092934
-0.5949606305188133,-2.606673942954908,-1.848712350353525,-1.3473717449096079
-0.6210273699483624,-2.5840251168413166,-1.862186067802621,-1.195632019266692
-0.6468676211167755,-2.557808979575723,-1.8741423879952879,-1.0470724823505084
-0.6724457109125328,-2.5283603876637732,-1.8846131128187928,-0.9018639272682022
-0.6977293147891706,-2.4959940462829615,-1.893631752091475,-0.7601512894673867
-0.7226892552520001,-2.461003414352857,-1.9012332649861488,-0.6220537356307145
-0.7472992893955287,-2.4236600015446275,-1.9074538023424559,-0.48766529813179094
-0.771535889410975,-2.3842130193228455,-1.9123304553237739,-0.35705595868712325
-0.7953780196042034,-2.342889343358121,-1.915901014910645,-0.2302730889796368
-0.8188069130377846,-2.299893742413998,-1.9182037458004413,-0.10734316232043241
-0.8418058504619246,-2.255409328694322,-1.9192771774236457,0.011726341772248114
-0.8643599437488678,-2.2095981862265583,-1.9191599140059232,0.12694490945891224
-0.8864559256111334,-2.1626021367564343,-1.9178904649113342,0.23833690117868728
-0.9080819469786977,-2.114543606477927,-1.9155070958995473,0.3459394481393853
-0.929227383043477,-2.0655265614035416,-1.9120477014181534,0.44980037922831656
-0.9498826486575124,-2.01563748402792,-1.9075496976258701,0.5499762129354108
-0.9700390234977916,-1.964946368939532,-1.902049935496516,0.6465302418434601
-0.9896884871871869,-1.9135077200253081,-1.8955846330780812,0.7395307312246588
-1.00882356438744,-1.8613615367677232,-1.8881893257658346,0.8290492483385894
-1.0274371797551172,-1.8085342817620087,-1.8798988332824487,0.9151591351448226
-1.0455225225727371,-1.755039825914043,-1.8707472419310005,0.9979341342608038
-1.0630729208318777,-1.7008803717596548,-1.8607679005883924,1.077447176002412
-1.0800817245494743,-1.646047358916352,-1.8499934288283681,1.1537693330858958
-1.0965421981386378,-1.5905223587714294,-1.8384557354975093,1.2269689488486981
-1.1124474217263522,-1.5342779680395333,-1.8261860460090222,1.2971109444247073
-1.1277902014067476,-1.4772787126764364,-1.8132149365647752,1.3642563099096336
-1.142562988533512,-1.4194819746753895,-1.7995723734656788,1.4284617838642872
-1.1567578082802659,-1.360838954336558,-1.785287755627036,1.489779724195631
-1.1703661978236315,-1.3012956795165407,-1.7703899583850795,1.5482581711942323
-1.1833791546187968,-1.240794070972373,-1.7549073766731371,1.6039410999885653
-1.1957870953285206,-1.1792730690937383,-1.7388679656732515,1.6568688546712071
-1.207579826019458,-1.116669822032711,-1.7222992771265395,1.7070787497569213
-1.218746524239785,-1.052920928586637,-1.7052284896289702,1.7546058165344454
-1.2292757335256514,-0.9879637214368626,-1.6876824314636258,1.7994836626063904
-1.23915537074002,-0.9217375679744126,-1.669687594837562,1.8417454030983877
-1.2483727464197643,-0.8541851576547976,-1.6512701408065782,1.8814246125811032
-1.2569145979963123,-0.7852537375138772,-1.6324558946807672,1.9185562388647994
-1.2647671353714511,-0.7148962521622559,-1.6132703322921191,1.9531774148243015
-1.2719160978930737,-0.6430723422727237,-1.593738558143876,1.985328103600847
-1.278346821315801,-0.5697491571359724,-1.5738852771078677,2.0150515169727887
-1.2840443128871606,-0.49490194279529826,-1.5537347619381399,2.04239425697497
-1.2889933323151135,-0.4185143775939699,-1.5333108193683902,2.067406146874995
-1.2931784760910532,-0.3405786410984798,-1.5126367578996402,2.090139738476805
-1.296584262502038,-0.26109521912473355,-1.4917353605148722,2.1106495067248012
-1.2991952146932855,-0.1800724653465821,-1.4706288654476243,2.1289907674222137
-1.3009959393467514,-0.0975259568115168,-1.4493389577734022,2.145218376960861
-1.3019711989148666,-0.013477694773162255,-1.4278867740037935,2.1593852918037606
-1.3021059758625981,0.07204478793841257,-1.406292921085756,2.171541078103326
-1.301385527983214,0.15900934718039067,-1.3845775103047226,2.181730467148151
-1.2997954345114102,0.24738011038177227,-1.362760205633241,2.1899920501773282
-1.2973216334075925,0.3371182627821697,-1.3408602851314677,2.196357197314907
-1.2939504507797708,0.4281826873663432,-1.3188967131583187,2.2008492715549752
-1.2896686239061073,0.520530420873832,-1.296888220442769,2.203483191915325
-1.284463319697369,0.614116901186682,-1.2748533885236157,2.2042653822157865
-1.278322150685502,0.7088959937820875,-1.2528107347014579,2.203194125345292
-1.2712331907476813,0.8048197956440512,-1.230778793448005,2.2002603288293003
-1.2631849927912409,0.9018382233038567,-1.208776190159712,2.1954486969012037
-1.2541666105582023,0.9998983971664952,-1.1868217031907,2.1887392974491
-1.2441676265865373,1.0989438369788618,-1.164934310216209,2.1801095089827607
-1.2331781882167487,1.1989134834851494,-1.1431332151263816,2.169536332590047
-1.2211890533818972,1.2997405594685518,-1.121437851800481,2.156999055915975
-1.2081916477872117,1.4013512800854018,-1.0998678612413213,2.142482259544375
-1.1941781349863576,1.5036634183073552,-1.0784430386458776,2.1259791597697038
-1.179141500803284,1.606584727077895,-1.0571832470481806,2.107495284569987
-1.163075653532505,1.7100112161641343,-1.0361082942024806,2.087052480570427
-1.1459755413708637,1.8138252793850356,-1.0152377693967765,2.0646932468249415
-1.1278372885770134,1.917893667728841,-0.994590836928527,2.0404853851747333
-1.108658351899725,2.022065306734253,-0.9741859830767797,2.014526945501365
-1.0884376988323825,2.1261689634092305,-0.9540407136217661,1.9869514259931678
-1.0671760091982903,2.230010780004182,-0.9341711993618345,1.957933162118083
-1.0448759013982485,2.333371710289463,-0.9145918677406536,1.9276928018890487
-1.0215421842953538,2.436004919668063,-0.8953149397217631,1.8965027179922092
-0.9971821350986732,2.537633244222885,-0.876349912541841,1.8646921487809602
-0.9718058026564443,2.6379468457219866,-0.8577029910540315,1.8326517905039532
-0.9454263341992245,2.736601248589716,-0.8393764731489919,1.8008374847821436
-0.9180603217133273,2.833215998027849,-0.8213680983011704,1.769772563399476
-0.8897281617330488,2.9273742305383386,-0.8036703726671757,1.7400483357719334
-0.8604544194276654,3.018623490781602,-0.7862698893094563,1.7123221463490552
-0.8302681845198494,3.1064781505827073,-0.7691466678459657,1.6873124076783554
-0.7992034030140224,3.1904237729937015,-0.7522735437691822,1.6657900516060173
-0.7672991652840854,3.269923701830168,-0.735615643253122,1.6485659587347583
-0.7345999282657837,3.3444280325775213,-0.7191299836657744,1.6364741435125647
-0.7011556479400085,3.4133849284774693,-0.7027652422306487,1.6303507969960476
-0.6670217986552338,3.4762539925717237,-0.6864617342606882,1.6310097104100967
-0.6322592587295166,3.5325211156228624,-0.6701516371565873,1.6392150836622426
-0.5969340475732879,3.581713932089063,-0.6537594863199649,1.6556532000708821
-0.5611169082523974,3.6234167864801514,-0.6372029543192561,1.6809048363182186
-0.5248827403875959,3.657283998775682,-0.6203939059560739,1.7154204836097229
-0.488309900399839,3.6830502666229226,-0.6032397011199767,1.7595004079665972
-0.4514793977336098,3.700537272188469,-0.5856446970403107,1.8132812421827151
-0.4144740250117251,3.709655952227251,-0.5675118846184836,1.8767302060482225
-0.37737746548945256,3.7104043813756147,-0.5487445825580013,1.9496472821368236
-0.3402734216756964,3.702861724498955,-0.529248109736633,2.0316748613344853
-0.30324480443070684,3.6871791432573167,-0.5089313611232882,2.122313654759587
-0.26637301299813365,3.6635688234458215,-0.4877082245756923,2.2209431600181064
-0.22973732476367542,3.6322923882470786,-0.4654987929755112,2.3268447302331374
-0.19341440088120465,3.593649884838188,-0.44223034567317987,2.439225322740296
-0.15747790203282278,3.54797031809632,-0.4178380924457769,2.55724024777512
-0.12199819885185959,3.495604413796673,-0.3922656899680257,2.680013613453024
-0.08704215471389284,3.4369199840403164,-0.36546555383349544,2.806655585082208
-0.05267295487348968,3.372299986938714,-0.33739899798267337,2.9362759731128674
-0.018949955004102535,3.302143149447132,-0.3080362382515447,3.0679939896250654
0.014071476490368787,3.2268668663611533,-0.277356298355294,3.2009442504473813
0.04634014515398032,3.146911994345639,-0.2453468558508202,3.3342792536251467
0.07780926509743671,3.0627491120548114,-0.21200406331456872,3.467168654957779
0.10843675621798482,2.9748857956811205,-0.17733237676499092,3.598795715393046
0.13818561417479602,2.883874442366144,-0.14134441961106045,3.7283513429530357
0.16702435859845746,2.7903201420820833,-0.10406090618153009,3.855026221520529
0.1949275600192783,2.694888035497791,-0.0655106439663248,3.9780016337002664
0.22187644037425622,2.598309489963095,-0.025730627629322142,4.096439761466638
0.24785953527388715,2.501386275264763,0.015233769985344245,4.209474492015277
0.27287339802653476,2.4049917349793324,0.057328514905497015,4.316204056284463
0.2969233153763281,2.310067756236963,0.10049055546834165,4.415687148880418
0.3200239929386977,2.217616193265068,0.14464742695714583,4.506944452717132
0.34220015487134836,2.12868337910273,0.18971687148431715,4.588967613358628
0.36348698866237567,2.044336570294138,0.23560654761790345,4.6607375365944925
0.38393035436531703,1.9656317216982886,0.2822139229838484,4.7212532669370395
0.40358667158229994,1.8935729608470095,0.3294264556532188,4.76957153148732
0.42252240119077006,1.8290655130595788,0.37712217096809203,4.804855302247209
0.44081305632136586,1.772865462084299,0.4251707239905641,4.82642763102208
0.45854171094220886,1.7255312825135356,0.4734350003007849,4.833824967801918
0.47579702376734423,1.687383080612273,0.521773249978804,4.8268427916859515
0.49267085457346693,1.6584754595038498,0.5700416778956635,4.805566278007348
0.5092556091685054,1.6385886126594935,0.618097340675737,4.770380257859295
0.5256414952951004,1.6272397556223552,0.6658011432543299,4.721955768365156
0.541913892851324,1.6237138634121993,0.7130207009379815,4.661214365675959
0.558151031485446,1.6271096946297425,0.7596328445947411,4.589275049929357
0.5744221284317435,1.6363950278604058,0.8055255950940347,4.507391146455175
0.5907860787103475,1.6504643598870559,0.8505995065585864,4.416885241111452
0.6072907223092181,1.668193001425082,0.894768358969701,4.319089321541062
0.6239726523234689,1.6884831470689572,0.9379592521851116,4.215295168313572
0.6408574837941584,1.71029951204342,0.9801122038682473,4.106717516576444
0.6579604789145926,1.73269399710269,1.0211793790340118,3.9944702271419072
0.6752874188856195,1.7548202402857218,1.0611240813054308,3.8795540588229205
0.6928356212884768,1.775939737727715,1.09991962189366,3.7628537273380713
0.7105950186657539,1.7954215276491696,1.1375481591670407,3.6451416695176513
0.7285492339422456,1.8127373757161833,1.1739995758622173,3.5270861080168583
0.7466766076994074,1.8274541316951198,1.209270436942386,3.4092614277349016
0.7649511490163585,1.83922457370616,1.243363051219735,3.292159369960334
0.7833433947534201,1.8477777023783595,1.2762846449193381,3.1762000206149033
0.8018211717772037,1.8529091390128418,1.308046645125487,3.0617419623777935
0.8203502631673321,1.8544720371782664,1.338664064749265,2.9490912605338226
0.8388949835391147,1.852368736193518,1.3681549773546031,2.8385091639423403
0.85741867090105,1.846543259096322,1.3965400689940266,2.7302185403123254
0.8758841034920132,1.8369746753186877,1.4238422543971498,2.6244091463946266
0.8942538502452001,1.8236712979747367,1.4500863458610962,2.5212418749247196
0.9124905632249475,1.8066656577112614,1.4752987646103435,2.4208521344526126
0.9305572198020601,1.7860101819224192,1.4995072859548697,2.32335251566613
0.9484173216212842,1.761773504266648,1.522740811111531,2.2288348856586637
0.9660350566639507,1.73403733101501,1.5450291599681176,2.1373720347026355
0.9833754299741009,1.702893795270761,1.566402880315144,2.0490189816134112
1.0004043679268084,1.6684432359338093,1.586893070131278,1.9638140256314296
1.0170888002861465,1.6307923444930223,1.6065312103875924,1.8817796159716214
1.0333967237310766,1.5900526287945513,1.6253490065473086,1.8029230952930613
1.049297250019022,1.5463391486057294,1.6433782375002393,1.7272373604861133
1.0647606415050794,1.4997694829821242,1.6606506111051005,1.6547014733133705
1.0797583363349006,1.4504628941476152,1.6771976258382342,1.5852812444201065
1.0942629652763767,1.3985396568522492,1.6930504382824352,1.5189298068477244
1.1082483618448993,1.3441205260308435,1.7082397363509125,1.4555881892278084
1.1216895671052076,1.2873263190943567,1.7227956182431907,1.3951858941045372
1.1345628302961512,1.2282775923827007,1.7367474771842362,1.337641483151837
1.1468456062199783,1.1670943942157588,1.7501238920157545,1.2828631682680052
1.158516550162136,1.1038960796109067,1.7629525236984345,1.2307494055201396
1.169555510958245,1.0388011740934013,1.775260017753636,1.181189487572086
1.179943522699179,0.9719272761085589,1.7870719126293568,1.1340641294793532
1.1896627954602645,0.9033909893486147,1.7984125539241504,1.0892460425017283
1.1986967053537507,0.8333078778320957,1.8093050143491678,1.0466004908053927
1.2070297841320716,0.7617924378248608,1.8197710192572216,1.0059858265396011
1.2146477085103202,0.6889580816832407,1.8298308775226175,0.967253999715057
