th1 (rad),w1 (rad/s),th2 (rad),w2 (rad/s)
5.1055815313482595,0.8888459570161017,5.703514488667414,0.5644969608823744
5.114469990918421,0.9967868684965484,5.709159458276238,0.5245155954368493
5.124437859603386,1.1051993993943268,5.714404614230607,0.4823641541629155
5.1354898535973295,1.2141531096997011,5.719228255772236,0.4378159482087528
5.147631384694327,1.3237149291816979,5.723606415254323,0.3906562447282452
5.160868533986144,1.43394792472439,5.727512977701605,0.3406858153920614
5.175208013233388,1.5449095263846413,5.730919835855525,0.28772536689716266
5.190657108497234,1.6566490315074747,5.733797089524497,0.23162110849413295
5.207223598812309,1.7692041650646626,5.736113300609438,0.17225176650529855
5.224915640462956,1.882596427503051,5.737835818274491,0.10953741778120835
5.243741604737986,1.9968249117584502,5.738931192452303,0.04345057835267112
5.263709853855571,2.111858224986109,5.739365698235829,-0.025969959408711954
5.284828436105432,2.2276241196655038,5.739105998641742,-0.09860201550220439
5.307104677302087,2.343996443043491,5.73811997848672,-0.17421913324060503
5.330544641732522,2.4607790852856684,5.736377787154314,-0.252465531727566
5.3551524325853785,2.5776867927071745,5.733853131837039,-0.33282681204253434
5.3809293005124506,2.6943230781245817,5.730524863716614,-0.41459688589088406
5.407872531293696,2.810156084855573,5.726378894857705,-0.4968425289199031
5.435974092142252,2.9244942217266217,5.7214104695685055,-0.5783683805682112
5.465219034359518,3.036464722047282,5.715626785762823,-0.6576871692335381
5.4955836815799906,3.144999920185429,5.709049914070488,-0.7330023287188754
5.5270336807818445,3.2488377065827803,5.701719890783299,-0.80221257942076
5.559522057847673,3.3465437236844164,5.693697764989092,-0.8629496128420454
5.592987495084517,3.436562466827305,5.685068268860672,-0.9126593852053452
5.62735311975279,3.5173014629105426,5.675941675008619,-0.9487331133817293
5.662526134381896,3.5872463946641524,5.666454343874801,-0.9686848294972777
5.698398598328537,3.6450959044020452,5.656767495579829,-0.9703589835412845
5.7348495573725575,3.6898952483619576,5.6470639057444165,-0.9521375442308567
5.771748509856177,3.7211420814353144,5.637542530302108,-0.9131072624585922
5.808959930670531,3.7388394936428853,5.6284114576775215,-0.8531501348101844
5.846348325606959,3.7434822963361993,5.619879956329419,-0.772935611853847
5.883783148570321,3.735979250931833,5.612150600210881,-0.6738172145752859
5.921142941079639,3.717529825549346,5.605412428065128,-0.5576594700657841
5.958318239335132,3.6894828484018567,5.5998358333644696,-0.42663430697825877
5.995213067819151,3.653203689962431,5.595569490294687,-0.2830256184945479
6.031745104718775,3.6099685815296048,5.592739234109741,-0.1290696274895853
6.067844790534071,3.560894050014307,5.591448537834846,0.03315639694443362
6.1034537310342145,3.5069003970073176,5.59178010180429,0.2017976022896556
6.138522735004288,3.4487027036941456,5.593798077827187,0.3752457900103122
6.173009762041229,3.3868209644067004,5.59755053572729,0.552136013368018
6.206877971685296,3.3216015131109105,5.60307189586097,0.7313265724637534
6.240093986816405,3.253243630495312,5.610385161585608,0.9118711498060345
6.272626423121358,3.1818271684616306,5.619503873083668,1.0929891305426414
6.304444694805975,3.107338703840967,5.630433764389095,1.2740377791460162
6.335518081844384,3.0296949650569283,5.6431741421805555,1.4544881626335682
6.365815031494954,2.9487630812852927,5.657719023806891,1.6339055145668078
6.395302662307807,2.864377675589966,5.674058078952559,1.8119340069742391
6.423946439063706,2.776355065190546,5.692177419022301,1.98828550061243
6.451709989715612,2.684504930810328,5.712060274028426,2.1627316587683216
6.478555039023715,2.588639836980795,5.733687590616109,2.3350987480865655
6.504441437393523,2.4885829691893657,5.757038578096974,2.5052644521022476
6.529327267085416,2.3841744289693616,5.782091222617997,2.6731560512418997
6.55316901137511,2.2752764109438344,5.808822783130417,2.8387493534050408
6.575921775484549,2.1617775864988538,5.837210276664467,3.002067776826826
6.597539551349537,2.043597043784997,5.867230954432736,3.163180981062442
6.617975521787387,1.9206881883162907,5.89886276424336,3.32220240338418
6.63718240367055,1.7930430975622298,5.932084788277202,3.479284977046867
6.655112834646172,1.660697951964214,5.966877638047671,3.6346141740011317
6.671719814165813,1.5237403390957431,6.003223779787683,3.7883973161982225
6.68695721755677,1.3823194507990748,6.041107752949665,3.9408478266470888
6.700780412064761,1.2366604626347457,6.080516231216135,4.092162741046886
6.713147016691108,1.0870846838168844,6.121437858626604,4.242491389121543
6.724017863529277,0.9340373463049008,6.163862772517819,4.391892738325934
6.733358236992326,0.7781250581310427,6.207781699901079,4.540278606407709
6.741139487573637,0.6201647715592296,6.253184485965156,4.687340066763907
6.747341135289229,0.4612452452339324,6.300057886632795,4.832455385807303
6.751953587741569,0.30279982812748085,6.348382440490869,4.974580544387813
6.7549815860228435,0.1466851592717493,6.398128245934747,5.112128924872279
6.756448437615561,-0.004746780197338124,6.44924953518347,5.242856297283093
6.756400969813588,-0.14860619451829857,6.501678098156301,5.363781307957811
6.754914907868405,-0.28148756957021553,6.555315911235879,5.471188335031833
6.752100032172702,-0.39959991399514644,6.610027794586197,5.560771945416871
6.74810403303275,-0.49904386679211704,6.665635514040366,5.6279767504216185
6.7431135943648295,-0.5762438888286725,6.721915281544582,5.668546463296057
6.737351155476543,-0.628482968644819,6.778600746177543,5.6792147651905465
6.731066325790095,-0.6544138982145374,6.835392893829448,5.658371826881953
6.724522186807949,-0.6543797849921574,6.891976612098268,5.606484261163164
6.717978388958027,-0.6304132749978122,6.948041454709899,5.52609539294437
6.711674256208049,-0.5858997237353238,7.0033024086393425,5.421387708897376
6.705815258970696,-0.5250207939261272,7.057516285728316,5.297463976230535
6.700565051031434,-0.45216071198526897,7.1104909254906214,5.159588890302357
6.696043443911582,-0.3714290240977549,7.162086814393645,5.012592166525058
6.692329153670604,-0.28637005625520084,7.212212736058896,4.8605207627365425
6.689465453108053,-0.19984999054327085,7.260817943686261,4.706522852001383
6.68746695320262,-0.11407041945297651,7.3078831722062745,4.552892351516186
6.68632624900809,-0.030651158747346488,7.353412095721437,4.401197126826437
6.686019737420616,0.04926175384912247,7.397424066989701,4.252433175710241
6.686512354959107,0.12488958240762407,7.439948398746803,4.107170961409926
6.687761250783184,0.19572864875502322,7.4810201083609025,3.9656787594052822
6.689718537270734,0.261476174224109,7.5206768959549555,3.828019379247962
6.692333299012975,0.32197343929231564,7.558957089747435,3.6941223823851006
6.695553033405898,0.3771635966104321,7.595898313571285,3.563836081537169
6.699324669372002,0.4270610574696838,7.631536674386657,3.4369638810513776
6.703595279946699,0.47172963548284175,7.665906313197171,3.313288971208852
6.708312576301527,0.5112671301697079,7.699039202909259,3.19259059863442
6.713425247603224,0.5457945524239403,7.730965108895603,3.07465436699119
6.718883193127463,0.5754486464234637,7.7617116525655145,2.95927837664041
6.724637679591698,0.6003767249773843,7.791304436331918,2.84627650782236
6.730641446841472,0.620733111991549,7.819767201410142,2.735479774727074
6.736848777961387,0.6366766908623753,7.847121999157412,2.6267364030574627
6.743215544870011,0.6483692068314428,7.873389363187987,2.519911086942401
6.749699236938325,0.6559740785103422,7.89858847405741,2.4148837417349567
6.756258977723428,0.6596555500616922,7.92273731147476,2.311547971260552
6.762855533224045,0.65957806941366,7.945852791187366,2.2098093994703873
6.769451313918182,0.6559058157064652,7.96795088518207,2.1095839685027333
6.7760103720752465,0.6488023255194176,7.989046724867097,2.0107962716514223
6.782498395330441,0.6384301856202013,8.009154687583612,1.9133779663126453
6.788882697186643,0.6249507723884499,8.028288467246739,1.81726629556978
6.795132204910527,0.6085240263891223,8.046461130202436,1.7224027355549711
6.8012174451744185,0.5893082560184503,8.063685157557986,1.6287317776222427
6.807110527734603,0.5674599675809424,8.079972475334209,1.5361998486612491
6.812785127410413,0.5431337211981258,8.095334473820822,1.444754368869273
6.818216464622394,0.5164820130403626,8.109782017509515,1.3543429434945276
6.823381284752798,0.48765518482803677,8.12332544694446,1.264912683127903
6.828257836601078,0.456801361592699,8.135974573775739,1.1764096458166333
6.832825850217005,0.42406641848176596,8.147738670233906,1.0887783934351352
6.837066514401823,0.38959397704371473,8.158626454168257,1.0019616542560539
6.84096245417226,0.35352543102118267,8.168646070710817,0.9159000834312306
6.844497708482471,0.31600000125828753,8.17780507154513,0.8305321130527898
6.8476577084950545,0.2771548189285164,8.186110392675658,0.7457938835689398
6.85042925668434,0.2371250359298318,8.193568331511347,0.661619248538049
6.852800507043638,0.19604396098361382,8.200184523996727,0.5779398449862615
6.8547609466534745,0.1540432197161817,8.205963922446589,0.49468522196205017
6.856301378850636,0.11125293679368718,8.210910774666209,0.4117830202335067
6.857413908218573,0.06780193801781892,8.215028604868543,0.3291591964320183
6.8580919275987515,0.023817970163865367,8.218320196832863,0.246738285293158
6.85833010730039,-0.020572063753749953,8.220787579685794,0.1644436939683585
6.858124386662853,-0.06524185617843847,8.222432016625477,0.08219802266752853
6.857471968101069,-0.11006543612233169,8.223253996852153,-7.659386663903811e-05
6.856371313739846,-0.1549169021970742,8.223253230913485,-0.08245812936546583
6.854822144717875,-0.19967015012387698,8.22242864961983,-0.16502429870920376
6.852825443216637,-0.24419859733850585,8.22077840663274,-0.2478521853969539
6.850383457243252,-0.28837490736873994,8.21829988477877,-0.3310178689475265
6.847499708169565,-0.33207071673004496,8.214989706089295,-0.414596057447459
6.8441790010022645,-0.37515636715873324,8.21084374551482,-0.4986597306144809
6.8404274373306775,-0.41750064607777043,8.205857148208676,-0.5832797989676344
6.8362524308699,-0.45897053826373235,8.200024350219,-0.6685247849864923
6.831662725487263,-0.4994309917473698,8.193339102369135,-0.7544605324972552
6.826668415569789,-0.5387447010260613,8.185794497044164,-0.8411499509369703
6.821280968559528,-0.5767719106836023,8.177382997534794,-0.9286528016108087
6.815513249452692,-0.6133702424891735,8.168096469518686,-1.01702553356135
6.809379547027801,-0.64839454896952,8.157926214183073,-1.1063211772010966
6.802895601538106,-0.6816967963020276,8.146863002411061,-1.196589304405621
6.796078633575085,-0.7131259791468518,8.134897109367005,-1.28787606430813
6.788947373783617,-0.7425280697093701,8.122018348723923,-1.3802243045574751
6.781522093086523,-0.7697460028873393,8.108216105678348,-1.4736737882788058
6.77382463305765,-0.7946196988005299,8.09347936779556,-1.5682615173840428
6.765878436069645,-0.8169861233193404,8.077796752621719,-1.6640221731896534
6.757708574836451,-0.8366793864051504,8.061156530889823,-1.760988685478881
6.7493417809724,-0.853530877161449,8.043546644035034,-1.8591929411559558
6.740806472200785,-0.867369433497908,8.024954714623474,-1.9586666434340243
6.732132777865806,-0.8780215432761448,8.005368048189133,-2.059442332017765
6.723352562433045,-0.8853115728094805,7.984773624868955,-2.1615545739090467
6.71449944670495,-0.8890620177396757,7.963158079129865,-2.265041333175272
6.705608826527554,-0.8890937707714722,7.940507665798113,-2.369945526129146
6.696717888819839,-0.8852264007390217,7.916808210536821,-2.4763167656660903
6.687865624812448,-0.8772784383292058,7.89204504288016,-2.5842132946860454
6.679092840429156,-0.8650676659481562,7.8662029099333,-2.6937041031409876
6.670442163769675,-0.8484114133243149,7.83926586890189,-2.8048712156346003
6.661958049636431,-0.8271268673870423,7.811217156745544,-2.9178121256745695
6.653686780962561,-0.8010314160025013,7.782039035488798,-3.0326423371897833
6.645676466802536,-0.76994306206793,7.7517126121169,-3.1494979516336064
6.637977036181857,-0.7336809697857458,7.720217632600564,-3.2685382067519497
6.630640226483999,-0.6920662422480884,7.687532250533044,-3.3899478262884957
6.623719564061519,-0.6449230838611011,7.653632772270159,-3.513938971805238
6.6172703332229075,-0.5920805798600725,7.618493382552106,-3.6407524886777507
6.611349527424307,-0.5333754384059011,7.582085857665329,-3.7706579942130665
6.606015773040248,-0.4686562027084277,7.544379277723198,-3.90395214696586
6.601329211013164,-0.3977896706693963,7.50533975625354,-4.0409541352923375
6.59735131430647,-0.32067058322412656,7.464930214900616,-4.181996993214307
6.594144608474229,-0.23723609158177195,7.423110244968473,-4.327412746084194
6.591772247558412,-0.1474871227942603,7.379836117507631,-4.477508553907133
6.5902973763304695,-0.05151956053739812,7.33506103196856,-4.632529908716824
6.589782180725096,0.05043086051510623,7.288735732881392,-4.792605544880279
6.590286489330247,0.15792497496208502,7.24080967743259,-4.957667141136291
6.591865739079868,0.2702320760130788,7.191233006021227,-5.127335497383331
6.5945680598399985,0.3862114453771103,7.139959651047393,-5.3007645628062985
6.598430174293769,0.5041600072171909,7.08695200541933,-5.476437353154405
6.603471774365941,0.6216296805508578,7.032187631887786,-5.651916797316795
6.609688071171449,0.7352335371071569,6.9756684639146185,-5.823574942577131
6.617040406542521,0.8404876056578814,6.9174327144888474,-5.986361026145124
6.6254452825991,0.9317749407440747,6.857569104227396,-6.1337228203882574
6.63476303200654,1.0025577224609634,6.796231876023514,-6.257849591621728
6.64478860923115,1.045966204342716,6.733653380107296,-6.350411058198189
6.655248271274577,1.0558056018772484,6.670149269525314,-6.4038504946616595
6.66580632729335,1.0278140125443938,6.606110764578697,-6.41301121560351
6.676084467418794,0.960754228888223,6.541980652422662,-6.376540163347909
6.685692009707676,0.8568375664425214,6.478215250789183,-6.297402162238898
6.694260385372101,0.7212277529410975,6.415241229166794,-6.182180335274778
6.701472662901512,0.5608395507006319,6.353419425814046,-6.039466265877424
6.7070810584085185,0.38296774743259054,6.293024763155271,-5.878064413779953
6.710910735882845,0.19423229204110254,6.234244119017472,-5.705651965146334
6.712853058803256,3.299807216444739e-05,6.177187599366008,-5.528132789278905
6.712853388783977,-0.19555832586236888,6.121906271473219,-5.3495697720313
6.710897805525354,-0.3896471137596448,6.068410573752906,-5.172445861821845
6.7070013343877575,-0.5802667511046016,6.0166861151346875,-4.998038074513911
6.701198666876712,-0.7661284330887731,5.966705734389548,-4.826777321767221
6.693537382545824,-0.9464129992969141,5.918437961171876,-4.658541734546469
6.684073252552856,-1.1206145194766624,5.871852543826412,-4.492874746836408
6.672867107358089,-1.2884302874519475,5.826923796358048,-4.3291381408990075
6.659982804483569,-1.4496872097819231,5.783632414949058,-4.1666152777735235
6.64548593238575,-1.6042947157202196,5.7419662621713226,-4.004578627955646
6.629442985228548,-1.7522161172824635,5.701920475891766,-3.842332696826052
6.611920824055723,-1.8934523734681323,5.663497148923506,-3.6792403644604494
6.592986300321042,-2.0280339364486397,5.626704745278902,-3.514738157227685
6.572705960956555,-2.1560176688955957,5.591557363706625,-3.348344129495041
6.551145784267599,-2.2774867649236246,5.558073922411674,-3.1796607587416563
6.528370916618363,-2.392552266587524,5.526277314824258,-3.0083744079427035
6.504445393952488,-2.501355223379739,5.496193570744831,-2.8342523616674584
6.47943184171869,-2.604068856449924,5.467851047128156,-2.6571381017286244
6.453391153154191,-2.7009003073160884,5.44127966611087,-2.476945285966484
6.4263821500810305,-2.792091703160203,5.416510213251206,-2.293650782451218
6.398461233049429,-2.8779203771400934,5.393573705426694,-2.1072870590460178
6.369682029278028,-2.9586981546347166,5.3725008348362335,-1.917934213853304
6.340095047731681,-3.0347696618520263,5.353321492697701,-1.7257119423369776
6.3097473511131605,-3.1065096350412316,5.336064373274331,-1.5307717643742642
6.2786822547627485,-3.1743192074093174,5.320756655630588,-1.3332898760607836
6.246939062688655,-3.238621125620095,5.30742375686998,-1.1334610473234654
6.214552851432455,-3.299853795828815,5.296089146396746,-0.9314940609909087
6.181554313474167,-3.3584639766739426,5.286774205786837,-0.7276092884103227
6.147969673707427,-3.414897818580507,5.279498112902734,-0.5220391297233419
6.113820695521622,-3.469589789745548,5.2742777216055,-0.3150322234570243
6.079124797624167,-3.5229488248541614,5.27112739937093,-0.10686255899133415
6.043895309375626,-3.575340782594823,5.270058773781017,0.10215509028468361
6.008141901549678,-3.6270660125828016,5.271080324683863,0.31164166790883524
5.97187124142385,-3.6783305441116134,5.274196741362951,0.5211201981952848
5.935087935982734,-3.7292091947902266,5.279407943344904,0.7299697242860015
5.897795844034832,-3.77959891129699,5.286707640587764,0.9373646400563005
5.8599998549218615,-3.8291611793221763,5.296081286988327,1.1421980663225089
5.82170824312864,-3.8772538410604835,5.307503267651552,1.3429901280654657
5.782935704718035,-3.9228558141260543,5.320933168932207,1.5377865174013552
5.743707146576774,-3.964493814064159,5.33631103410622,1.7240606828368212
5.704062208436133,-4.0001887714976325,5.3535516409345885,1.8986450765003398
5.664060320721156,-4.0274505207564015,5.3725380916995915,2.057732095870011
5.6237858155135925,-4.043359039691517,5.393115412658291,2.1969986935896415
5.583352225116677,-4.044771208382656,5.415085399594187,2.3119089895464975
5.54290451303285,-4.028672320540684,5.438204489489652,2.398220524896389
5.502617789827443,-3.9926431901204844,5.462186694738616,2.4526506071799057
5.462691357926238,-3.9353450393995355,5.486713200810415,2.473561748210358
5.423337907532243,-3.8568706181372217,5.511448818292519,2.4614496619230284
5.384769201350871,-3.7588197804106587,5.536063314911749,2.4190325674212114
5.347181003546764,-3.6440503969502007,5.560253640585961,2.350873688384858
5.310740499577261,-3.5161867682161727,5.583762377469809,2.2626564833865825
5.275578631895099,-3.37905515022928,5.606388942303675,2.160356773770457
5.241788080392807,-3.236210481859143,5.62799251004138,2.0495477031860743
5.209425975574216,-3.0906424959185266,5.64848798707324,1.9349646482687888
5.1785195506150306,-2.9446639480673555,5.667837633555928,1.8203346042819706
5.149072911134357,-2.799932189236257,5.686040979598748,1.7084003550000522
5.121073589241994,-2.6575437204424457,5.703124983148749,1.6010526401684537
5.09449815203757,-2.518153667698484,5.7191355095504335,1.4995007994617786
5.069316615360585,-2.3820909517028284,5.734130517545052,1.4044392306101592
5.045495705843557,-2.24945565335123,5.748174909851153,1.3161895849577665
5.023001149310044,-2.1201950525342386,5.761336805700731,1.2348130662056156
5.001799198784702,-1.9941599042293754,5.773684936362788,1.1601946552876519
4.981857599742408,-1.8711444568084803,5.785286882915664,1.0921040135936935
4.963146155174323,-1.750913986044573,5.796207923051601,1.0302383142281384
4.945637015313878,-1.633223160172105,5.806510306193883,0.9742516722418142
4.929304783712157,-1.517827878190487,5.816252822916301,0.9237749297715999
4.914126504930252,-1.404492571798345,5.825490572214017,0.8784286474096824
4.9000815792122685,-1.292994417567828,5.834274858688114,0.8378313898614173
4.88715163503659,-1.1831254853907704,5.842653172586728,0.8016047988494404
4.875320380182682,-1.0746935380484437,5.850669220575223,0.7693765029866003
4.864573444802198,-0.9675219728648908,5.858362985605089,0.7407815935476865
4.854898225073549,-0.8614492382555127,5.865770801540566,0.7154631672370917
4.846283732690994,-0.7563279476655959,5.872925433212937,0.6930722773208845
4.8387204532143375,-0.6520238371181417,5.879856155986146,0.673267523549465
4.832200214843156,-0.5484146601935349,5.886588831221641,0.6557144347925918
