th1 (rad),w1 (rad/s),th2 (rad),w2 (rad/s)
2.738518329390483,2.197681032379635,5.981011623624127,2.3880838282283574
2.7604951397142794,2.1494020838746026,6.004892461906411,2.3740798883620275
2.7819891605530254,2.102705601514501,6.0286332607900315,2.3592931214686113
2.8030162165681705,2.0575445982747786,6.052226192004718,2.3436948265854656
2.823591662550918,2.01387256179906,6.0756631402705725,2.3272559240916424
2.843730388168909,1.9716440983291286,6.098935699511489,2.3099479858767484
2.8634468291522004,1.9308154869558682,6.122035179370256,2.2917441283192272
2.882754984021759,1.8913451499781109,6.144952620653448,2.2726197776439796
2.90166843552154,1.8531940447236335,6.167678818429888,2.2525533165114866
2.9202003759687765,1.8163259818599233,6.1902043515950025,2.2315266200868678
2.938363635787376,1.7807078750011838,6.212519617795871,2.2095254893581644
2.9561707145373877,1.7463099262947757,6.234614872689453,2.1865399891177617
2.9736338138003355,1.7131057526319362,6.256480272580631,2.162564697779555
2.990764871326655,1.6810724571573707,6.278105919558426,2.137598876060907
3.0075755958982286,1.650190650830918,6.299481908319035,2.111646561491812
3.024077502406538,1.6204444289015452,6.3205983739339535,2.084716595700535
3.0402819466955533,1.5918213072690899,6.341445539890959,2.056822591440875
3.056200159768244,1.5643121238132212,6.362013765805368,2.0279828463473453
3.0718432810063763,1.537910909844827,6.382293594268841,1.9982202104089042
3.0872223901048246,1.5126147368680327,6.40227579637293,1.9675619141202896
3.102348537473505,1.488423543820099,6.421951415514132,1.936039364186996
3.1172327729117058,1.4653399498739348,6.441311809156002,1.9036879135140377
3.131886172410445,1.443369057739885,6.460348688291143,1.8705466119927743
3.146319862987844,1.4225182521893667,6.479054154411071,1.836657944311396
3.1605450455097377,1.4027969982455755,6.497420733854185,1.802067560654313
3.1745730154921934,1.3842166431514142,6.5154414094607285,1.7668240057283442
3.1884151819237077,1.3667902258397446,6.533109649518012,1.730978451066785
3.2020830841821053,1.3505322972053964,6.55041943402868,1.6945844350259274
3.215588407154159,1.3354587540223708,6.56736527837894,1.657697614313522
3.228942994694383,1.3215866888739614,6.583942254522075,1.6203755302868275
3.2421588615831225,1.3089342579784295,6.600146009824943,1.5826773926410325
3.255248204162907,1.2975205683079574,6.615972783751354,1.5446638824879477
3.2682234098459864,1.2873655849222265,6.631419422576233,1.50639697620975
3.2810970656952088,1.2784900589769548,6.646483392338331,1.4679397908712692
3.293881966284978,1.2709154764271917,6.661162790247043,1.4293564513929689
3.30659112104925,1.2646640270283886,6.675456354760972,1.390711979129296
3.319237761319534,1.259758592846662,6.689363474552265,1.35207220096519
3.3318353472480005,1.2562227551229073,6.702884196561917,1.313503677536735
3.3443975747992294,1.2540808179915144,6.716019233337285,1.275073648697637
3.3569383829791444,1.2533578472299234,6.728769969824262,1.2368499938869613
3.3694719614514437,1.254079721905503,6.741138469763131,1.198901204599232
3.382012758670499,1.256273196485564,6.753127481809123,1.1612963657081505
3.3945754906353547,1.259965970678419,6.764740445466205,1.1241051419413153
3.407175150342139,1.265186763971548,6.775981496885618,1.087397765336312
3.4198270179818544,1.2719653915202709,6.786855474538981,1.0512450190189748
3.432546671897057,1.280332837710321,6.79736792472917,1.015718212123292
3.44535000027416,1.2903213233643303,6.807525106850403,0.9808891401108253
3.4582532135078035,1.3019643621804964,6.817333998251511,0.9468300241383345
3.4712728571296085,1.3152968015779773,6.826802298492895,0.9136134224601865
3.4844258251453883,1.3303548426761995,6.835938432717497,0.8813121061343658
3.49772937357215,1.3471760336550433,6.844751553778841,0.8499988905283397
3.511201133908701,1.3657992302337303,6.8532515426841245,0.8197464132991334
3.5248591262110383,1.3862645164759841,6.861449006817116,0.790626848662043
3.538721771375798,1.4086130785902056,6.869355275303737,0.7627115468829726
3.5528079021617,1.432887023864174,6.876982390772566,0.7360705870577837
3.567136772400342,1.4591291363789913,6.8843430966431445,0.710772230416136
3.5817280637641318,1.4873825607191187,6.891450818947306,0.6868822606573209
3.596601889371323,1.5176904045756143,6.898319641553879,0.6644631972559625
3.6117787934170793,1.5500952509788046,6.9049642735264385,0.6435733673465528
3.6272797459268675,1.5846385709556197,6.911400007199904,0.624265821805361
3.6431261316364236,1.6213600277572557,6.917642665417958,0.6065870816123929
3.659339731913996,1.6602966645265762,6.923708536234082,0.5905757016293087
3.675942698559262,1.7014819684630023,6.929614293250375,0.5762606407234403
3.692957518243892,1.7449448062942936,6.9353768996576095,0.5636594298699518
3.710406966306835,1.7907082282826878,6.941013493956309,0.5527761336504882
3.7283140485896618,1.8387881411804226,6.946541255292813,0.5435991056170401
3.746701930001466,1.8891918546037303,6.951977246348984,0.5360985444767857
3.7655938485475033,1.941916510298494,6.957338231793752,0.5302238661295924
3.7850130136504885,1.9969474097857394,6.962640470455048,0.5259009163699074
3.804982487748346,2.0542562629288192,6.967899479618747,0.5230290606072028
3.8255250503776344,2.1137993880397383,6.973129770224818,0.5214782002421312
3.846663044258032,2.1755159031659606,6.97834455222724,0.5210857802316047
3.8684182032896914,2.239325958028627,6.983555410029556,0.5216538686246691
3.8908114628699777,2.3051290664945876,6.988771948715803,0.5229464060311205
3.9138627535349237,2.3728026101419086,6.994001412776114,0.5246867404872789
3.9375907796363427,2.442200594002742,6.9992482801809865,0.5265555801867049
3.9620127855763703,2.5131527454078477,7.004513835982854,0.5281895119933016
3.987144313030449,2.585464055362891,7.009795731102787,0.5291802462483626
4.012998953584078,2.6589148682805144,7.0150875335652705,0.5290747565682178
4.039588102266883,2.733261629266993,7.020378281130952,0.5273764853102679
4.066920718559553,2.808238397483943,7.025652045984055,0.5235477791584721
4.095003102534393,2.8835592282288305,7.03088752377564,0.5170137026974859
4.123838694816681,2.9589215140840945,7.036057660802615,0.5071673487308601
4.1534279099575215,3.03401035555439,7.0411293342899235,0.493376720426612
4.183768013513065,3.108504002949198,7.046063101494189,0.47499320053133376
4.214853053542557,3.1820803730912868,7.0508130334995025,0.4513615460455059
4.2466738572734695,3.2544245965327385,7.055326648959958,0.42183125329200444
4.279218103238797,3.325237494034768,7.059544961492878,0.385769030380979
4.3124704781791445,3.3942448170745445,7.063402651796688,0.34257199608677597
4.34641292634989,3.4612070196371727,7.0668283717575555,0.2916811031766111
4.3810249965462615,3.5259292628920886,7.069745182789322,0.23259417011247224
4.416284289175183,3.5882712976630273,7.072071124490447,0.16487781006047733
4.452167002151813,3.6481568303640333,7.073719902591051,0.08817748400857377
4.488648570455453,3.7055819652917252,7.074601677431137,0.0022248890013341627
4.525704390108371,3.7606223380750414,7.07462392632115,-0.09315806601571378
4.563310613489121,3.813438617591979,7.0736923456609935,-0.1980593397685346
4.601444999665041,3.8642801587571594,7.071711752263308,-0.31248137118021113
4.640087801252613,3.9134867331475887,7.068586938551506,-0.43635048727337433
4.679222668584089,3.961488439868806,7.064223433678772,-0.5695311251609843
4.718837552982777,4.008804092047758,7.0585281224271625,-0.7118446435799078
4.758925593903254,4.056038568795497,7.051409675991364,-0.8630922902796685
4.799485979591209,4.103879802520227,7.042778753088567,-1.0230817501383085
4.840524777616411,4.1530962247475625,7.032547935587184,-1.1916566537420479
4.882055739863886,4.204535614404278,7.020631369049763,-1.3687284970453728
4.924101096007929,4.259126383862426,7.00694408407931,-1.5543106185931732
4.9666923598465536,4.317882412374175,6.9914009778933774,-1.7485542006227854
5.009871183970295,4.381912614929146,6.973915435887149,-1.9517866963165815
5.0536903101195865,4.452436544564811,6.954397568923984,-2.164553627339888
5.098214675565234,4.530807498300029,6.932752032650585,-2.387665334995816
5.143522750548235,4.618544859382221,6.908875379300627,-2.6222509984541515
5.189708199142057,4.717377777733828,6.882652869316085,-2.8698230424691715
5.2368819769193955,4.829302750129282,6.853954638891393,-3.1323559007724144
5.285175004420688,4.956658115653064,6.822631079883669,-3.4123838373934796
5.334741585577219,5.102218643524029,6.788507241509734,-3.7131227578656048
5.385763772012459,5.269312521645274,6.751376013931078,-4.038619643420652
5.438456897228912,5.461959357058099,6.710989817496872,-4.393927911901723
5.493076490799493,5.685016987865231,6.667050538377854,-4.785291667029105
5.549926660678145,5.944296879939141,6.6191976217075625,-5.22028232067744
5.609369629477537,6.24653912717674,6.566994798500788,-5.707734549066847
5.671835020749304,6.59897530748162,6.50991745301012,-6.257100329389161
5.73782477382412,7.007838140572123,6.447346449716228,-6.876322129625343
5.807903155229841,7.474407625114777,6.378583228419975,-7.566247753150357
5.882647231480989,7.98591075367489,6.302920750888472,-8.307824532201547
5.962506339017738,8.498019614882795,6.219842505566456,-9.037509843938432
6.047486535166565,8.91256412230221,6.129467407127072,-9.615994959305572
6.136612176389588,9.082788135537067,6.033307457534016,-9.835689770238979
6.227440057744959,8.904822949295745,5.934950559831626,-9.549367526335345
6.316488287237916,8.440463854661328,5.839456884568273,-8.842649542160316
6.400892925784529,7.867707101270329,5.75103038914667,-7.964661172385682
6.479569996797232,7.322626610350818,5.671383777422813,-7.106414146878037
6.55279626290074,6.856312372737884,5.600319635954032,-6.3402957203369485
6.621359386628119,6.473098726337146,5.5369166787506625,-5.6732649700224025
6.68609037389149,6.162243325547061,5.480184029050439,-5.091013939142097
6.747712807146961,5.910881721339701,5.429273889659018,-4.57607893175467
6.806821624360357,5.707800886610763,5.383513100341471,-4.113175334330504
6.863899633226465,5.544039588737586,5.342381346998166,-3.6901110142155984
6.919340029113841,5.4126021046685215,5.30548023685601,-3.297458881514628
6.973466050160527,5.308016349397241,5.272505648040863,-2.9280070492998043
7.026546213654499,5.225938247946675,5.243225577547865,-2.5762686602727283
7.078805596133966,5.1628401845811975,5.217462890945138,-2.2381043067077053
7.130433997979778,5.115776249927258,5.195081847878061,-1.9104459451909475
7.1815917604790505,5.082208498496612,5.175977388426151,-1.591098121945734
7.232413845464016,5.059880085405427,5.160066407206694,-1.278593561236457
7.28301264631807,5.046724758870736,5.147280471594329,-0.972084460431808
7.333479893906778,5.04080537868474,5.1375596269900115,-0.6712550677651845
7.3838879476936246,5.040276372441033,5.130847076312359,-0.3762447210905566
7.4342907114180345,5.0433663366574315,5.127084629101454,-0.08757362898924848
7.484724374784609,5.048377500599712,5.126208892811561,0.19393349333477922
7.535208149790606,5.0536987126702835,5.128148227744909,0.46722813655557166
7.585745136917309,5.057828231453885,5.132820509110465,0.7311227516663736
7.636323419231847,5.059402171343655,5.140131736627128,0.9843770683489605
7.686917440945284,5.057224216035017,5.149975507310618,1.2257819014508564
7.737489683105634,5.050292360647506,5.1622333263251265,1.4542355642335496
7.787992606712109,5.037819058584635,5.176775681967462,1.6688081060224387
7.838370797297955,5.019242190086706,5.193463763027687,1.868789543172525
7.888563219198822,4.994225580737781,5.212151658459412,2.0537198351376724
7.9385054750062,4.962649158964923,5.232688856810789,2.223400234644247
7.988131966595849,4.924590028700148,5.254922859157231,2.377887446775366
8.037377866882851,4.880296579813732,5.278701733624985,2.517473462434476
8.086180832680988,4.830158187541587,5.30387646824933,2.642654807360243
8.134482414556404,4.774673078313832,5.330303016322932,2.754095230372859
8.182229145339543,4.714416648142269,5.357843968626661,2.852585624051791
8.229373311820964,4.650012030426035,5.386369824867178,2.939004379094643
8.275873432125225,4.582104142614745,5.4157598686581245,3.0142805920188662
8.321694473551373,4.511337892552501,5.4459026745783135,3.079361727005877
8.366807852476898,4.438340758892477,5.476696291848373,3.1351865873774076
8.411191260065822,4.3637096059017795,5.508048157722147,3.182663844353087
8.454828356124839,4.2880013551992295,5.539874796165678,3.222655923483348
8.49770836967683,4.211727002441054,5.572101355400511,3.255967756348497
8.539825639701242,4.135348414296353,5.604661032963996,3.2833397435866427
8.581179123844205,4.05927734696123,5.637494430399863,3.3054442149272796
8.621771897313817,3.983876170808219,5.670548872549135,3.3228846825188176
8.6616106590219,3.909459849478658,5.703777719374323,3.336197239234713
8.700705257516686,3.836298793248426,5.737139691766671,3.3458535331753705
8.73906824544917,3.7646222774142797,5.770598227098424,3.352264838289503
8.776714468223313,3.6946221816942724,5.80412087548132,3.3557868289470187
8.813660690040255,3.6264568636351937,5.83767874377079,3.3567247473994533
8.849925258676606,3.560255026902484,5.871245991244785,3.3553387242739996
8.88552780894563,3.4961194842986383,5.904799378487525,3.351849072472567
8.920489003788617,3.4341307462273463,5.93831786921225,3.3464414242663425
8.954830311250891,3.3743503891890003,5.971782283454914,3.3392716208969397
8.98857381514278,3.3168241769304627,6.0051749996638835,3.330470294880094
9.021742056912085,3.2615849202004488,6.038479702612684,3.320147108829249
9.05435790611409,3.2086550706885117,6.071681173700977,3.3083946323067472
9.086444456820976,3.1580490515137982,6.1047651200240445,3.295291851179806
9.118024947336114,3.109775331294464,6.1377180385358425,3.2809073132566398
9.149122700649059,3.063838251944658,6.170527111668409,3.265301920483773
9.179761083168506,3.020239622362764,6.203180130873246,3.248531382412968
9.209963479392133,2.9789800914334568,6.235665444697376,3.230648348559731
9.239753280306468,2.9400603145180098,6.267971928182973,3.211704239108991
9.269153883451649,2.9034819280290014,6.3000889705740635,3.191750794500447
9.298188702731938,2.8692483468950187,6.332006478519068,3.1708413649785547
9.326881186200888,2.8373653997901997,6.363714892168853,3.1490319613792987
9.35525484019879,2.807841816970291,6.395205211782646,3.126382088350179
9.383333258368491,2.7806895854346614,6.426469032666148,3.102955380920982
9.411140154222839,2.755924185919656,6.457498586475358,3.0788200648902513
9.438699396082034,2.733564725910689,6.48828678712426,3.054049260875057
9.466035043341142,2.71363398242273,6.518827279733011,3.028721151086869
9.49317138316537,2.6961583677257592,6.54911449124388,3.0029190269359685
9.520132966842628,2.681167830471225,6.579143681513239,2.9767312344222074
9.54694464514734,2.6686957038004735,6.608910993857461,2.9502510329351432
9.573631602185344,2.658778510985683,6.638413504186812,2.923576381560635
9.600219387295201,2.6514557379731696,6.667649268002418,2.896809665278263
9.626733944674934,2.6467695808788294,6.696617364655201,2.870057371544428
9.653201640483722,2.6447646750410696,6.725317938370646,2.8434297257041528
9.679649287234133,2.6454878106861197,6.753752235627688,2.8170402914783352
9.706104165340994,2.6489876386238675,6.781922638542471,2.7910055404520993
9.732594041727232,2.6553143676892565,6.809832693946992,2.7654443920637974
9.759147185404125,2.664519453893536,6.8374871378676305,2.7404777230820097
9.785792379943059,2.6766552794678464,6.86489191509845,2.7162278429760662
9.812558932737737,2.6917748181825667,6.892054193528211,2.692817928948129
9.839476680919562,2.7099312815203,6.918982372817692,2.670371411712664
9.866575993734765,2.7311777384762976,6.945686086934819,2.6490113003908817
9.893887771119529,2.7555666999632455,6.972176199938728,2.628859432140787
9.92144343811916,2.7831496570122334,6.998464794260136,2.6100356293757567
9.949274934689283,2.8139765601931335,7.024565150553894,2.592656744646732
9.977414700291215,2.8480952259322967,7.0504917180003615,2.576835570491797
10.005895652550537,2.8855506536942546,7.07626007370528,2.562679588818281
10.03475115908748,2.926384236334334,7.1018868695934625,2.55028953171674
10.064015001450823,2.9706328443473753,7.12738976491063,2.5397577230724586
10.093721329894297,3.018327763273064,7.152787342141354,2.5311661680227466
10.123904607527027,3.0694934622255197,7.178099003821582,2.5245843553231353
10.154599542149283,3.124146170468148,7.203344847374813,2.5200667361877582
10.185841003853964,3.1822922382527445,7.228545514736691,2.517649842361529
10.217663926236492,3.243926257911623,7.253722013160306,2.5173490063241184
10.250103188815608,3.309028921594877,7.278895503223548,2.5191546479455718
10.283193478031556,3.3775645932844305,7.3040870497030035,2.523028095017059
10.3169691239644,3.4494785750439565,7.329317330653174,2.5288969103654013
10.35146390971484,3.5246940511889377,7.354606299756828,2.5366497063291233
10.386710850226729,3.6031086995639474,7.379972796820119,2.5461304389481594
10.422741937222368,3.68459096685839,7.4054341012096,2.557132190153348
10.459587846890951,3.768976015441994,7.4310054231111335,2.569390467536189
10.49727760704537,3.8560613632419503,7.456699327786495,2.58257607909077
10.53583822067779,3.945602256540167,7.482525088577403,2.596287675963251
10.575294243243192,4.037306839226373,7.508487965337036,2.6100441011795708
10.615667311635455,4.13083121215484,7.534588406348831,2.62327673811184
10.656975623757004,4.225774514132153,7.560821173729949,2.6353221206634783
10.699233368898327,4.32167420313198,7.587174394936584,2.6454151492194495
10.742450110929646,4.418001773998947,7.613628546428778,2.652683353283845
10.786630128669636,4.51415921832903,7.640155379961617,2.6561427534403905
10.831771720852926,4.609476613906185,7.66671680749602,2.6546960001740083
10.877866486991987,4.703211324240085,7.69326376749776,2.647133600779659
10.924898600234387,4.794549390331689,7.719735103505557,2.632139179418318
10.972844094137704,4.882609800156287,7.74605649529974,2.6082998346008286
11.021670192139267,4.966452414632358,7.772139493645748,2.5741227399624944
11.07133471628559,5.045090393133587,7.797880721045374,2.5280591448039953
11.121785620216926,5.117507969403253,7.823161312493414,2.468536825719316
11.17296069991096,5.182684343446415,7.8478466807506075,2.394001764427143
11.224787543345423,5.239624232661056,7.871786698394879,2.3029693188511002
11.277183785672033,5.287395220442862,7.89481639158339,2.1940843592567005
11.330057737876462,5.325171416411149,7.916757235175957,2.066188728013585
11.383309452040574,5.352282089562688,7.9374191224560935,1.9183929708678016
11.4368322729362,5.36826289325545,7.9566030521647715,1.750147682778595
11.490514901868755,5.3729061790891555,7.974104528992558,1.561308224973092
11.544243963659646,5.366305888730316,7.9897176112422885,1.352185329950766
11.597907022546948,5.348891883917934,8.003239464541796,1.1235736281660471
11.651395941386127,5.321448616728228,8.014475200823457,0.876750810383297
11.70461042755341,5.285113988697382,8.02324270892729,0.6134422492571039
11.757461567440384,5.241356170896279,8.029377131419862,0.33574941544040593
11.809875129149347,5.191928881207657,8.032734625574266,0.04604491097486463
11.861794417961423,5.138808694845783,8.033195074684015,-0.2531584076661656
11.913182504909882,5.084120767811465,8.030663490607353,-0.5593529618078591
11.964023712587997,5.030061239029238,8.025069960989274,-0.870183411594511
12.01432432497829,4.978825106347365,8.01636812687333,-1.1835821983873793
12.064112576041763,4.932547464248606,8.004532304889455,-1.497883486008639
12.11343805068425,4.893263952993307,7.989553470029369,-1.8119096218934683
12.162370690214184,4.862893677652051,7.9714343738104345,-2.1250291870367906
12.210999626990704,4.843245360517452,7.950184081940066,-2.4371902928687867
12.259432080595879,4.836045617985743,7.925812179011379,-2.7489362969622917
12.307792536775736,4.842987289380663,7.898322816041755,-3.061413258829413
12.356222409669543,4.865795719185491,7.867708683453461,-3.3763793481935758
