th1 (rad),w1 (rad/s),th2 (rad),w2 (rad/s)
5.249771600212086,0.1426962255720236,6.218755738841141,-1.9127966160151375
5.251198562467806,0.2588367829137334,6.19962777268099,-1.9724062248260272
5.253786930296943,0.3765300691507776,6.17990371043273,-2.033381945813248
5.257552230988451,0.49589722073339637,6.1595698909745975,-2.0961443049269852
5.262511203195785,0.6170718896446342,6.138608447925328,-2.1611219283995506
5.268681922092231,0.7401989763531578,6.116997228641332,-2.228748347869554
5.276083911855762,0.8654319419641274,6.094709745162636,-2.299456940705363
5.284738231275403,0.9929281000834821,6.071715175755583,-2.3736731492352483
5.294667512276238,1.122841052495779,6.04797844426323,-2.45180278544609
5.305895922801196,1.255309120509458,6.02346041640877,-2.5342147830753228
5.3184490140062906,1.3904382271295206,5.9981182685780166,-2.621216194187367
5.332353396277586,1.5282772124754955,5.971906106636143,-2.7130165532911703
5.3476361684023415,1.668783064869666,5.944775941103232,-2.8096780163822657
5.364323999051038,1.8117731548428488,5.916679160939409,-2.9110471094873147
5.382441730599466,1.9568615556089926,5.887568689844535,-3.0166638934575842
5.402010346155556,2.1033774655536503,5.857402050909959,-3.1256456342547887
5.423044120811093,2.250266529020657,5.826145594567412,-3.236545947811666
5.445546786101299,2.3959817872704026,5.793780135089295,-3.3471987118648787
5.469506603974003,2.5383814761149757,5.760308147970647,-3.4545707855036776
5.494890418735153,2.674666328613889,5.72576244011561,-3.5546693625507415
5.521637082021292,2.8014065596863498,5.690215746490103,-3.6425746118042626
5.549651147618156,2.914718955964913,5.6537900003720605,-3.7126830364439316
5.578798337177805,3.010640463174929,5.616663170007621,-3.759227815770855
5.608904741809554,3.085688804943504,5.579070891849913,-3.7770644867372067
5.639761629858989,3.137505025982694,5.541300246982541,-3.7625762562414837
5.671136680118816,3.1653811000502534,5.5036744844201255,-3.7144239716147602
5.702790491119319,3.1704631900833844,5.466530244703978,-3.6338468834347437
5.734495123020153,3.1555317468582973,5.4301917758696305,-3.5243738031733898
5.766050440488736,3.1244415445335174,5.394948037837897,-3.3910580850431686
5.797294855934071,3.081436972412701,5.361037456987465,-3.2395350305500634
5.828109225658198,3.0305609907354314,5.328642106681965,-3.0752055943966026
5.8584148355655525,2.9752780543265893,5.2978900507379985,-2.902714333045081
5.888167616108818,2.918318499695809,5.268862907407548,-2.7257328453729954
5.917350801105776,2.8616850873066912,5.241605578953818,-2.5469670894233323
5.945967651978843,2.8067483079930606,5.216135908059584,-2.368287299326725
5.974035135058774,2.754372998122795,5.192453035066317,-2.1909012210364702
6.001578865040002,2.705041990287321,5.170544022855952,-2.015523416801931
6.028629284942875,2.6589612193015206,5.150388788687933,-1.8425191903812166
6.05521889713589,2.616142206747623,5.131963596784121,-1.672017534253282
6.081380319203366,2.5764635517929824,5.115243421441588,-1.5039953365253247
6.107144954721296,2.539715172224592,5.100203468076335,-1.3383379743126866
6.132542106443542,2.5056293111674086,5.086820088333208,-1.1748817736730293
6.157598399555216,2.473901821610667,5.075071270596477,-1.013443109802612
6.182337417771322,2.444206520507387,5.064936839498451,-0.85383792264626
6.206779482976396,2.4162047155371593,5.056398460271988,-0.6958944730953702
6.230941530131767,2.389551437547999,5.049439515541034,-0.5394613816675559
6.254837044507248,2.3638994726126863,5.044044901724359,-0.3844123909506715
6.278476039233375,2.3389019629906467,5.040200777814852,-0.23064885171866523
6.301865058863282,2.314214111964786,5.0378942892976655,-0.07810061697831389
6.325007199982929,2.2894943606872853,5.037113283127883,0.07327419327196197
6.347902143589802,2.2644052871259652,5.0378460250606025,0.22349024686101115
6.370546196461062,2.2386143937123717,5.040080927529212,0.3725366684156719
6.392932340398185,2.211794890945661,5.043806294213369,0.5203791869326256
6.415050289307642,2.1836265415944855,5.049010086082696,0.6669626721760349
6.4368865547235865,2.1537965990879435,5.055679712804456,0.8122139991103607
6.458424520714466,2.1220008506370895,5.063801852795559,0.9560451969364243
6.479644529220837,2.0879447581680544,5.073362304764924,1.0983568486913793
6.500523976802518,2.051344676668508,5.084345873251838,1.2390417114168046
6.5210374235692035,2.0119291190016244,5.096736290366006,1.3779885274918255
6.54115671475922,1.969440027960711,5.1105161756409245,1.5150859962732703
6.560851115038827,1.9236340099186096,5.125667035603657,1.6502268727426372
6.580087455138013,1.8742834796369863,5.142169304331083,1.7833121572494266
6.598830289934384,1.8211776625200689,5.160002425903577,1.9142553383075211
6.617042066559584,1.7641233987685345,5.179144979286652,2.042986649259973
6.63468330054727,1.7029456934875555,5.199574845779251,2.169457299886292
6.651712757482145,1.6374879578120825,5.221269418778114,2.29364364600085
6.668087637060266,1.5676118885073165,5.244205855238122,2.4155512640069214
6.683763755945339,1.4931969372393599,5.2683613678781915,2.5352189033578796
6.698695725317733,1.414139325725585,5.29371355691177,2.6527222979539813
6.712837118574988,1.3303505691885456,5.32024077989131,2.768177827553776
6.726140624266874,1.24175547788275,5.3479225581668475,2.881746032014408
6.738558179045701,1.148289614924792,5.376740018486991,2.993634994076795
6.750041075194949,1.0498961983466024,5.4066763684277594,3.1041036196463345
6.760540037178416,0.9465224465708434,5.437717404624223,3.2134648568036828
6.770005261644124,0.8381153801793444,5.46985205319226,3.3220889041638992
6.778386415445918,0.7246171104510543,5.503072942233898,3.4304064627236133
6.785632586550428,0.6059596694271255,5.537377006861135,3.538912078454473
6.7916921832447,0.48205947188056386,5.5727661276456795,3.648167598581118
6.796512777963505,0.3528115542387913,5.609247803631491,3.7588057117038263
6.800040893505893,0.21808382176425242,5.64683586074853,3.8715334432866926
6.802221731723536,0.0777116732855351,5.685551195181397,3.9871353058999612
6.802998848456392,-0.0685064053957378,5.725422548240396,4.106475514024507
6.802313784402434,-0.22081133180532292,5.766487303380641,4.23049819641576
6.800105671084381,-0.37948248241844473,5.808792285344799,4.36022376496819
6.796310846260197,-0.5448308873311347,5.852394522994481,4.496738356686039
6.790862537386886,-0.717182708122852,5.897361906561342,4.641171295521493
6.783690710305657,-0.8968469273305877,5.9437736195165565,4.794652448200026
6.774722241032351,-1.08405783105002,5.991720143998557,4.958236675529122
6.763881662721851,-1.2788780280343603,6.041302510753848,5.132775772042542
6.751092882441507,-1.4810412994902658,6.092630268474274,5.318709109434515
6.736282469446604,-1.689707354874062,6.1458173595686185,5.515733708827799
6.719385395897864,-1.9030960949913323,6.200974696656896,5.722307373745041
6.7003544349479505,-2.1179768626696314,6.2581977703943465,5.934947951168659
6.679174666321254,-2.3290292005718873,6.317547249906033,6.147346498513279
6.655884374315535,-2.528200219927057,6.3790207148911655,6.349460059800468
6.630602372116265,-2.7043902264168844,6.44251531548917,6.527034144826274
6.6035584698520955,-2.844056893285987,6.507785656937433,6.662364458426765
6.575117900919236,-2.933383570270232,6.5744093015217,6.737190433339021
6.545784065216534,-2.962037430508398,6.64178120585509,6.737767019730391
6.5161636909114495,-2.927118170968796,6.709158876052395,6.660204937307589
6.486892509201762,-2.8348156745090147,6.7757609254254705,6.512688368170251
6.458544352456672,-2.698346497292803,6.840887809107173,6.312637164525322
6.4315608874837435,-2.5334887509038295,6.904014180752426,6.080652603669469
6.406225999974705,-2.3544989695598675,6.96482070678912,5.83505369643388
6.382681010279106,-2.172069569879405,7.023171243753459,5.589226023300922
6.360960314580312,-1.9931583862279207,7.079063503986468,5.351501771077038
6.341028730718033,-1.8217496766126815,7.132578521697239,5.126264145877894
6.3228112339519065,-1.6597931474221765,7.183841163156018,4.915252837863066
6.306213302477684,-1.5079795645569025,7.232993691534649,4.718620134533358
6.291133506832115,-1.366281550607291,7.280179892879982,4.535654190081965
6.277470691326043,-1.2342968726644554,7.325536434780801,4.365229161730216
6.265127722599398,-1.111453370021246,7.369188726398104,4.206067369456472
6.254013188899186,-0.9971253390883483,7.411249400092668,4.056883211322199
6.244041935508302,-0.8906961366503258,7.45181823220589,3.9164566390725697
6.235134974141799,-0.7915892354884263,7.490982798596616,3.7836663012001845
6.227219081786915,-0.6992813039978687,7.528819461608618,3.657500436732445
6.220226268746936,-0.6133053664056968,7.565394465975943,3.5370560559211826
6.214093215082879,-0.5332487357723616,7.6007650265351545,3.4215324025309246
6.2087607277251555,-0.45874840774088665,7.634980350560464,3.310222026402364
6.204173243647746,-0.3894854261099642,7.668082570824487,3.202501255760112
6.200278389386646,-0.325179047263501,7.7001075833820884,3.0978209825362173
6.197026598914012,-0.26558113668066946,7.731085793207451,2.9956981830908873
6.194370787547205,-0.21047100668578622,7.7610427750383595,2.8957083278316236
6.1922660774803475,-0.15965077928309238,7.789999858316675,2.7974786912646894
6.1906695696875165,-0.11294128971966684,7.817974645229322,2.700682503880461
6.189540156790319,-0.07017851096995371,7.844981470268126,2.6050338571966876
6.18883837168062,-0.03121046241818938,7.871031808840093,2.51028326499523
6.188526267056438,0.004105440639350359,7.896134641490045,2.4162137868491436
6.188567321462831,0.035904641218924956,7.920296779358536,2.3226376285361416
6.188926367875021,0.06431734155655505,7.943523155643898,2.2293931445744604
6.189569541290586,0.08947009082783924,7.9658170870896425,2.136342179106162
6.190464242198865,0.11148709657216038,7.987180508880704,2.043367691760867
6.191579113164586,0.13049129348026312,8.007614185798312,1.9503716245184777
6.192884026099389,0.1466052001645022,8.027117902043496,1.8572729737843479
6.194350078101034,0.15995159174646023,8.04569063178134,1.764006038875523
6.195949594018499,0.17065401356436025,8.063330692170096,1.6705188239512352
6.197656134154142,0.17883715899086738,8.080035880409609,1.5767715752024252
6.199444505744051,0.18462713221962848,8.095803596161634,1.4827354389572143
6.201290777066247,0.18815161488724585,8.110630950551206,1.3883912293794263
6.203172293215119,0.18953995351442834,8.124514862845,1.293728296750089
6.205067692750264,0.18892318295291988,8.137452145812501,1.198743489035709
6.206956924579793,0.18643399929953133,8.14943958070286,1.1034402006622634
6.208821264572788,0.18220669407911438,8.160473982709481,1.007827503221555
6.210643331513579,0.17637705990479258,8.170552257741697,0.9119193533186326
6.2124071021126275,0.1690822763009173,8.179671451274883,0.8157338729977106
6.214097924875636,0.16046078292962584,8.18782879000486,0.7192926982222737
6.215702532704933,0.15065214610455913,8.195021716987082,0.6226203907866422
6.217209054165979,0.1397969232145252,8.201247920894948,0.5257439088462766
6.218607023398124,0.12803652852433803,8.20650535998341,0.42869213100960696
6.219887388683367,0.1155131027771929,8.210792281293505,0.33149542866488674
6.221042519711139,0.10236938809872681,8.214107235580155,0.2341852809446707
6.222066213592126,0.08874860890169636,8.216449088389602,0.1367939264754799
6.222953699681143,0.07479435881477424,8.217817027654357,0.03935404583369874
6.22370164326929,0.06065049311073124,8.218210568112694,-0.05810153156059049
6.2243081482003975,0.04646102568851803,8.217629552797089,-0.1555401025268347
6.2247727584572825,0.032370029369924766,8.21607415177182,-0.25292935370041947
6.225096458750982,0.01852153810342999,8.213544858234817,-0.3502376201729047
6.225281674132016,0.005059449624051721,8.210042482033089,-0.44743414577511725
6.225332268628256,-0.007872572803197898,8.205568140575338,-0.544489351546003
6.225253542900225,-0.02013120072904564,8.200123247059878,-0.6413751188521402
6.225052230892934,-0.031573543809064804,8.193709495871357,-0.7380650935065565
6.224736495454843,-0.04205725645467574,8.186328844936291,-0.834535017085732
6.2243159228902964,-0.05144064771397439,8.177983494765433,-0.9307630914665345
6.223801516413157,-0.059582793587350455,8.168675863850767,-1.0267303824082203
6.223205688477283,-0.06634365021058442,8.158408560026684,-1.1224212677986856
6.222542251975177,-0.07158416546036449,8.147184347348697,-1.2178239359818095
6.221826410320574,-0.07516638555866806,8.135006107988879,-1.3129309394003326
6.221074746464987,-0.07695355217890607,8.121876798594876,-1.4077398086466364
6.220305210943199,-0.07681018439480992,8.107799400508409,-1.5022537319370173
6.21953710909925,-0.0746021385702721,8.092776863189039,-1.596482305043773
6.218791087713548,-0.07019663797283308,8.076812040138602,-1.690442356869431
6.218089121333819,-0.06346226251351246,8.059907616569907,-1.78415885617051
6.217454498708684,-0.05426888757912475,8.042066028008202,-1.8776659054821119
6.216911809832893,-0.042487559437058425,8.023289368953382,-1.9710078291130433
6.216486934238522,-0.027990293162180113,8.003579290662252,-2.0642403632330777
6.2162070313069,-0.010649777464675152,7.982936887029921,-2.157431957622529
6.216100533532253,0.009661030811777334,7.961362567453696,-2.25066520066494
6.216197143840371,0.03306944139855744,7.938855915447046,-2.3440383817007944
6.216527838254357,0.05970371507403534,7.915415531630038,-2.437667207981937
6.217124875405097,0.0896939201562499,7.8910388595502186,-2.531686697216219
6.21802181460666,0.12317298496532306,7.865721992578056,-2.62625327108484
6.219253544456313,0.1602779718213202,7.839459459867207,-2.7215470801151573
6.220856324174526,0.20115159955507816,7.812243989066055,-2.817774595777011
6.2228678401700765,0.24594404247555873,7.784066243108286,-2.915171511372992
6.225327280594832,0.29481503383064256,7.754914527994556,-3.014005998704347
6.228275430933138,0.34793630028527,7.724774468007513,-3.1145823717107444
6.231754793935991,0.40549434958719666,7.693628644290405,-3.217245209753641
6.235809737431863,0.467693624350224,7.661456192192869,-3.3223839893327543
6.240486673675365,0.5347600173983647,7.628232352299541,-3.430438259463144
6.245834273849349,0.6069447129009995,7.59392796970491,-3.5419033655554486
6.251903720978359,0.6845282636786597,7.558508936049355,-3.6573366677071304
6.258749003615145,0.7678247241183493,7.521935569372284,-3.777364092622153
6.266427250856329,0.8571855066961971,7.484161928446062,-3.9026866725383265
6.274999105923291,0.9530023803146704,7.445135061720678,-4.034086408364842
6.284529129726438,1.0557086195298682,7.404794197637029,-4.1724302645551425
6.295086215921736,1.1657766476155875,7.363069894991478,-4.318670225870391
6.306743982397892,1.2837094387966403,7.319883192732774,-4.473835907204789
6.319581076785858,1.4100212168025272,7.275144833660725,-4.639013873322531
6.333681288953883,1.5452002527765427,7.2287546949275,-4.815304095046595
6.349133291481649,1.6896423370825246,7.180601653977034,-5.003738145212134
6.366029714852474,1.843537214375199,7.1305642725249125,-5.2051349995234775
6.384465086996226,2.006681594787603,7.0785129225296775,-5.419858107247791
6.404531902944102,2.1781821215394803,7.0243143414572,-5.647422743181892
6.426313724159497,2.3560042935298817,6.967840114025381,-5.8858914146184915
6.449873767094796,2.536331900904856,6.908981199879196,-6.131005099147133
6.475237086103845,2.712756013905349,6.847671148887724,-6.375070608839721
6.502364646242898,2.8754647405552087,6.783920442799327,-6.605831291847893
6.531119293648451,3.0109018261355973,6.7178621298808485,-6.80595587194901
6.561228311909807,3.102727630416805,6.649802571161358,-6.954285707429812
6.592255588213975,3.1349327998125207,6.5802597140870605,-7.030009491017382
6.6236049162121,3.096898074080885,6.509959619176887,-7.019485553160702
6.654573896952909,2.9880663233302363,6.43976476364528,-6.922513708493531
6.684454560186212,2.8188133761415566,6.370539626560344,-6.753400685560246
6.712642693947627,2.606469002446605,6.3030056197047415,-6.535447872448984
6.738707383972093,2.369325999713977,6.237651140980252,-6.292809427504809
6.762400643969233,2.122314373684162,6.1747230467052034,-6.0447351711219275
6.783623787706075,1.8755895529701514,6.114275694993984,-5.803822043249851
6.802379683235777,1.6350944756211154,6.0562374745614855,-5.576917640285279
6.818730627991988,1.4037846750788936,6.000468298158633,-5.36686513770598
6.832768474742776,1.1827635095753024,5.946799646781573,-5.174075923048104
6.8445961098385295,0.9720987824200495,5.895058887551092,-4.997639483151778
6.85431709766273,0.7713401201745835,5.845082492719574,-4.836013392001746
6.862030498864476,0.5798220767740395,5.796722358799557,-4.687418650758385
6.867828719632216,0.3968312074154646,5.749848172291974,-4.550051442890687
6.871797031706371,0.2216922527915497,5.7043476578630665,-4.422188071020843
6.874013954234286,0.05380817029616872,5.660125777152858,-4.3022306900622285
6.874552035937247,-0.10732533195066299,5.617103470252236,-4.188721708257081
6.873478782617741,-0.26211888076904843,5.575216253169666,-4.080342587358003
6.87085759381005,-0.4108954669334883,5.5344128272960855,-3.9759056660871965
6.866748639140715,-0.5538997364322588,5.494653770635214,-3.8743435847391297
6.861209641776393,-0.6913085563712699,5.455910334787823,-3.7746986266180746
6.85429655621268,-0.8232418108775159,5.418163348521642,-3.6761130464057206
6.846064138103905,-0.9497728983424347,5.381402218057584,-3.577820781810393
6.836566409120481,-1.0709386768303646,5.34562401023948,-3.479140590212586
6.825857022352177,-1.1867487459995527,5.310832604337355,-3.379470474379074
6.8139895348921815,-1.2971940220888618,5.277037899593564,-3.2782831812813735
6.8010175946712925,-1.402254591860618,5.244255067780751,-3.175122531481739
6.786995048752686,-1.5019068413483867,5.212503842465933,-3.069600338987859
6.771975980339203,-1.596129856749862,5.181807839076055,-2.9613936994071106
6.756014681771704,-1.684911093789144,5.152193902081984,-2.8502424501605694
6.739165570833813,-1.768251311427678,5.123691477580378,-2.7359466362418923
6.721483057719536,-1.8461687673221876,5.096332011217959,-2.6183638460959178
6.703021370046314,-1.9187026763227386,5.070148372757,-2.4974063131639648
6.6838343432830865,-1.9859159394286205,5.04517430962536,-2.373037708526041
6.6639751838888,-2.0478971585320034,5.0214439325401,-2.2452695781808414
6.6434962123034795,-2.1047619614059583,4.998991236758291,-2.1141574043372033
6.62244859268942,-2.156653671132648,4.977849662714919,-1.9797962932664772
6.600882055978093,-2.2037433639509536,4.958051699782255,-1.8423163125046835
6.5788446223385835,-2.246229368828709,4.9396285366572075,-1.7018775173000824
6.5563823286502965,-2.284336270511013,4.922609761484207,-1.558664720049592
6.533538965945186,-2.318313485021257,4.907023114283711,-1.412882066989413
6.510355831094974,-2.3484334823283373,4.892894293613817,-1.2647474935870375
6.48687149627169,-2.3749897349410882,4.880246818677946,-1.1144871339612095
6.463121598922279,-2.398294473407319,4.869101947338335,-0.9623297603289354
6.439138654188206,-2.418676329992201,4.8594786497350455,-0.80850132610991
6.414951890888283,-2.4364779501521188,4.851393636473946,-0.6532196811610292
6.390587111386762,-2.452053647815517,4.844861439662336,-0.4966895200241536
6.366066574908607,-2.465767174981409,4.839894544462094,-0.33909761452860354
6.341408903158793,-2.4779896688232608,4.836503568316808,-0.18060837121386347
6.31662900647056,-2.489097830413381,4.8346974846046695,-0.021359742599036613
6.291738028166426,-2.49947237838932,4.8344838871786795,0.13854048973208893
6.266743304382533,-2.5094968082920883,4.8358692920760005,0.2990180517892468
6.241648336299613,-2.5195564736461837,4.838859472593893,0.4600351317237859
6.216452771563151,-2.5300379875394268,4.843459823911131,0.6215929522890424
6.191152391687757,-2.5413289224312834,4.849675753434021,0.7837339560964984
6.165739102463444,-2.5538177593924956,4.857513092994986,0.9465435832927536
6.14020092486952,-2.567894003134653,4.8669785288279135,1.110151591576713
