th1 (rad),w1 (rad/s),th2 (rad),w2 (rad/s),a1 (rad/s^2),a2 (rad/s^2)
5.657597274703891,0.8765053153327644,3.3526299423576775,2.6330855546851284,5.214011849393682,6.116436665739497
5.666362327857218,0.9286454338267013,3.378960797904529,2.6942499213425233,4.975670632357892,6.222858461488531
5.675648782195485,0.9784021401502803,3.405903297117954,2.7564785059574084,4.723025723940257,6.331858043056193
5.685432803596988,1.0256323973896828,3.4334680821775283,2.8197970863879704,4.455361125380173,6.442656776446297
5.695689127570884,1.0701860086434845,3.461666053041408,2.8842236541524335,4.171977573167713,6.554472380309166
5.706390987657319,1.1119057843751616,3.490508289582932,2.9497683779555253,3.8722030486646077,6.666534106142888
5.717510045501071,1.1506278148618077,3.5200059733624873,3.016433719016954,3.555403449829864,6.778099170687022
5.729016323649689,1.1861818493601064,3.550170310552657,3.0842147107238245,3.2209933191724627,6.888470564800746
5.74087814214329,1.2183917825518311,3.581012457659895,3.1530994163718318,2.868446468782383,6.997016327677536
5.7530620599688085,1.247076247239655,3.6125434518236137,3.223069579648607,2.497306284561654,7.103190335646238
5.765532822441205,1.2720493100852717,3.6447741476200997,3.2941014830050697,2.10719542864891,7.206554612257525
5.778253315542058,1.2931212643717607,3.6777151624501503,3.366167029127645,1.6978245929806108,7.306803122642932
5.7911845281857754,1.3100995103015667,3.711376832741427,3.4392350603540742,1.2689998898803652,7.403786972738216
5.804285523288791,1.3227895092003703,3.745769183344968,3.5132729300814565,0.8206283998730952,7.497540896143704
5.817513418380795,1.3309957931991012,3.780901912645782,3.5882483390428934,0.3527213353159072,7.5883108822441026
5.830823376312786,1.3345230065522602,3.816784396036211,3.6641314478653344,-0.134605776090474,7.676582783653636
5.844168606378308,1.3331769487913554,3.8534257105148644,3.7408972757018706,-0.6411365282453784,7.7631117447731866
5.857500375866222,1.3267655835089016,3.890834683271883,3.8185283931496024,-1.166561365791823,7.848952322534247
5.870768031701311,1.3150999698509833,3.929019967203379,3.8970179163749448,-1.7104902932557235,7.93548923191007
5.883919031399821,1.2979950669184261,3.9679901463671285,3.9763728086940455,-2.2724712511228895,8.024468749163638
5.896898982069005,1.2752703544071973,4.007753874454069,4.056617496185682,-2.8520148276093336,8.118030951306675
5.909651685613077,1.246750206131104,4.048320049415926,4.1377978056987486,-3.4486259402356234,8.218743166090059
5.9221191876743875,1.2122639467287477,4.089698027472913,4.21998523735965,-4.06184307234767,8.329635256522591
5.934241827141675,1.171645516005271,4.13189787984651,4.303281589924875,-4.691285589382698,8.454237668189405
5.945958282301728,1.124732660111444,4.174930695745759,4.38782396660677,-5.336709590617452,8.596623523121533
5.957205608902842,1.0713655642052695,4.218808935411826,4.473790201837985,-5.9980726745646,8.761456440819272
5.967919264544895,1.0113848374596235,4.263546837430206,4.561404766246177,-6.67560790403255,8.954046185107336
5.978033112919491,0.9446287584192979,4.309160885092668,4.6509452280972505,-7.369907131237315,9.180414637541588
5.987479400503684,0.8709296871069248,4.35567033737364,4.742749374472666,-8.082013641509512,9.44737491759999
5.996188697374754,0.7901095506918296,4.403097831118367,4.837223123648666,-8.81352371090462,9.76262658943876
6.004089792881672,0.7019743135827834,4.451470062354853,4.934849389543054,-9.566695989260545,10.134869607413387
6.0111095360175,0.606307353690178,4.500818556250284,5.036198085617188,-10.344566328756622,10.573938591783739
6.017172609554402,0.5028616904026117,4.551180537106456,5.141937471535025,-11.151063269909649,11.09095654385916
6.022201226458428,0.39135105770351525,4.602599911821806,5.252847036973616,-11.99111497817965,11.698502056667172
6.0261147370354635,0.27143990792171874,4.655128382191542,5.369832057540288,-12.870730429158563,12.410774411631975
6.02882913611468,0.1427326036301331,4.708826702766944,5.493939801656608,-13.79702332737298,13.24372304684025
6.030256462150982,0.0047623703564033115,4.763766100783511,5.62637703212501,-14.778121813801514,14.215075298929056
6.030304085854546,-0.14301884778161184,4.820029871104761,5.7685277851143,-15.822862084270131,15.34413766071074
6.028873897376729,-0.3012474686243132,4.877715148955904,5.921969161721408,-16.94008504799556,16.65114103837541
6.025861422690486,-0.47064831910426874,4.936934840573118,6.088480572105162,-18.137217226388326,18.155715022413528
6.021154939499444,-0.652020491368152,4.997819646294169,6.270037722329297,-19.417579093459175,19.873752059135843
6.014634734585762,-0.8461962823027438,5.060520023517462,6.468775242920656,-20.775462517173793,21.811368776367967
6.006172771762735,-1.0539509074744817,5.125207775946668,6.6868889306843355,-22.187370648109013,23.95376602556546
5.99563326268799,-1.2758246139555718,5.192076665253512,6.9264265909399905,-23.59685845462024,26.245432042787215
5.982875016548435,-1.511793198501774,5.261340931162912,7.188880911367862,-24.889291663395337,28.556487595820553
5.9677570845634165,-1.7606861151357274,5.3332297402765905,7.474445787326068,-25.85245571670115,30.629224642677816
5.950150223412059,-2.019210672302739,5.4079741981498515,7.780738033752846,-26.12235081174701,32.0031873828767
5.929958116689032,-2.280434180420209,5.48578157848738,8.100769907581613,-25.12840451710453,31.937083327277087
5.90715377488483,-2.5317182255912543,5.566789277563196,8.420140740854384,-22.091645656329195,29.399410514118284
5.881836592628917,-2.752634682154546,5.65099068497174,8.714134845995567,-16.19455206361703,23.28957080546672
5.854310245807372,-2.9145802027907166,5.738132033431696,8.947030554050233,-7.058365884197853,13.0764179334217
5.825164443779465,-2.985163861632695,5.8276023389721985,9.07779473338445,4.577353213434919,-0.28720238132415327
5.795312805163138,-2.939390329498346,5.918380286306043,9.07492270957121,16.62915342513982,-14.06768780214136
5.7659189018681545,-2.7730987952469475,6.009129513401755,8.934245831549797,26.595582927801154,-25.01254052392554
5.738187913915685,-2.507142965968936,6.098471971717252,8.68412042631054,33.03144870966637,-31.32679108910734
5.713116484255996,-2.176828478872272,6.185313175980358,8.370852515419468,36.05651700841231,-33.30859661817501
5.6913481994672726,-1.816263308788149,6.269021701134553,8.037766549237718,36.671595411638535,-32.383697243142386
5.673185566379391,-1.4495473546717637,6.34939936662693,7.713929576806294,35.92796185974657,-29.985377872246264
5.658690092832673,-1.090267736074298,6.426538662394993,7.4140757980838305,34.56539040618068,-27.092276105769745
5.64778741547193,-0.7446138320124912,6.500679420375831,7.143153037026133,33.005621205952885,-24.243632778998705
5.640341277151805,-0.41455761995296236,6.572110950746092,6.900716709236146,31.454719931812495,-21.690236769024068
5.636195700952276,-0.1000104206348374,6.641118117838453,6.683814341545905,29.996187666586927,-19.524330439825242
5.635195596745927,0.19995145603103187,6.707956261253912,6.488571037147652,28.650773827115405,-17.76031847736754
5.637195111306237,0.4864591943021859,6.772841971625389,6.310967852373977,27.40989411370253,-16.37828345734595
5.642059703249259,0.7605581354392112,6.835951650149129,6.147185017800518,26.25302142766729,-15.345538232239639
5.6496652846036515,1.0230883497158842,6.897423500327134,5.993729635478122,25.156342200361525,-14.626518512227568
5.65989616810081,1.2746517717194994,6.9573607966819155,5.847464450355846,24.096900938719962,-14.186845370542246
5.672642685818006,1.515620781106699,7.015835441185474,5.705595996650424,23.054486056625485,-13.994612486716925
5.687798893629073,1.7461656416729538,7.072891401151979,5.565649871783255,22.012409414983537,-14.020438264939099
5.705260550045803,1.9662897358227893,7.128547899869811,5.425445489133864,20.95775212697195,-14.237040954663033
5.724923447404031,2.175867257092509,7.18280235476115,5.283075079587234,19.88135245387912,-14.618701469561111
5.746682119974956,2.3746807816313,7.235633105557023,5.136888064891623,18.777662842223133,-15.140782807140084
5.770428927791269,2.5624574100535313,7.287001986205939,4.985480236820222,17.644530575048538,-15.779377579291447
5.796053501891804,2.738902715804017,7.336856788574141,4.827686461027308,16.482923029388743,-16.511106184903454
5.823442529049845,2.9037319460979045,7.385133653184414,4.662575399178273,15.296605042858676,-17.31306288506989
5.852479848510824,3.0566979965264913,7.431759407176196,4.489444770327574,14.091772440632264,-18.162893497675636
5.883046828476089,3.1976157209328138,7.476653854879472,4.307815835350818,12.876647047475497,-19.038980948350233
5.915022985685417,3.3263821914075686,7.51973201323298,4.117426025867315,11.661041591272367,-19.92071091439638
5.948286807599493,3.442992607320292,7.5609062734916535,3.9182189167233514,10.455906167279256,-20.788788132961244
5.982716733672696,3.547551668993085,7.600088462658887,3.710331035393739,9.272870491846518,-21.62557409053025
6.018192250362627,3.64028037391155,7.637191773012824,3.494075294488437,8.123797606824713,-22.41541847054095
6.054595054101742,3.7215183499797972,7.672132525957708,3.269921109783027,7.020364875065173,-23.144959668656753
6.09181023760154,3.791721998730449,7.704831737055538,3.0384715130964595,5.973687095368644,-23.803373648729963
6.129727457588844,3.8514588696841354,7.735216452186503,2.8004377766091597,4.993994532540821,-24.382555153534547
6.168242046285686,3.9013988150095438,7.763220829952594,2.556612225073814,4.090375827390802,-24.87722054126934
6.2072560344357814,3.9423025732834516,7.788786952203332,2.307840019661121,3.270592361783413,-25.28492701949407
6.246679060168616,3.9750084969012858,7.811865352399943,2.0549907494661803,2.5409669438300346,-25.60600850205681
6.286429145137629,4.000418166339586,7.832415259894605,1.7989306644456122,1.9063458790798713,-25.84343340571497
6.326433326801025,4.019481625130385,7.850404566539061,1.5404963303884625,1.3701298230680299,-26.002594092289204
6.366628143052329,4.033182923361065,7.865809529842946,1.2804703894655705,0.934365460999369,-26.09104100241615
6.406959972285939,4.042526577971059,7.8786142337376015,1.019559979441409,0.5998871749196389,-26.11817648909749
6.44738523806565,4.048525449720255,7.888809833532015,0.7583782145504341,0.3664954982798698,-26.094923655758397
6.487870492562852,4.052190404703054,7.896393615677519,0.49742897799285013,0.2331572609752349,-26.033383895439588
6.528392396609882,4.054521977312806,7.901367905457448,0.23709513903845425,0.19821066849553812,-25.946493098494336
6.56893761638301,4.056504083997761,7.903738856847832,-0.022369791946489137,0.25955669994186853,-25.84768037964996
6.609502657222988,4.0590996509971795,7.903515158928368,-0.28084659574298876,0.4148154490241981,-25.750524229141917
6.65009365373296,4.063247805487421,7.900706692970938,-0.5383518380344079,0.6614213252075576,-25.668388410639135
6.690726131787835,4.069862018739497,7.895323174590594,-0.7950357221407993,0.9966228775878505,-25.61400228896678
6.731424751975229,4.079828247515375,7.887372817369186,-1.051175745030467,1.417339281029627,-25.598925224603104
6.772223034450383,4.094001640325671,7.876861059918881,-1.307164997276498,1.9198032995979804,-25.632798614459475
6.81316305085364,4.113199673321651,7.863789409946117,-1.5634929834210927,2.498885951596541,-25.72223703020548
6.854295047586857,4.138188532837616,7.848154480111906,-1.8207153537231475,3.1469466223317815,-25.86913557581022
6.895676932915233,4.169657999060934,7.829947326574675,-2.07940670948125,3.851980342058686,-26.06806898966355
6.937373512905842,4.208177802481521,7.809153259479862,-2.3400873993778855,4.594743321868281,-26.302331835443166
6.979455290930657,4.254125235700204,7.785752385486083,-2.603110717732317,5.344448537883253,-26.538046078196935
7.021996543287659,4.307569721079037,7.759721278308759,-2.8684911785142866,6.052601288098253,-26.715734676915
7.065072240498449,4.36809573396002,7.731036366523616,-3.1356485252834365,6.644759045149714,-26.739063355005037
7.10875319783805,4.434543324411517,7.699679881270782,-3.403039158833487,7.010813610129775,-26.461594645119515
7.153098631082165,4.5046514605128145,7.665649489682448,-3.667655105284682,6.996445418223304,-25.675270930536687
7.198145145687294,4.574615914695047,7.628972938629601,-3.924407814590049,6.402447989390367,-24.110002572528423
7.243891304834244,4.638640394588951,7.5897288604837,-4.165507840315334,5.004513492204667,-21.461957291547975
7.290277708780133,4.688685529510998,7.548073782080547,-4.380127413230813,2.6099414212353294,-17.473482808368956
7.337164564075243,4.714784943723352,7.504272507948238,-4.554862241314503,-0.841564735037357,-12.074398750412978
7.384312413512476,4.706369296372978,7.458723885535093,-4.675606228818633,-5.162415521714766,-5.542951170788197
7.431376106476206,4.65474514115583,7.411967823246907,-4.731035740526514,-9.870256840276031,1.4307417889031766
7.477923557887764,4.55604257275307,7.364657465841642,-4.716728322637483,-14.298707376206202,7.903207447458158
7.523483983615295,4.413055498991008,7.317490182615267,-4.637696248162901,-17.84606390092225,13.02902419801555
7.567614538605205,4.234594859981785,7.271113220133638,-4.5074060061827455,-20.199272704832378,16.375213207616103
7.609960487205022,4.032602132933461,7.226039160071811,-4.343653874106584,-21.381038046590078,17.985067262006883
7.650286508534357,3.8187917524675608,7.182602621330745,-4.163803201486515,-21.63334835085904,18.2115811337409
7.688474426059033,3.60245826895897,7.14096458931588,-3.9816873901491063,-21.262379589301343,17.497387852191373
7.724499008748622,3.3898344730659566,7.101147715414389,-3.8067135116271924,-20.53665250453691,16.23063120978028
7.758397353479282,3.1844679480205875,7.063080580298117,-3.6444071995293896,-19.65105568391089,14.69418102724767
7.790242032959488,2.9879573911814785,7.026636508302824,-3.497465389256913,-18.73042818481334,13.07082399901022
7.820121606871303,2.800653109333345,6.991661854410254,-3.3667571492668107,-17.847002815103156,11.468059845257347
7.848128137964636,2.6221830811823135,6.9579942829175865,-3.252076550814237,-17.038134747869393,9.943305965229799
7.8743499687764595,2.4518017337036193,6.925473517409444,-3.152643491161939,-16.319836905438365,8.523174152217184
7.898867986113496,2.288603364649236,6.893947082497825,-3.067411749639767,-15.695862718742179,7.216446085917355
7.921754019759988,2.131644737461814,6.8632729650014275,-2.9952472887805937,-15.163370337382219,6.02220455963053
7.943070467134606,1.9800110340879917,6.8333204921136215,-2.9350252431842883,-14.716285180143869,4.93469721537373
7.962870577475486,1.832848182286553,6.803970239681779,-2.885678271030551,-14.347215694802486,3.9461413414260242
7.981199059298351,1.6893760253385282,6.775113456971473,-2.8462168576162905,-14.048496467388311,3.0482826754804506
7.9980928195517365,1.548891060664645,6.74665128839531,-2.815734030861486,-13.812719918440935,2.2332206565487924
8.013581730158382,1.4107638614802358,6.718493948086695,-2.7934018242959984,-13.632975649722983,1.4938115713189826
8.027689368773185,1.274434104983006,6.690559929843735,-2.7784637085828083,-13.502927268484582,0.8238346262071895
8.040433709823015,1.13940483229816,6.662775292757907,-2.7702253623207365,-13.416802373415162,0.21802906502612696
8.051827758145997,1.0052368085640084,6.635073039134699,-2.768045071670475,-13.369339190384071,-0.32793546069870366
8.061880126231637,0.8715434166601677,6.607392588417994,-2.771324426277462,-13.355714456582094,-0.8175201519626576
8.070595560398239,0.7379862720943468,6.5796793441552195,-2.7794996277970885,-13.371466191812127,-1.253390688594199
8.077975423119183,0.6042716101762254,6.551884347877248,-2.7920335346830303,-13.412418713510041,-1.6374931628076634
8.084018139220944,0.470147423041125,6.523964012530418,-2.808408466311107,-13.474613710336776,-1.9711275563931399
8.088719613451357,0.3354012859377572,6.495879927867307,-2.8281197418750383,-13.554249242430117,-2.2550169996105938
8.092073626310734,0.19985879351345603,6.4675987304485565,-2.8506699118711443,-13.647627509343092,-2.4893727083464867
8.094072214245868,0.0633825184200251,6.439092031329845,-2.8755636389546093,-13.751111721100772,-2.673955367674494
8.094706039430069,-0.07412859879098263,6.410336394940299,-2.9023031926313543,-13.861092188181814,-2.8081341385630667
8.093964753442158,-0.21273952067280077,6.3813133630139856,-2.930384534016985,-13.973961672592289,-2.890944597347548
8.09183735823543,-0.35247913739872366,6.352009517673816,-2.9592939799904605,-14.086100030794174,-2.9211468819318553
8.088312566861443,-0.4933401377066654,6.322416577873911,-2.988505448809779,-14.193868179760289,-2.897285175336799
8.083379165484377,-0.6352788195042682,6.292531523385813,-3.017478300563147,-14.29361139990094,-2.81774944085984
8.077026377289334,-0.7782149335032776,6.262356740380182,-3.0456557949717453,-14.381671936145299,-2.6808400545720596
8.069244227954302,-0.9220316528647307,6.231900182430464,-3.072464195517466,-14.454410763239272,-2.484835674602694
8.060023911425654,-1.0665757604971233,6.2011755404752895,-3.097312552263493,-14.50823824250952,-2.228064355224728
8.049358153820682,-1.2116581429222186,6.170202414952654,-3.11959319581574,-14.53965321994897,-1.9089775703468368
8.03724157239146,-1.3570546751217083,6.139006482994497,-3.1386829715192084,-14.545289909509826,-1.5262264703956228
8.023671025640244,-1.5025075742168066,6.107619653279305,-3.153945236223165,-14.521971684975895,-1.0787393747952456
8.008645949898076,-1.6477272910665655,6.076080200917073,-3.1647326299711174,-14.466770685397668,-0.5657992153296406
7.9921686769874105,-1.792394997920542,6.044432874617362,-3.1703906221244136,-14.377071940201406,0.0128805925874824
7.974244727008205,-1.9361657173225562,6.012728968396118,-3.170261816198539,-14.250640556435336,0.6570835543613268
7.95488306983498,-2.0786721228869096,5.981026350234132,-3.1636909806549256,-14.08569039355899,1.366022601612087
7.934096348606111,-2.2195290268224994,5.949389440427583,-3.150030754638805,-13.880952585259193,2.1382795943522908
7.911901058337886,-2.3583385526750913,5.917889132881196,-3.128647958695282,-13.635742248961616,2.971753753532286
7.888317672811135,-2.4946959751647073,5.886602653294243,-3.098930421159959,-13.350021739027524,3.8636209891840116
7.863370713059488,-2.6281961925549826,5.855613349082643,-3.060294211268119,-13.024458828720439,4.810306146189605
7.837088751133938,-2.758440780842187,5.8250104069699615,-3.0121911498062226,-12.660478224971941,5.807470300692555
7.809504343325516,-2.8850455630919067,5.794888495471899,-2.954116446799297,-12.260304807308975,6.850015423282606
7.780653887694597,-3.0076486111649965,5.765347331003906,-2.8856162925664712,-11.82699692666423,7.9321089773319775
7.750577401582947,-3.1259185804316387,5.736491168078242,-2.8062952027931516,-11.364468007955741,9.047231309582004
7.719318215778631,-3.239563260511196,5.708428216050311,-2.7158228896973315,-10.87749460393191,10.188248947781776
7.686922583173519,-3.3483382065505154,5.681269987153337,-2.613940400219514,-10.371709006659266,11.347517045659393
7.653439201108014,-3.452055296617108,5.655130583151142,-2.50046522976292,-9.853574623089008,12.517014083604646
7.618918648141843,-3.550591042847998,5.630125930853513,-2.3752950889268734,-9.33034266534219,13.688511414619747
7.583412737713363,-3.64389446950142,5.606372979964244,-2.238409974780676,-8.80998939845382,14.853779234082333
7.546973793018349,-3.731994363485958,5.583988880216437,-2.0898721824398527,-8.30113431065984,16.004829002066984
7.50965384938349,-3.8150057065925562,5.563090158392039,-1.9298238924191828,-7.812941160099289,17.134190304509413
7.471503792317565,-3.893135118193549,5.543791919467847,-1.7584819893740886,-7.355005875033907,18.23521776848147
7.432572441135629,-3.9666851769438884,5.526207099574107,-1.576129811689274,-6.937237629116362,19.302421236610783
7.39290558936619,-4.036057553235052,5.510445801457214,-1.383105599323166,-6.569741886311533,20.331810352225556
7.35254501383384,-4.101754972098167,5.496614745463982,-1.1797874958009105,-6.26271656036182,21.321243464862505
