th1 (rad),w1 (rad/s),th2 (rad),w2 (rad/s)
0.9737215524926378,-0.7824190524215034,6.24440166514226,-2.858247374785042
0.9658973619684228,-0.9197614486227749,6.215819191394409,-2.776499830505271
0.956699747482195,-1.0547211283696116,6.188054193089357,-2.6935345228142316
0.9461525361984989,-1.1873300915047673,6.161118847861215,-2.608794407481909
0.9342792352834512,-1.3176091745426872,6.135030903786396,-2.5217537161971824
0.9211031435380244,-1.4455716601477375,6.109813366624425,-2.4319186408978237
0.906647426936547,-1.5712272698862524,6.085494180215447,-2.3388277398637864
0.8909351542376844,-1.6945864056670137,6.062105902816809,-2.242052126251973
0.8739892901810143,-1.815664538804241,6.039685381554289,-2.141195442414653
0.8558326447929719,-1.9344866666054465,6.018273427130143,-2.035893586557854
0.8364877781269174,-2.051091769351734,5.997914491264564,-1.9258141365600907
0.8159768604334001,-2.1655372085194484,5.978656349898963,-1.8106554056411135
0.7943214883482056,-2.277903011963344,5.960549795842552,-1.6901450640525983
0.7715424582285721,-2.38829599449135,5.943648345202027,-1.5640382691509107
0.7476594982836586,-2.496853662921802,5.9280079625105175,-1.4321152631121237
0.7226909616544406,-2.603747852571902,5.913686809879397,-1.2941784240853036
0.6966534831287216,-2.709188035411117,5.900745025638543,-1.1500487947847615
0.6695616027746104,-2.8134242257434026,5.889244537690696,-0.9995621659515038
0.6414273605171764,-2.9167493823758415,5.879248916031181,-0.8425648665529285
0.612259866693418,-3.019501159346611,5.870823267365652,-0.6789095171577393
0.5820648550999519,-3.122062779271824,5.864034172194074,-0.5084511517424364
0.5508442273072336,-3.224862677674834,5.85894966067665,-0.3310443278187453
0.5185956005304853,-3.3283723688996942,5.855639217398463,-0.14654215766822662
0.4853118768414883,-3.4331016788597033,5.85417379582178,0.04520134738948317
0.4509808600528913,-3.53959002614057,5.854625809295675,0.2443235531804432
0.4155849597914856,-3.648391740602384,5.85706904482748,0.4509370467046593
0.3791010423854617,-3.7600523961182026,5.8615784152945265,0.6651005729874322
0.3415005184242797,-3.875071696143253,5.868229421024401,0.8867705888290496
0.3027498014628472,-3.993846500672194,5.877097126912691,1.1157242657671338
0.26281133645612526,-4.116585143988941,5.888254369570363,1.3514414403943218
0.22164548501623585,-4.243181614371358,5.901768783974306,1.5929295512625774
0.17921366887252227,-4.373036580243523,5.917698079486931,1.8384736473131276
0.13548330307008705,-4.504814390351094,5.936082815960063,2.085297009129007
0.0904351591665761,-4.6361365900045195,5.956935786051353,2.3291346494319094
0.04407379326653091,-4.763242393163573,5.980227132545672,2.5637649500341118
-0.0035586306651048186,-4.88070569547982,6.005864782046014,2.7806290145517134
-0.05236568761990302,-4.9813877791473,6.033671072191531,2.96879423672592
-0.10217956541137602,-5.056889633107926,6.06335901455879,3.1156376031417854
-0.15274846174245527,-5.098744627256856,6.094515390590208,3.208588594593238
-0.20373590801502384,-5.100316356825001,6.12660127653614,3.237876026234954
-0.25473907158327386,-5.0588285407611675,6.158980036798489,3.1994557458978483
-0.30532735699088553,-4.976518131754888,6.190974594257468,3.096675340108965
-0.3550925383084344,-4.86014660060724,6.221941347658557,2.939579120541704
-0.4036940043145068,-4.719067210664051,6.251337138863974,2.7421296174039504
-0.4508846764211473,-4.562895073167391,6.2787584350380135,2.518837747436624
-0.4965136271528212,-4.3998038771896955,6.30394681251238,2.2822709859616594
-0.5405116659247182,-4.235809215874769,6.326769522371997,2.041967983884441
-0.5828697580834659,-4.07481644603826,6.347189202210841,1.80445537358835
-0.6236179225438485,-3.9190380999079424,6.365233755946725,1.5738083340359381
-0.662808303542928,-3.769484719786466,6.380971839287084,1.352331097053985
-0.7005031507407926,-3.6263854722384417,6.394495150257624,1.1411482562834516
-0.736767005463177,-3.4894994050356614,6.405906632820459,0.9406467165306055
-0.7716619995135335,-3.3583268985893637,6.415313099985765,0.7507786388602633
-0.8052452684994271,-3.232245324701937,6.422820886374367,0.571257565207905
-0.8375677217464464,-3.110592266630946,6.428533462026446,0.40167990009671817
-0.8686736444127559,-2.9927143955522246,6.432550261027413,0.24159703793824272
-0.8986007883682781,-2.8779946494748736,6.434966231406795,0.09055601144680442
-0.9273807348630267,-2.765866065697798,6.435871791521263,-0.05187939811673617
-0.9550393955200047,-2.655817593971736,6.435352997540096,-0.1861193718701438
-0.981597571459722,-2.5473952099175543,6.433491803821394,-0.31254570054760067
-1.0070715235588976,-2.440200360089671,6.4303663468159185,-0.4315133205650962
-1.0314735271597943,-2.3338869612668387,6.426051213610267,-0.5433538610796984
-1.0548123967724627,-2.2281576765529034,6.420617674999471,-0.648380060754791
-1.0770939735379919,-2.1227598858641925,6.414133874391923,-0.7468903739439249
-1.0983215723966337,-2.0174815849196506,6.406664970652484,-0.8391733735905837
-1.1184963882458303,-1.9121473384156562,6.3982732369165785,-0.9255117371954175
-1.1376178616299868,-1.806614350506879,6.389018119544624,-1.0061857134772076
-1.1556840051350556,-1.7007686808702558,6.378956262409852,-1.0814760362747329
-1.1726916919437582,-1.5945216162402613,6.368141502047104,-1.1516662946117995
-1.1886369081061607,-1.4878061984168776,6.356624839100986,-1.2170447934913269
-1.2035149700903296,-1.380573906098539,6.344454391166073,-1.2779059549923641
-1.217320709151315,-1.2727914868963957,6.331675331616149,-1.3345513174128776
-1.2300486240202788,-1.1644379360106467,6.31832981844202,-1.3872901939098956
-1.2416930033803852,-1.0555016184206794,6.304456916502922,-1.4364400528434316
-1.252248019564592,-0.9459775315973745,6.290092515974488,-1.4823266808008897
-1.2617077948805657,-0.8358647054851521,6.275269249166478,-1.525284186701338
-1.2700664419354173,-0.7251637357802356,6.260016407299465,-1.565654901881304
-1.2773180792932197,-0.6138744454065972,6.244359858280651,-1.6037892269341802
-1.2834568237472856,-0.5019936676809109,6.228321966011309,-1.6400454715019965
-1.2884767604240948,-0.3895131431239678,6.211921511296289,-1.6747897283052389
-1.2923718918553344,-0.2764175204150559,6.195173614013236,-1.7083958174642841
-1.295136067059485,-0.16268245083357122,6.178089655838593,-1.7412453315400074
-1.2967628915678207,-0.048272764978230256,6.1606772025231935,-1.7737278055055372
-1.297245619217603,0.06685927903033004,6.142939924468138,-1.806241028698537
-1.2965770264272996,0.1827756847771128,6.1248775141811524,-1.8391915071127491
-1.2947492695795284,0.29955434909143774,6.106485599110025,-1.8729950732729015
-1.291753726088614,0.41729063361911545,6.087755648377295,-1.9080776260537564
-1.287580819752423,0.5360988624638262,6.068674872116758,-1.944875962163735
-1.2822198311277848,0.6561137136852628,6.049226112495121,-1.9838386317014376
-1.2756586939909322,0.7774914446760033,6.029387726178107,-2.025426707961547
-1.2678837795441722,0.9004108498643922,6.009133459098491,-2.07011430035533
-1.2588796710455283,1.0250737876040084,5.988432316094938,-2.118388550040849
-1.2486289331694882,1.1517050226179104,5.9672484305945295,-2.170748717934467
-1.2371118829433092,1.2805509983778829,5.9455409434151845,-2.2277037862744717
-1.2243063729595303,1.4118769628441807,5.92326390555244,-2.2897677230103706
-1.2101876033310885,1.5459615975809624,5.900366228322336,-2.3574511696876814
-1.194727987355279,1.6830879144508424,5.876791716625459,-2.4312477657799327
-1.1778971082107705,1.8235286512844198,5.85247923896766,-2.511612566654373
-1.1596618216979264,1.967523686293965,5.827363113301116,-2.598929003593588
-1.1399865848349868,2.1152460912929247,5.80137382326518,-2.6934595595514463
-1.1188341239220576,2.2667524139946873,5.774439227669666,-2.7952738757874194
-1.0961665997821108,2.421911835493739,5.746486488911792,-2.9041466674119887
-1.0719474814271734,2.5803085283423335,5.717445022237672,-3.0194173709970697
-1.0461443961437502,2.7411129626557535,5.687250848527701,-3.139805457954257
-1.0187332665171926,2.902923084516407,5.655852793948158,-3.2631826705885674
-0.9897040356720286,3.0635882442573683,5.623220967242273,-3.386320353368649
-0.9590681532294549,3.2200507290281637,5.589357763708587,-3.5046611719377694
-0.9268676459391733,3.36827218619535,5.554311151989209,-3.6122104966631885
-0.8931849240772197,3.503346112944048,5.518189047022577,-3.7016909464385073
-0.8581514629477792,3.6199062828912467,5.481172137558192,-3.7651164855122765
-0.8219524001188667,3.7128816383357095,5.44352097270307,-3.794859507447988
-0.7848235837355096,3.7784930887857864,5.40557237762859,-3.785066051999834
-0.7470386528476518,3.815186245128204,5.367721717108592,-3.7329896732051973
-0.7088867903963698,3.824098435626461,5.33039182037654,-3.6396773294967795
-0.6706458060401053,3.808812355424978,5.293995047081572,-3.5096543861261846
-0.6325576824858555,3.7744978615643583,5.25889850322031,-3.3497453508829755
-0.5948127038702119,3.7268279628129535,5.22540104971148,-3.1675681670737994
-0.5575444242420824,3.671071414702863,5.193725368040742,-2.970266076419177
-0.5208337100950537,3.6115649105501695,5.164022707276549,-2.763764063998925
-0.48471806098955206,3.5515498790312923,5.13638506663656,-2.552532321462985
-0.44920256219923915,3.4932485609307653,5.11085974342193,-2.3396840983106295
-0.4142700765899315,3.4380486772580565,5.087462902438824,-2.1272267380901413
-0.37988958981735094,3.3867079967536142,5.066190635057922,-1.9163425000428969
-0.3460225098498148,3.3395345177691165,5.047027210057493,-1.7076372600451926
-0.31262716467212365,3.2965278542352205,5.029950837457041,-1.5013366480829506
-0.27966188612977144,3.257482727968331,5.014937470976212,-1.297430476290712
-0.24708705885008814,3.222061305056544,5.001963166213304,-1.0957744624383698
-0.2148664457995227,3.1898420996157273,4.991005421588921,-0.896159667805855
-0.1829680248033654,3.1603521830375096,4.982043824910862,-0.6983587383089467
-0.1513645029729903,3.133087935030513,4.975060237527773,-0.5021559820455733
-0.12003362362268519,3.107528162818481,4.970038677707317,-0.3073663817233481
-0.08895834199450037,3.083142285612904,4.966965013890083,-0.11384709134165805
-0.05812691913837133,3.0593954434389676,4.965826542976666,0.07849617975043183
-0.02753296470398165,3.0357517925208652,4.96661150477417,0.26970630280439356
0.0028245532212270025,3.0116768335216246,4.969308567802214,0.4597743493718356
0.03294132155644325,2.986639331718072,4.9739063112959325,0.6486410317692193
0.06280771487362397,2.9601131895806057,4.980392721613625,0.8361995462137325
0.09240884676943002,2.931579493370261,4.9887547170757625,1.0222995566904305
0.12172464170313263,2.9005288563038545,4.998977712642667,1.2067521528988159
0.15072993026617118,2.866464108159272,5.011045234171655,1.3893356693879884
0.1793945713477639,2.828903326121867,5.024938590865535,1.569802278647157
0.20768360460898258,2.7873831586454374,5.040636613652007,1.7478852779023106
0.23555743619543695,2.74146235974132,5.05811546643103,1.9233069844523838
0.26297205979285015,2.6907254235080718,5.0773485362755535,2.0957871425702552
0.2898793140279309,2.634786186924815,5.098306407701256,2.2650517301275546
0.316227175897179,2.573291252611384,5.120956925002531,2.4308420381984925
0.34196008842329284,2.50592307241618,5.145265345384516,2.592923884390015
0.3670193191474546,2.432402527500984,5.171194584228416,2.751096812507535
0.39134334442246443,2.35249084124937,5.198705552353491,2.9052031289776057
0.41486825283495815,2.265990667948313,5.2277575836432675,3.0551366314191974
0.4375281595144413,2.172746212732931,5.25830894995746,3.2008508977089503
0.4592556216417706,2.0726422564686606,5.290317458934549,3.34236702522807
0.4799820442064572,1.9656019825438733,5.323741129186829,3.4797807396346068
0.4996380640318959,1.8515835301827768,5.358538936583176,3.6132688298373403
0.5181538993337237,1.7305752299123804,5.394671624881549,3.7430949095477852
0.5354596516328475,1.6025895102637642,5.432102573977027,3.8696145537252304
0.5514855467354851,1.467655499969005,5.4707987195142795,3.9932799072309244
0.5661621017351751,1.3258103868939743,5.510731518586589,4.1146439084803035
0.5794202056041149,1.1770896352823121,5.551877957671391,4.2343643061747045
0.591191101956938,1.0215162107867533,5.594221600733138,4.353207662447293
0.6014062640648056,0.8590890268996138,5.637753677357611,4.472053515873828
0.6099971543338017,0.6897709227702364,5.682474212516349,4.591898798883028
0.6168948635615041,0.5134766390114501,5.72839320050518,4.713862427325054
0.6220296299516186,0.33006152255929466,5.77553182477843,4.839189641113217
0.6253302451772116,0.13931214367871236,5.823923721189563,4.9692550668488655
0.6267233666139987,-0.059059220074971774,5.873616271858052,5.105562417391869
0.626132774413249,-0.2654129701067438,5.92467189603197,5.249736943023132
0.6234786447121815,-0.4801679870035021,5.9771692654622015,5.403503720647536
0.6186769648421465,-0.7037657646611902,6.031204302668677,5.568639847123029
0.6116393071955346,-0.9365979439256809,6.0868907011399065,5.746880452563848
0.6022733277562778,-1.1788731990292496,6.144359505665545,5.939745677103031
0.5904845957659853,-1.430386174492297,6.203756962436575,6.148236992906432
0.5761807340210624,-1.6901344152300006,6.265239332365639,6.372327134976938
0.5592793898687624,-1.9557150820284237,6.328962603715409,6.610146463166219
0.5397222390484782,-2.222442363253369,6.395064068347071,6.856777886258814
0.5174978154159444,-2.4822099246149767,6.463631847209659,7.102682845857906
0.49267571616979466,-2.7223727446366284,6.534658675668238,7.332120687090936
0.46545198872342836,-2.9254202072768303,6.607979882539148,7.522608190927639
0.43619778665066006,-3.0707836360111718,6.683205964448424,7.647260759374055
0.40548995029054835,-3.1399229887599294,6.759678572042165,7.681600665727098
0.37409072040294905,-3.1236463211020253,6.836494578699436,7.613421334213427
0.3428542571919288,-3.0272174179660922,6.91262879204157,7.449644163339517
0.31258208301226786,-2.8687062227390476,6.987125233674965,7.214000831206454
0.2838950207848774,-2.671511036019558,7.05926524198703,6.936896190278456
0.2571799104246818,-2.4567503703731317,7.128634203889815,6.6452533967490695
0.2326124067209505,-2.2395663471375142,7.195086737857306,6.357754118380895
0.21021674324957534,-2.029081523679402,7.258664279041115,6.084996844912544
0.18992592801278133,-1.8299521326015262,7.319514247490241,5.8317227406708145
0.17162640668676607,-1.6440302871485488,7.377831474896949,5.599104246815521
0.15518610381528058,-1.4715971436171706,7.433822517365104,5.386403291667139
0.14047013237910888,-1.3121412676725088,7.487686550281775,5.1919936257445185
0.1273487197023838,-1.1648067969214104,7.5396064865392205,5.013932582078667
0.11570065173316968,-1.028635064532149,7.5897458123600074,4.850256908888706
0.10541430108784819,-0.9026865614169601,7.638248381448895,4.69912245185828
0.09638743547367859,-0.7860967522034654,7.685239605967477,4.558860057526979
0.08852646795164393,-0.6780966614420485,7.730828206542747,4.4279886900769165
0.08174550133722344,-0.5780154619987066,7.775108093443516,4.305208086078158
0.07596534671723637,-0.48527444181354407,7.818160174304298,4.1893827366301695
0.07111260229910094,-0.39937734032419236,7.8600540016705995,4.079523214684176
0.06711882889585902,-0.3198996388263329,7.900849233817441,3.9747677667547636
0.06391983250759568,-0.2464780845469879,7.940596911484989,3.8743654560435172
0.0614550516621258,-0.17880103119593588,7.979340566045424,3.777661305366598
0.05966704135016644,-0.11659981400423439,8.01711717909909,3.6840834744953765
0.058501043210124094,-0.05964119292321796,8.053958013844044,3.5931323173794403
0.05790463128089191,-0.00772081028077428,8.089889337017839,3.504371092153685
0.05782742317808417,0.039342426990155624,8.124933047939376,3.4174180828443683
0.058220847447985724,0.0817111404195561,8.15910722876782,3.331939905436332
0.059037958852181285,0.11953354556535929,8.192426627822183,3.247645796279208
0.060233294307834875,0.15294687918602135,8.224903085784975,3.16428270943863
0.06176276309969509,0.18208026736852403,8.25654591287936,3.0816310775148095
0.06358356577338033,0.2070571043651542,8.287362223654508,2.999501115864509
0.06565413681703187,0.22799700327174746,8.317357234813153,2.9177295724348506
0.06793410684974935,0.245017372290437,8.346534530537502,2.836176844480858
0.07038428057265372,0.25823466414050716,8.37489629898231,2.75472439948884
0.07296662721405879,0.2677653410628061,8.402443542977199,2.6732724509641645
0.07564428062468685,0.27372659361134705,8.429176267486842,2.5917378506895514
0.07838154656080032,0.27623684784304064,8.455093645993736,2.5100521679325847
0.08114391503923073,0.2754160924256646,8.480194167673062,2.42815993316745
0.08389807596348738,0.27138605443769365,8.504475767004736,2.3460170294360627
0.0866119365078643,0.26427025011657884,8.527935937299096,2.263589218740268
0.08925463900903009,0.25419393444105276,8.550571829486499,2.1808507940374215
0.09179657835344061,0.24128397115280342,8.572380337426873,2.0977833496920604
0.09420941806496864,0.2256686426019515,8.593358170923793,2.0143746647824994
0.09646610449098816,0.2074774166267254,8.613501917571618,1.930617694620872
0.09854087865725542,0.1868406855523309,8.632808094517827,1.8465096663493363
0.10040928551277872,0.16388949032884295,8.651273191181321,1.7620512746386305
0.10204818041606716,0.13875524084045843,8.668893703927708,1.6772459734371155
0.10343573282447174,0.11156944152869673,8.685666163662079,1.5920993594831947
0.10455142723975872,0.08246342970012235,8.701587157256911,1.5066186429716302
0.10537606153675994,0.05156813225290588,8.716653343686628,1.420812200411464
0.105891742859289,0.019013845070704874,8.730861465690744,1.3346892043744338
0.10608188130999605,-0.015069961992515063,8.744208357734488,1.2482593245411595
0.10593118169007089,-0.05055481277089211,8.7566909509799,1.1615324942314273
0.10542563356236197,-0.08731336431152673,8.768306275922214,1.0745187364695652
0.1045524999192467,-0.1252195183117125,8.77905146328691,0.987228043594038
0.10330030473612957,-0.1641485051768903,8.788923743722851,0.8996703044740786
0.10165881968436066,-0.20397694191890034,8.797920446767591,0.8118552735428459
0.09961905026517166,-0.24458286548562783,8.80603899950302,0.7237925760902513
0.09717322161031539,-0.28584574335828977,8.813276925263922,0.6354917445705284
0.09431476417673249,-0.32764646338598075,8.819631842709628,0.5469622810593615
0.09103829954287268,-0.369867304864095,8.825101465520222,0.45821374143114935
0.08733962649423173,-0.41239189281967636,8.829683602934534,0.3692558373061785
0.08321570756603497,-0.4551051373585367,8.833376161307596,0.28009855232700653
0.0786646561924496,-0.49789315977195076,8.836177146830867,0.19075226984976135
0.07368572459473009,-0.5406432069104168,8.838084669529364,0.10122790966568836
0.06827929252562592,-0.5832435551235803,8.83909694862602,0.011537071887255668
0.06244685697439012,-0.6255834048537221,8.839212319344892,-0.07830781337259009
0.0561910229258529,-0.6675527667695641,8.838429241211166,-0.16829333144411415
0.04951549525815726,-0.7090423401514087,8.836746307896725,-0.2584049241816804
0.042425071856643175,-0.7499433841011736,8.834162258654908,-0.348626726862428
0.034925638015631436,-0.7901475820645167,8.830675991386284,-0.4389414008327536
0.027024162194986268,-0.8295469001290956,8.826286577377957,-0.5293299616800676
0.01872869319369531,-0.8680334396143927,8.820993277761156,-0.6197716026676064
0.010048358797551383,-0.9054992846047191,8.81479556173448,-0.7102435132576659
0.0009933659515041927,-0.9418363453068616,8.807693126601903,-0.8007206927771112
-0.008424997501564424,-0.9769361984444764,8.79968591967413,-0.8911757596607096
-0.018194359486009188,-1.0106899263374969,8.790774162077524,-0.9815787572530641
-0.028301258749384155,-1.0429879568582896,8.780958374504992,-1.071896957866206
-0.038731138317967054,-1.0737199071050187,8.77023940492633,-1.1620946676809496
-0.04946833738901724,-1.1027744343798462,8.758618458249522,-1.252133036144609
-0.060496081732815704,-1.130039098892587,8.746097127888076,-1.3419698747479676
