th1 (rad),w1 (rad/s),th2 (rad),w2 (rad/s),a1 (rad/s^2),a2 (rad/s^2)
2.412937473212177,-2.533311827574365,5.273136262049914,-0.010572621918535256,-6.304090455718478,0.46090723009724577
2.387604354936433,-2.5963527321315496,5.273030535830729,-0.005963549617562798,-6.615822640181973,0.19181481862418973
2.3616408276151177,-2.6625109585333693,5.272970900334553,-0.0040454014313209006,-6.917498826883318,-0.052789336244481365
2.335015718029784,-2.7316859468022026,5.272930446320239,-0.004573294793765714,-7.204392158870682,-0.26457177705035323
2.307698858561762,-2.8037298683909095,5.272884713372301,-0.007219012564269246,-7.471171209982455,-0.43424017449813224
2.279661559877853,-2.878441580490734,5.2728125232466585,-0.011561414309250569,-7.711980012275698,-0.5516656874493385
2.2508771440729456,-2.9555613806134913,5.272696909103566,-0.017078071183743954,-7.9205685155224135,-0.6060847763419722
2.2213215302668106,-3.0347670657687154,5.272526128391728,-0.023138918947163675,-8.090479089029257,-0.5863897605005398
2.1909738596091235,-3.115671856659008,5.272294739202256,-0.029002816552169075,-8.215291516756304,-0.48151232403327643
2.1598171410425335,-3.197824771826571,5.272004711036734,-0.03381793979250184,-8.288924525337753,-0.2808969019795442
2.127838893324268,-3.2807140170799483,5.271666531638809,-0.036626908812297285,-8.305986374958739,0.02494839706269119
2.0950317531534686,-3.3637738808295357,5.271300262550686,-0.03637742484167037,-8.26216078705778,0.44384641803259095
2.061394014345173,-3.4463954887001136,5.27093648830227,-0.03193896066134446,-8.154608026894248,0.981325524492524
2.026930059458172,-3.527941568969056,5.270617098695656,-0.02212570541641922,-7.982355009214368,1.6400191059770535
1.9916506437684813,-3.6077651190611997,5.270395841641491,-0.005725514356648687,-7.74664365783325,2.4191434675194694
1.9555729925778693,-3.685231555639532,5.270338586497925,0.018465920318546006,-7.451204258984207,3.3141121913871223
1.918720677021474,-3.7597435982293743,5.27052324570111,0.05160704223241723,-7.10242098963656,4.316344386148395
1.8811232410391803,-3.83076780812574,5.271039316123434,0.09477048609390118,-6.709360831880654,5.413316978141136
1.8428155629579228,-3.8978614164445466,5.2719870209843736,0.14890365587531254,-6.283645126854194,6.588896633023909
1.8038369487934773,-3.9606978677130886,5.273476057543126,0.21479262220555162,-5.839155124509027,7.823965142119504
1.7642299701163464,-4.0190894189581785,5.275623983765182,0.29303227362674666,-5.391578535322855,9.097324457221672
1.7240390759267645,-4.073005204311407,5.278554306501449,0.3840055181989634,-4.957822028511404,10.386836704162878
1.6833090238836506,-4.122583424596521,5.282394361683439,0.48787388524059216,-4.555332761555478,11.670724556730747
1.6420831896376853,-4.168136752212076,5.287273100535844,0.6045811308078997,-4.201387593645328,12.928933416767338
1.6004018221155645,-4.210150628148529,5.293318911843923,0.7338704649755731,-3.9124186219072485,14.144444125603423
1.5583003158340791,-4.249274814367602,5.300657616493679,0.8753149062316072,-3.703445574989963,15.304427432298336
1.515807567690403,-4.286309270117501,5.309410765555995,1.0283591805545906,-3.5876782236504727,16.40115065924307
1.472944474989228,-4.322186052354006,5.319694357361541,1.1923706871470214,-3.5763360875121415,17.43258108334739
1.4297226144656878,-4.357949413229127,5.3316180642330115,1.3666964979804954,-3.6787111473638388,18.4026743841805
1.3861431203333965,-4.394736524702766,5.345285029212817,1.5507232418223005,-3.9024763459319476,19.321382885041068
1.3421957550863688,-4.433761288162085,5.3607922616310395,1.743937070672711,-4.254223186065072,20.204459809322575
1.297858142204748,-4.476303520022736,5.378231632337767,1.9459816687659368,-4.740199816037455,21.073166777664586
1.2530951070045206,-4.52370551818311,5.397691449025426,2.1567133365425826,-5.367219122795034,21.95400988670103
1.2078580518226896,-4.577377709411061,5.419258582390851,2.376253435409593,-6.143715093724433,22.878636133934194
1.162084274728579,-4.6388148603483055,5.443021116744947,2.605039796748935,-7.080943927778178,23.884020753627414
1.115696126125096,-4.709624299626087,5.469071514712437,2.843880004285209,-8.194351819768313,25.013072610076154
1.068599883128835,-4.79156781782377,5.497510314755289,3.0940107303859707,-9.505160977672151,26.31578381756517
1.0206842049505973,-4.8866194276004915,5.528450422059148,3.3571685685616224,-11.042254876136617,27.8510523181978
0.9718180106745924,-4.997041976361857,5.562022107744764,3.6356790917436004,-12.844464461379138,29.68930487851365
0.9218475909109738,-5.125486620975649,5.5983788986622,3.932572140528737,-14.963348559047098,31.916016183388127
0.8705927247012173,-5.27512010656612,5.637704620067487,4.251732302362618,-17.466472375393646,34.63608503500842
0.8178415236355561,-5.4497848303200565,5.680221943091113,4.5980931527127025,-20.440887041727564,37.97860738028831
0.7633436753323555,-5.654193700737332,5.72620287461824,4.977879226515586,-23.99567312214714,42.10041906767194
0.7068017383249822,-5.894150431958804,5.775981666883395,5.398883417192305,-28.260215987304658,47.18372742512447
0.6478602340053942,-6.17675259183185,5.829970501055318,5.87072069144355,-33.36931831797358,53.41539368027427
0.5860927080870757,-6.510445775011585,5.888677707969754,6.404874628246293,-39.41250421295735,60.91621494673811
0.5209882503369598,-6.904570817141159,5.952726454252217,7.014036777713674,-46.29235726326398,69.54304877091191
0.45194254216554824,-7.367494389773799,6.022866822029354,7.709467265422793,-53.36823419478502,78.39058347206628
0.37826759826781026,-7.901176731721649,6.0999614946835825,8.493373100143456,-58.66437018039452,84.68277643896386
0.29925583095059377,-8.487820433525595,6.184895225685017,9.340200864533095,-57.53335427619036,81.90021908352439
0.21437762661533782,-9.063153976287499,6.278297234330348,10.159203055368339,-42.112323202913444,59.01862901066795
0.12374608685246284,-9.484277208316634,6.3798892648840315,10.749389345475018,-7.023841325490768,8.50723491666451
0.0289033147692965,-9.554515621571541,6.4873831583387815,10.834461694641663,36.43078930270462,-53.780350376234594
-0.06664184144641891,-9.190207728544495,6.595727775285198,10.296658190879317,63.668780436374455,-93.42340539015458
-0.15854391873186385,-8.553519924180751,6.698694357193991,9.36242413697777,67.47906393014088,-100.34872537133134
-0.24407911797367138,-7.878729284879342,6.792318598563769,8.358936883264457,59.260978494391885,-90.46531960861864
-0.3228664108224648,-7.286119499935423,6.875907967396413,7.454283687178271,48.665882402160065,-77.22201759400673
-0.39572760582181904,-6.7994606759138225,6.950450804268196,6.682063511238203,39.218830299052335,-65.5339262941565
-0.46372221258095725,-6.407272372923299,7.017271439380578,6.026724248296638,31.551952966570635,-56.29306199798586
-0.5277949363101903,-6.091752843257593,7.077538681863545,5.46379362831678,25.46004464502906,-49.225172242385945
-0.5887124647427662,-5.837152396807302,7.132176618146713,4.97154190589292,20.600832824526854,-43.86077102704086
-0.6470839887108392,-5.631144068562033,7.181892037205642,4.532934195622511,16.67596532295595,-39.78553846547788
-0.7033954293964595,-5.464384415332474,7.2272213791618665,4.135078810967732,13.459026102028009,-36.67876580397336
-0.7580392735497843,-5.329794154312194,7.268572167271544,3.7682911529279983,10.786058974768359,-34.29988211479622
-0.8113372150929062,-5.221933564564511,7.306255078800824,3.425292331780036,8.540704805286142,-32.46753719086177
-0.8635565507385513,-5.136526516511649,7.340508002118624,3.1006169598714184,6.641588898703085,-31.04189252925719
-0.9149218159036678,-5.070110627524619,7.3715141717173385,2.7901980345788466,5.032916142906779,-29.911581869477804
-0.965622922178914,-5.019781466095551,7.399416152063127,2.4910822158840684,3.677657557087237,-28.98466263491721
-1.0158207368398695,-4.983004890524678,7.424326974221968,2.201235589534896,2.552526911063063,-28.18264049399893
-1.0656507857451163,-4.9574796214140475,7.446339330117317,1.9194091845949068,1.6440904250464214,-27.43683490664907
-1.1152255819592567,-4.9410387171635834,7.465533421963266,1.645040835528416,0.9455427444109358,-26.68655863091804
-1.1646359691308925,-4.931583289719474,7.48198383031855,1.3781752492192356,0.4538563899960524,-25.878712678549018
-1.2139518020280873,-4.927044725819513,7.495765582810742,1.1193881224337454,0.1671640993422069,-24.968442930963533
-1.2632222492862824,-4.9253730848260915,7.50695946403508,0.8697036931241101,0.08236517395434868,-23.92048660049382
-1.3124759801345434,-4.924549433086548,7.515656500966321,0.6304988271191719,0.19305255854818848,-22.710789999796873
-1.361721474465409,-4.922618907501066,7.521961489237513,0.40339092712120317,0.48792384190509464,-21.32794467635674
-1.4109476635404197,-4.917739669082016,7.525995398508725,0.19011148035763575,0.9498520861830925,-19.774006311472245
-1.46012506023124,-4.908241148220185,7.527896513312301,-0.007628582757086694,1.5557442954432188,-18.06435523360821
-1.5092074717134418,-4.892683705265752,7.527820227484731,-0.1882721350931688,2.277214789617572,-16.226428344656476
-1.5581343087660993,-4.869911557369576,7.525937506133799,-0.3505364185397336,3.0819735137150244,-14.29736899515793
-1.606833424339795,-4.839091822232426,7.522432141948402,-0.49351010849131294,3.935711997432069,-12.320851544877335
-1.6552243425621194,-4.799734702258105,7.517497040863488,-0.6167186239400863,4.804196790780078,-10.343486344304983
-1.7032216895847003,-4.751692734350304,7.511329854624087,-0.7201534873831361,5.65527100022481,-8.411263028922447
-1.7507386169282033,-4.695140024348056,7.504128319750255,-0.8042661176723606,6.460516595219809,-6.566441484442501
-1.7976900171716839,-4.630534858395858,7.496085658573532,-0.8699305325167855,7.196422490391446,-4.845176914308096
-1.8439953657556425,-4.558570633491944,7.487386353248364,-0.9183823016598665,7.845006868835083,-3.276010888500778
-1.889581072090562,-4.480120564803593,7.478202530231765,-0.9511424105448743,8.393930933336,-1.8792158851904406
-1.934382277738598,-4.396181255470233,7.468691106126316,-0.9699345693967787,8.836200119948057,-0.6668747004556237
-1.9783440902933003,-4.307819254270752,7.458991760432348,-0.9766033164013349,9.169574779786187,0.3564817378889123
-2.0214222828360078,-4.216123506472891,7.449225727268335,-0.9730384990224458,9.395811346371548,1.192868851130252
-2.063583517900737,-4.122165393009175,7.43949534227811,-0.9611098105111433,9.519836959383888,1.8496492229445523
-2.1048051718308285,-4.026967023415336,7.429884244172999,-0.9426133182816978,9.548935103548635,2.338280481329902
-2.145074842064982,-3.93147767237985,7.4204581109901815,-0.9192305134683988,9.491994185444849,2.673112708354097
-2.1843896187887806,-3.8365577305254015,7.411265805855497,-0.8924993863848578,9.358849136828834,2.8703021169068452
-2.2227551960940346,-3.742969239157113,7.402340811991649,-0.8637963652157894,9.159729552201549,2.946878251904546
-2.2601848884856057,-3.6513719436350978,7.39370284833949,-0.8343275826967439,8.90481636180982,2.919979674011998
-2.296698607921957,-3.5623237800169996,7.385359572512523,-0.8051277859566239,8.603901671241838,2.8062573781355646
-2.332321845722127,-3.476284763304581,7.3773082946529565,-0.7770652121752682,8.266142066306388,2.6214348843799957
-2.3670846933551726,-3.393623342641517,7.369537642531204,-0.7508508633314683,7.899893437280001,2.3800077479107093
-2.401020926781588,-3.3146244082687173,7.362029133897889,-0.7270507858523613,7.512614518589865,2.095062077488111
-2.434167170864275,-3.239498263082819,7.354758626039366,-0.7061001650774802,7.110826396641985,1.778190677309377
-2.4665621534951034,-3.168389999116399,7.347697624388591,-0.6883182583043864,6.700115903426741,1.4394859847349468
-2.4982460534862674,-3.1013888400821314,7.340814441805547,-0.673923398457037,6.285171881488289,1.087590570053141
-2.529259941887089,-3.0385371212672485,7.334075207820977,-0.6630474927565055,5.8698446264619095,0.7297882026744877
-2.5596453130997614,-2.9798386750026293,7.327444732893412,-0.6557496107297607,5.457220265709539,0.3721210593704907
-2.5894436998497876,-2.925266472345534,7.320887236786114,-0.6520284001360558,5.0497033142170675,0.01952130889413311
-2.618696364573243,-2.874769439203363,7.314366952784754,-0.6518331870471145,4.649102078753574,-0.32405213148188106
-2.647444058965277,-2.8282784184158274,7.3078486209142826,-0.6550737083619332,4.256712895147141,-0.6554785369107721
-2.675726843149435,-2.785711289464356,7.301297883830663,-0.6616284937310409,3.8734003391889855,-0.9723468516065616
-2.7035839560440786,-2.7469772860724664,7.294681598893352,-0.6713519622471066,3.499671527021852,-1.2728368467033515
-2.7310537289048034,-2.7119805708022477,7.287968079270882,-0.6840803307141401,3.1357434111149596,-1.5556117517719903
-2.7581735346128258,-2.680623136691098,7.28112727596374,-0.69963644823186,2.781602591661002,-1.8197231161911473
-2.784979765979737,-2.6528071107744884,7.274130911481421,-0.7178336793937715,2.4370576180748493,-2.064527899895666
-2.8115078370874818,-2.6284365345937397,7.266952574687484,-0.7384789583927281,2.1017840738811886,-2.289617271635273
-2.8377922024334192,-2.6074186938549277,7.259567785103557,-0.7613751311090808,1.775362945037378,-2.4947562612833765
-2.8638663893719687,-2.589665064404554,7.251954033792466,-0.7863226937219147,1.4573128903685542,-2.6798332281505095
-2.8897630400160144,-2.5750919355008683,7.244090806855247,-0.8131210260034197,1.1471170847956347,-2.8448180318941816
-2.915513959371023,-2.563620764652912,7.2359595965952135,-0.8415692063223615,0.8442453098756483,-2.989727794727513
-2.941150167017552,-2.5551783115541555,7.22754390453199,-0.8714664842696367,0.5481719369930715,-3.11459919765244
-2.9667019501330936,-2.5496965921842247,7.218829239689293,-0.9026124762461611,0.2583903982708561,-3.2194663395800536
-2.9921989160549356,-2.547112688201516,7.209803114926832,-0.9348071396419617,-0.02557532205457952,-3.3043432916839146
-3.0176700429369507,-2.5473684414220616,7.200455043530412,-0.9678505725588009,-0.3041617108565931,-3.3692105895740845
-3.0431437273511714,-2.5504100585306277,7.190776537804824,-1.0015426784545418,-0.5777588677235045,-3.4140050156179638
-3.068647827936478,-2.556187647207863,7.180761111020279,-1.0356827286107215,-0.846705435365375,-3.438612128255551
-3.0942097044085566,-2.5646547015615164,7.170404283734172,-1.070068849893277,-1.1112850519728004,-3.4428610916278717
-3.1198562514241717,-2.5757675520812446,7.159703595235239,-1.104497460809556,-1.3717241165361922,-3.4265214457493083
-3.1456139269449843,-2.5894847932466067,7.148658620627144,-1.138762675267049,-1.6281907107419042,-3.389301534191753
-3.1715087748774504,-2.605766700354026,7.137270993874473,-1.1726556906089665,-1.8807945684219443,-3.330848372744756
-3.1975664418809906,-2.6245746460382455,7.125544436968384,-1.205964174336414,-2.1295880258731223,-3.2507487990066557
-3.223812188341373,-2.6458705262969766,7.11348479522502,-1.2384716623264806,-2.3745679240097752,-3.148531789695537
-3.2502708936043425,-2.6696162055370745,7.101100078601755,-1.269956980223436,-2.615678466622405,-3.0236718699778895
-3.2769670556597132,-2.6957729902032983,7.088400508799521,-1.300193698923215,-2.8528150682923665,-2.8755935675199504
-3.303924785561746,-2.724301140886222,7.075398571810289,-1.3289496345984144,-3.085829250990738,-2.7036768833291003
-3.3311677969706084,-2.755159433396129,7.0621090754643046,-1.3559864034317055,-3.3145346701930705,-2.507263761622341
-3.35871939130457,-2.78830478009806,7.048549211429988,-1.3810590410479289,-3.5387143694833774,-2.285665541572222
-3.3866024391055505,-2.823691923792894,7.034738621019509,-1.403915696463651,-3.75812937700068,-2.038171364257649
-3.4148393583434795,-2.8612732175629008,7.020699464054872,-1.4242974101062276,-3.972528767503985,-1.7640574877103157
-3.4434520905191084,-2.900998505237941,7.00645648995381,-1.4419379849833307,-4.181661320034536,-1.4625974306591616
-3.472462075571488,-2.9428151184382862,6.992037110103976,-1.4565639592899222,-4.385288902856845,-1.133072820390639
-3.501890226755871,-2.9866680074668546,6.977471470511078,-1.4678946874938286,-4.583201714328252,-0.7747847609832232
-3.5317569068305397,-3.0325000246101372,6.962792523636139,-1.4756425351036608,-4.775235500486464,-0.3870654640244064
-3.562081907076641,-3.080252379615002,6.948036098285103,-1.4795131897439049,-4.96129085761682,0.030710206065061245
-3.592884430872791,-3.12986528819117,6.933240966387664,-1.4792060876832542,-5.141354711432943,0.47911372632888594
-3.6241830837547027,-3.1812788353054997,6.918448905510831,-1.4744149504199653,-5.3155240449252705,0.9586530262498243
-3.6559958721077574,-3.2344340757547525,6.903704756006632,-1.464828420157467,-5.484031926343983,1.4697644312864173
-3.688340212865305,-3.289274395018192,6.889056471805057,-1.450130775844603,-5.647275870153285,2.012807308566579
-3.721232956815487,-3.345747153719725,6.874555164046611,-1.430002702758937,-5.805848551364494,2.588062451095911
-3.754690428352684,-3.40380563923337,6.8602551370190215,-1.404122078247978,-5.960570893193329,3.1957354141976184
-3.7887284847450178,-3.4634113481653035,6.846213916236541,-1.3721647241060018,-6.112527567016927,3.835966202968355
-3.823362598226671,-3.524536623835473,6.832492268995481,-1.3338050620763182,-6.26310499160477,4.508846899387349
-3.8586079644650257,-3.587167673751521,6.8191542183747185,-1.2887165930824447,-6.41403200711495,5.214449010015793
-3.894479641202541,-3.6513079938226705,6.806267052443894,-1.2365721029822867,-6.56742354203582,5.9528625090677165
-3.9309927211407674,-3.716982229243029,6.793901331414071,-1.1770434778916095,-6.725827803763624,6.724248748633156
-3.9681625434331975,-3.784240507280665,6.782130896635155,-1.109800990405278,-6.892277823210454,7.528909613279977
-4.006004948506004,-3.8531632855127698,6.771032886731102,-1.034511894272478,-7.070348589299027,8.367375520186238
-4.044536581361132,-3.92386677140576,6.760687767788377,-0.9508381390706157,-7.26422153925546,9.240515123619147
-4.083775249075189,-3.9965089867983146,6.751179386397671,-0.8584329878344241,-7.478758842712431,10.149669893606012
-4.123740338943172,-4.071296575225439,6.742595056519327,-0.756936288898364,-7.719590744804106,11.096817123418601
-4.164453304695426,-4.14849248267348,6.735025693630343,-0.6459681176641779,-7.993220218383037,12.084765391275976
-4.205938229522161,-4.22842468485731,6.728566012453701,-0.5251204637514182,-8.30715029908923,13.117387043939008
-4.248222476370734,-4.311496187848202,6.723314807816187,-0.3939465933120281,-8.670040675490037,14.19989280541398
-4.291337438249216,-4.398196594603102,6.719375341883066,-0.25194766525788825,-9.091901226509306,15.339153929907141
-4.335319404195247,-4.489115606868196,6.716855865230487,-0.09855612595881683,-9.584330908451468,16.5440769314226
-4.380210560263929,-4.58495891595271,6.715870303970899,0.0668846433554092,-10.160810011394805,17.82603382121081
-4.426060149423456,-4.686567016066658,6.716539150404453,0.2451449815675173,-10.837050956748369,19.199344932481736
-4.472925819584123,-4.794937525634142,6.7189906002201285,0.4371384308923347,-11.631404768544874,20.681797792751485
-4.520875194840465,-4.911251573319591,6.723361984529052,0.6439564088198495,-12.565301743616752,22.295156266578704
-4.569987710573661,-5.036904590755759,6.72980154861725,0.8669079714856366,-13.663665097766499,24.065554040369065
-4.620356756481218,-5.173541241733424,6.738470628332107,1.1075635118893272,-14.95515473347012,26.023545697668542
-4.672092168898552,-5.3230927890681246,6.749546263451,1.3677989688660126,-16.47193420638393,28.203349372525285
-4.725323096789233,-5.487812131131964,6.7632242531396605,1.6498324625912655,-18.24832885338606,30.640345974450746
-4.780201218100553,-5.670295419665824,6.779722577765573,1.956235922335773,-20.317107490736063,33.36499088821684
-4.836904172297211,-5.873466494573185,6.79928493698893,2.2898858312179415,-22.700902407160687,36.38956442109432
-4.8956388372429425,-6.100475518644791,6.822183795301109,2.6537814754288847,-25.394036193207526,39.68101676446395
