th1 (rad),w1 (rad/s),th2 (rad),w2 (rad/s)
0.5503608419537032,-1.26715019479718,5.964998146548865,-3.0174544139126325
0.5376893400057313,-1.3933439173043045,5.934823602409739,-2.893025003344471
0.5237559008326883,-1.5157711567120429,5.905893352376294,-2.767101868512696
0.5085981892655679,-1.6344672919077474,5.878222333691167,-2.6393006409585746
0.4922535163464904,-1.7494810074684757,5.851829327281582,-2.5092750561896353
0.4747587062718056,-1.8608751534143813,5.826736576719686,-2.376718859949948
0.4561499547376618,-1.9687282152083303,5.802969388120186,-2.241366357208743
0.43646267258557847,-2.0731360585893253,5.7805557245480985,-2.1029919399002304
0.4157313119996852,-2.1742136987688605,5.759525805149096,-1.9614088349521057
0.3939891750119966,-2.272096902765926,5.739911716799575,-1.8164672592708162
0.37126820598433735,-2.366943473421097,5.721747044206866,-1.6680521433531097
0.3475987712501264,-2.45893408770829,5.705066522773335,-1.5160805836164957
0.32300943037304347,-2.5482725721455073,5.6899057169371705,-1.3604992016509243
0.29752670465158837,-2.635185494474322,5.676300724920662,-1.2012816249847584
0.27117484970684513,-2.7199209318708397,5.664287908670814,-1.0384263593673502
0.24397564038813674,-2.8027462388264808,5.653903645077141,-0.8719553998490559
0.21594817799987193,-2.8839445780692214,5.64518409107865,-0.7019140321067758
0.1871087322191797,-2.9638098895902343,5.638164950757583,-0.5283724137201506
0.15747063332327735,-3.0426398488294417,5.632881226620381,-0.35142970656437533
0.12704423483498292,-3.1207261976087124,5.629366929554737,-0.17122176617285126
0.0958369728588958,-3.1983416139441,5.627654711893009,0.012066309820347787
0.0638535567194548,-3.275722018056665,5.627775374991213,0.19818111325798038
0.031096336538888145,-3.3530429035627094,5.6297571861237925,0.38677327267184874
-0.0024340924967389474,-3.4303879750045763,5.633624918850511,0.577358761503976
-0.03673797224678471,-3.5077081600813744,5.639398506465551,0.7692664707494623
-0.07181505384759845,-3.5847691380844378,5.647091171173046,0.961569526796189
-0.10766274522844282,-3.661086231372817,5.656706866441008,1.1529989211429474
-0.144273607542171,-3.735847409049618,5.668236855652437,1.3418408077896589
-0.1816320816326672,-3.8078290537867896,5.681655263730334,1.5258244397129275
-0.2197103721705351,-3.875315937385222,5.696913508127463,1.7020173968499708
-0.25846353154438734,-3.93604698225995,5.713933682095963,1.8667590886572811
-0.29782400136698683,-3.9872206357922746,5.732601272982536,2.0156807047646184
-0.3376962077249096,-4.025603283404514,5.7527580800301825,2.1438730132413326
-0.37795224055895477,-4.04778128250954,5.774196810162596,2.246258758874582
-0.41843005338405015,-4.050569110949064,5.796659397751341,2.318185811231625
-0.4589357444935408,-4.031526445835543,5.819841255863658,2.3561718688928472
-0.4992510089518962,-3.9894615018219963,5.843402974552586,2.3586241447876874
-0.5391456239701162,-3.924751569281152,5.866989216000463,2.3262920300078718
-0.5783931396629277,-3.8393446293732834,5.890252136300542,2.2622585926083545
-0.6167865859566606,-3.7364233567341048,5.912874722226626,2.171445026893805
-0.6541508195240017,-3.6198502538804194,5.9345891724955635,2.05979883520046
-0.6903493220628059,-3.4935826488885833,5.955187160847568,1.9334369451328532
-0.7252851485516917,-3.361215734609946,5.9745215302988965,1.7979717626038905
-0.7588973058977911,-3.2257221045966946,5.9925012479249355,1.6581200342424312
-0.7911545269437581,-3.0893724466964168,6.0090824482673595,1.5175741462252368
-0.8220482514107222,-2.9537796665604725,6.024258189729612,1.3790540386046137
-0.851586048076327,-2.820005172749334,6.0380487301156585,1.2444520207753325
-0.8797860998038203,-2.6886822006548954,6.050493250323412,1.1150053198143355
-0.9066729218103692,-2.560130438363153,6.061643303521556,0.9914587118705327
-0.9322742261940007,-2.4344510462466116,6.0715578906402605,0.8742008305050522
-0.9566187366564668,-2.3116000371035623,6.080299898945311,0.7633705929727417
-0.9797347370275025,-2.191442252669604,6.0879336048750385,0.6589364714550717
-1.0016491595541985,-2.073789636732278,6.0945229695895895,0.5607535895569018
-1.0223870559215213,-1.9584275462049514,6.100130505485159,0.4686038042439593
-1.0419713313835708,-1.8451323013168706,6.1048165435275985,0.3822232446385242
-1.0604226543967394,-1.7336824924754208,6.108638775973984,0.30132085525814883
-1.0777594793214937,-1.6238659280027536,6.111651984526565,0.22559061764599558
-1.0939981386015212,-1.5154835890946423,6.113907890703025,0.15471940134817286
-1.1091529744924675,-1.4083515619900524,6.1154550847165075,0.08839183677303533
-1.1232364901123681,-1.3023016256624649,6.116339003084238,0.026293188303512738
-1.1362595063689929,-1.1971809639742639,6.116601934967273,-0.03188909341026478
-1.1482313160087354,-1.0928513233753958,6.11628304403317,-0.08646467396290425
-1.1591598292424894,-0.9891878339350578,6.115418397293541,-0.13774017616452613
-1.16905170758184,-0.8860776398632657,6.114040995531896,-0.18601934747322274
-1.1779124839804727,-0.7834184362495208,6.112180802057164,-0.23160341416636296
-1.1857466683429678,-0.6811169747539892,6.109864767915501,-0.27479153228177705
-1.1925578380905077,-0.57908757767162,6.107116852592683,-0.3158812793779598
-1.198348713867224,-0.47725068383803493,6.103958039798903,-0.355169154214509
-1.2031212207056043,-0.37553143897214236,6.100406348256758,-0.3929510668691899
-1.2068765350953257,-0.27385833569113516,6.0964768375880665,-0.42952281189475544
-1.209615118452237,-0.1721619035319721,6.092181609469119,-0.46518052346382355
-1.2113367374875568,-0.07037344616875522,6.087529804234481,-0.5002211151273988
-1.2120404719492444,0.03157617881925727,6.082527593083206,-0.5349427085246631
-1.2117247101610518,0.13375774305880947,6.077178165997959,-0.569645055553683
-1.2103871327304636,0.2362447986511586,6.071481715442422,-0.604629957350201
-1.208024684743952,0.33911480177734554,6.06543541586892,-0.6402016809402674
-1.2046335367261785,0.44245021064207146,6.059033399059517,-0.6766673704641646
-1.2002090346197578,0.5463395562381234,6.052266725354876,-0.7143374440470304
-1.1947456390573765,0.6508784791280976,6.045123350914406,-0.7535259591120649
-1.1882368542660955,0.756170717761275,6.037588091323285,-0.7945509172902937
-1.1806751470884826,0.8623290228680219,6.029642582150382,-0.8377344637743117
-1.1720518568598024,0.9694759569268765,6.0212652375126385,-0.8834029131560821
-1.1623570972905337,1.0777445157990484,6.012431208381078,-0.9318865019237714
-1.1515796521325432,1.1872784789056379,6.00311234336184,-0.98351872334444
-1.139706867343487,1.298232351407277,5.9932771561283955,-1.0386350386197105
-1.1267245438294142,1.4107707021731333,5.982890805742199,-1.09757067250353
-1.112616836807683,1.5250666188602633,5.971915099017163,-1.1606570834936873
-1.0973661706190803,1.641298888420421,5.960308528182226,-1.2282165373704592
-1.080953181734876,1.7596473583584495,5.9480263628085215,-1.3005539950561078
-1.0633567081512916,1.880285730541169,5.93502082285796,-1.3779452369144196
-1.0445538508458798,2.0033707756290493,5.921241370488816,-1.4606197725785843
-1.0245201430895894,2.1290266281694987,5.90663517276303,-1.5487366232933373
-1.0032298768078944,2.257322441312127,5.891147806530097,-1.6423505299472632
-0.9806566523947732,2.3882412913623954,5.874724301230624,-1.7413656008120928
-0.9567742394811493,2.521637938545275,5.857310645222503,-1.8454730308707783
-0.9315578600956965,2.6571831041108878,5.838855914913795,-1.9540696330235299
-0.9049860290545877,2.7942927413501635,5.81931521858356,-2.0661551287199855
-0.877043101641086,2.932043052789633,5.79865366729636,-2.1802094393231903
-0.8477226711131897,3.0690767045505205,5.776851572903128,-2.294057973518563
-0.8170319040676844,3.2035138227154203,5.753910993167943,-2.40474455381456
-0.7849967658405302,3.3328932279663266,5.729863547629797,-2.508448589439268
-0.751667833560867,3.454182994177056,5.704779061735405,-2.6005025621386855
-0.7171260036190964,3.5639083597901524,5.678774036114017,-2.6755786807867707
-0.6814869200211948,3.6584373329797835,5.65201824930615,-2.728102695816459
-0.644902546691397,3.73442665598438,5.624737222347985,-2.7528993217467885
-0.6075582801315532,3.789361144150291,5.597208229130517,-2.74597454397488
-0.5696646686900503,3.822043426618303,5.569748483690769,-2.705231488957266
-0.5314442344238672,3.832861373087914,5.542696168801196,-2.6308730876392423
-0.4931156206929881,3.823720089987672,5.516387437924804,-2.5253279690150676
-0.4548784197931114,3.797657392144221,5.491134158234654,-2.39272268110647
-0.4169018458716692,3.7582862191269064,5.467206931423589,-2.2381008184839484
-0.3793189836804001,3.7092478679488416,5.444825923238749,-2.0666489862905997
-0.34222650500091173,3.653808463137059,5.424159433375843,-1.883118804490229
-0.30568842036954114,3.5946417302939966,5.405328245330941,-1.6915087794860033
-0.2697420030666012,3.5337710814291152,5.388413157536081,-1.4949706121534314
-0.23440429225231002,3.472614924435326,5.373463451414547,-1.2958624849731883
-0.19967814300795675,3.41208172416021,5.3605048265648145,-1.0958745747333367
-0.16555732576635465,3.3526774989379797,5.349546080817481,-0.8961741281298475
-0.13203055077697484,3.294605200762179,5.340584339536182,-0.6975407124910122
-0.09908449876935305,3.2378475448922925,5.333608932411272,-0.5004792187906542
-0.06670602332043013,3.1822318937465495,5.328604140223365,-0.30530813700980597
-0.034883704382964634,3.1274791257330596,5.325551058853267,-0.11222539255981617
-0.003608913125634036,3.0732395408345705,5.324428804927669,0.07864429091982222
0.02712348228271167,3.019118868201386,5.325215247836867,0.2672164268767869
0.057314670964725534,2.964697001329606,5.3278874121056345,0.4534246640071798
0.08696164097802159,2.9095415321188187,5.332421658745706,0.6372067257541106
0.11605705629920977,2.8532176368327464,5.338793726003247,0.8184962424872114
0.14458923266753723,2.7952954368744063,5.346978688428119,0.9972188837653397
0.1725421870362813,2.7353556217063892,5.356950877265772,1.1732916265586717
0.1998957432533452,2.6729938685840784,5.368683793531359,1.346624311555603
0.22662568193918597,2.6078244076996637,5.382150036646915,1.5171228664554866
0.25270392601618263,2.5394829464216127,5.3973212653114695,1.6846937345378692
0.27809875548039875,2.4676290698833094,5.414168202656848,1.849249157400501
0.30277504617923184,2.3919481675356637,5.432660694230853,2.010713037182308
0.32669452785458847,2.3121528893231913,5.452767824602676,2.16902715685472
0.3498160567478204,2.2279841057857546,5.474458096171223,2.324157575345943
0.372095897805678,2.1392113300451303,5.497699671924683,2.4761010430860253
0.3934880111061293,2.0456325538104485,5.522460682355543,2.6248913068949267
0.4139443366442338,1.947073452527274,5.5487095954244925,2.770605193331787
0.43341507116950656,1.8433859255207115,5.57641564735781,2.9133683777177866
0.4518489304247137,1.7344459549275215,5.605549331134988,3.053360761834591
0.4691933899739889,1.6201507924909584,5.636082938753334,3.190821395284571
0.4853948978988985,1.5004155168566908,5.667991152706179,3.326052880661723
0.5003990530674655,1.3751690480278314,5.7012516815127965,3.45942519606506
0.5141507435477438,1.2443497641137835,5.735845933473447,3.5913788424602107
0.5265942411888817,1.1079009452202433,5.771759721898049,3.722427166488062
0.5376732506410841,0.9657663812422221,5.80898399356293,3.85315760438771
0.5473309144535062,0.8178866416565377,5.8475155696068075,3.984231414149817
0.5555097808700716,0.6641967425858858,5.887357883748305,4.116381172704288
0.5621517482959305,0.5046262990912819,5.928521695475348,4.250404856415208
0.5671980112868433,0.3391037768734086,5.9710257440395,4.387154614114617
0.5705890490555774,0.16756723910135385,6.014897290180646,4.527517265915861
0.5722647214465909,-0.010014870810131749,6.060172462839804,4.67238196221808
0.5721645727384896,-0.19360773422284994,6.106896282461985,4.822588128823335
0.5702284953962612,-0.38305154090975213,6.155122163750218,4.978843637081386
0.5663979799871637,-0.5779700350909407,6.204910600121032,5.1415990699163086
0.5606182796362543,-0.7776330494116319,6.256326590820195,5.310859535479101
0.552841949142138,-0.9807581367859949,6.309435186174986,5.485912560685757
0.543034367774278,-1.1852393520959719,6.364294311781844,5.664953811615026
0.5311819742533184,-1.3878057821867318,6.420943849897994,5.844611288106766
0.517303916431451,-1.5836500361638715,6.479389962779062,6.01941916238199
0.5014674160698123,-1.7661403346783895,6.539584154402882,6.181392612248536
0.48380601272302837,-1.926837513664248,6.601398080525367,6.32000360783317
0.4645376375863859,-2.056128768317725,6.664598116603699,6.422984962897361
0.4439763499032086,-2.1447265799353348,6.728827966232672,6.478308302702708
0.42252908410385526,-2.1858974465710244,6.7936110492597,6.477160753956286
0.40067010963814503,-2.1776349853721744,6.858382656799263,6.416857983908481
0.3788937597844233,-2.1236006169709807,6.9225512366383475,6.30209813244941
0.35765775361471347,-2.0321551446332866,6.985572217962842,6.143647868790365
0.3373362021683806,-1.9139899489021794,7.047008696650746,5.9551667928949374
0.31819630267935883,-1.779636282858081,7.106560364579695,5.749908120158589
0.300399939850778,-1.637847841412945,7.164059445781281,5.538625582893855
0.2840214614366486,-1.495049871992763,7.21944570161022,5.328918944069009
0.26907096271672093,-1.355512009917875,7.27273489105091,5.1255336910248905
0.2555158426175422,-1.2218223653547367,7.3239902279611595,4.93103870707546
0.24329761896399482,-1.0953879111910991,7.373300615031914,4.746515885258273
0.23234373985208384,-0.976844051821938,7.420765773884496,4.572112076758559
0.22257529933386447,-0.8663506221109003,7.466486894652082,4.407429991312272
0.21391179311275546,-0.7637907030583122,7.510561194565205,4.251785041098714
0.20627388608217234,-0.6688978070865726,7.553079044976192,4.104365342669092
0.19958490801130663,-0.5813342230984677,7.594122698402883,3.964326918617304
0.19377156578032195,-0.5007375599088634,7.6337659675890555,3.8308475435021703
0.18876419018123333,-0.42674719960345286,7.672074443024077,3.7031550614102167
0.1844967181851988,-0.35901834739049143,7.70910599363818,3.580540380636419
0.1809065347112939,-0.2972285862027915,7.744911397444544,3.462361538118677
0.17793424884926598,-0.24108001542010887,7.779535012825731,3.3480427562122155
0.1755234486950649,-0.19029888094150288,7.813015440387853,3.237070856952988
0.17362045988564986,-0.14463386427369712,7.845386148957383,3.1289904338042085
0.1721741212429129,-0.10385373611057871,7.876676053295425,3.0233985902167984
0.1711355838818071,-0.0677447928820026,7.906910039197593,2.919939696819421
0.1704581359529871,-0.03610831748084209,7.936109436165787,2.8183004052755503
0.17009705277817866,-0.008758196512942271,7.964292440218543,2.718205031055486
0.17000947081304923,0.014481239919997998,7.9914744905290975,2.6194113450956853
0.1701542832122492,0.03377712983685323,8.017668603980054,2.521706774338861
0.17049205451061775,0.0492897399207203,8.042885671723443,2.4249049904496114
0.17098495190982496,0.061173886015625255,8.067134721627939,2.32884285662034
0.1715966907699812,0.06958013188739431,8.090423150194143,2.2333776994705477
0.17229249208885516,0.07465578804609953,8.112756927188848,2.1383848736630875
0.17303904996931616,0.0765457336123839,8.134140775925479,2.043755589254817
0.17380450730544,0.0753930840206498,8.154578331818026,1.9493949749309865
0.1745584381456465,0.07133972636099488,8.174072281567335,1.8552203535508687
0.17527183540925645,0.06452674272109309,8.192624485102844,1.7611597095353988
0.1759171028364674,0.055094740214897006,8.210236082198197,1.667150330398187
0.17646805023861636,0.04318410460908743,8.226907585502179,1.5731376070985723
0.17689989128470723,0.028935192661227727,8.242638961573165,1.4790739798748387
0.1771892432113195,0.012488476514848575,8.257429701371914,1.3849180178233433
0.177314127976468,-0.0060153482135918875,8.271278881550147,1.2906336217662213
0.17725397449433208,-0.026435280654182016,8.28418521776781,1.196189340943174
0.17698962168779026,-0.04862995075260801,8.296147111177241,1.1015577948182265
0.17650332218026418,-0.07245756618156893,8.307162689125423,1.0067151918536312
0.1757787465184485,-0.09777586443810372,8.31722984104396,0.9116409375087937
0.17480098787406745,-0.12444206572082026,8.326346250419046,0.8163173240051087
0.17355656721685925,-0.1523128233313797,8.334509423659098,0.7207292945852367
0.17203343898354545,-0.18124416939648558,8.34171671660495,0.6248642751095383
0.1702209972895806,-0.2110914546627113,8.347965359356046,0.5287120658902538
0.16811008274295347,-0.24170928198026215,8.353252480014948,0.43226478667848356
0.16569298992315085,-0.27295143386721643,8.357575127881733,0.3355168676995306
0.16296347558447868,-0.3046707952372134,8.360930296558728,0.2384650795853151
0.15991676763210655,-0.3367192729852012,8.363314947354581,0.14110859498288567
0.15654957490225455,-0.36894771466163717,8.364726033304411,0.04344907452853135
0.15286009775563816,-0.40120582892871265,8.365160524049696,-0.054509230230202585
0.14884803946635103,-0.43334211088506963,8.364615431747394,-0.15275936450537353
0.14451461835750035,-0.4652037756691625,8.36308783810234,-0.2512915562101455
0.13986258060080872,-0.49663670400545,8.360574922540238,-0.3500931079970308
0.13489621356075424,-0.5274854035397936,8.357073991460267,-0.44914830337505585
0.1296213595253563,-0.5575929899166202,8.352582508426517,-0.5484383350470093
0.1240454296261901,-0.5868011915743295,8.347098125076046,-0.6479412637633273
0.1181774177104468,-0.6149503821686195,8.340618712438413,-0.7476320161327719
0.11202791388876061,-0.6418796443652404,8.333142392277086,-0.847482429951827
0.1056091174451082,-0.6674268684614186,8.324667567977567,-0.9474613557028182
0.09893484876049402,-0.6914288888842752,8.315192954420539,-1.0475348229117454
0.09202055987165127,-0.7137216610589554,8.30471760619142,-1.1476662800360424
0.08488334326106171,-0.7341404804219901,8.29324094339106,-1.2478169164546893
0.07754193845684182,-0.7525202444595612,8.280762774226513,-1.347946074943297
0.0700167360122462,-0.7686957575595996,8.26728331347708,-1.4480117627213582
0.062329778436650204,-0.7825020771666912,8.252803195849866,-1.5479712687470588
0.05450475766498329,-0.7937748982085263,8.237323483162395,-1.6477818944007963
0.04656700868289803,-0.8023509710156506,8.220845664218388,-1.7474018040424664
0.03854349897274152,-0.8080685459821807,8.203371646177963,-1.8467910011593742
0.030462813512919715,-0.8107678360209803,8.184903736166369,-1.9459124349625272
0.022355135152709912,-0.8102914854681232,8.165444611816744,-2.0447332413744945
0.01425222029802868,-0.8064850315132039,8.144997279402999,-2.143226121433882
0.006187369982896639,-0.7991973415085534,8.12356501818866,-2.2413708592904484
-0.0018046034321888942,-0.7882810066850168,8.101151309595757,-2.3391559812719107
-0.009687413499039062,-0.773592669925533,8.077759749783038,-2.4365805570805947
-0.017423340198294394,-0.7549932623764428,8.053393944212232,-2.5336561441581553
-0.02497327282205882,-0.7323481208684086,8.02805738277065,-2.630408876791726
-0.032296754030742905,-0.7055269554304225,8.001753294002732,-2.7268817027931296
-0.03935202358504713,-0.6744036336622226,7.974484476974801,-2.823136772743037
-0.046096059921669354,-0.6388557464240446,7.946253109247371,-2.9192579900359705
-0.0524846173859098,-0.5987639172392133,7.917060529347011,-3.0153537344634884
-0.05847225655830193,-0.5540108160082239,7.886906992002376,-3.111559777981279
-0.06401236471838417,-0.5044798361287282,7.855791394222563,-3.2080424187233136
-0.06905716307967145,-0.45005339295444957,7.82371097003533,-3.3050018682716247
-0.07355769700921595,-0.3906108008230433,7.7906609513526135,-3.4026759375438185
-0.07746380501744639,-0.3260256858907493,7.7566341919771755,-3.5013440780732026
-0.08072406187635388,-0.25616289324069486,7.721620751196443,-3.6013318472023177
-0.08328569080876083,-0.18087485015019467,7.68560743272442,-3.703015876439891
-0.08509443931026278,-0.09999735476580482,7.648577273960021,-3.8068294295578426
-0.08609441285792083,-0.013344773826400674,7.610508979664443,-3.9132686368149514
