th1 (rad),w1 (rad/s),th2 (rad),w2 (rad/s)
6.1180955986901795,1.730023275821499,5.355223024261468,-1.495981309110551
6.1353958314483945,1.6928632055157742,5.340263211170362,-1.3699992782131798
6.152324463503552,1.656832619839283,5.32656321838823,-1.2450013052931397
6.168892789701945,1.6219047758167442,5.314113205335299,-1.12105164684142
6.185111837460113,1.588012254994063,5.302902688866885,-0.998172001465256
6.200991960010054,1.5550572796378404,5.292920968852233,-0.8763548877736055
6.216542532806432,1.5229196732639994,5.2841574199744965,-0.7555737648457919
6.231771729539072,1.4914629532505703,5.276601682326039,-0.6357905578592109
6.246686359071577,1.460538968841274,5.270243776747447,-0.5169611477432792
6.26129174875999,1.4299914219876093,5.265074165270014,-0.399039279329785
6.275591662979866,1.3996585395901988,5.261083772476716,-0.2819792485372235
6.289588248375768,1.3693751069178632,5.2582639799913435,-0.1657376496878098
6.3032819994449465,1.3389740236784624,5.256606603494466,-0.05027439942392206
6.316671739681731,1.3082875054669536,5.256103859500226,0.06444679754322315
6.329754614736401,1.2771480227178669,5.256748327475658,0.17845841548895575
6.3425260949635796,1.245389045371406,5.258532911630548,0.2917894127706437
6.354979985417294,1.212845642884717,5.261450805758254,0.40446580343077676
6.367108441846141,1.1793549748453873,5.265495463792561,0.5165114412523211
6.378901991594595,1.1447566963494789,5.270660578205084,0.6279489752511543
6.390349558558089,1.108893293764167,5.276940067957596,0.7388009452407207
6.401438491495731,1.07161035994687,5.284328077410003,0.8490909931814693
6.4121545950952,1.0327568130201426,5.292818987341818,0.9588451711586563
6.422482163225402,0.9921850591007376,5.302407439053404,1.0680933304875788
6.432404013816409,0.9497510967424067,5.31308837235828,1.1768705789678888
6.441901524783834,0.9053145591447496,5.324857078147959,1.2852187949319966
6.450954670375281,0.8587386893443512,5.337709266097279,1.393188187592585
6.459542057268725,0.8098902436460143,5.351641147973204,1.5008388933316998
6.467640959705185,0.758639319547712,5.366649536906521,1.6082425969281597
6.475227352900662,0.7048591065204667,5.382731962875803,1.7154841651123773
6.482275943965867,0.6484255614823915,5.399886804526926,1.8226632769416913
6.488760199580691,0.5892170160467661,5.418113437296343,1.929896030784425
6.494652369741158,0.5271137302016067,5.437412397604187,2.03731650040383
6.4999235070431745,0.46199741782015114,5.457785562608225,2.1450782015981265
6.504543481221376,0.3937507844896018,5.479236344624207,2.253355414430287
6.508480989066272,0.32225713925710203,5.50176989876851,2.362344281917824
6.511703560458843,0.2474001713972609,5.525393341587688,2.472263570815653
6.514177562172815,0.16906402453208697,5.550115977295845,2.5833549291246793
6.515868202418136,0.08713385801485293,5.575949526587092,2.6958824016509464
6.516739540998285,0.0014971657967407237,5.6029083506036015,2.810130860295142
6.516754512656252,-0.0879537653638422,5.631009659206553,2.92640285751917
6.515874975002614,-0.1813177222133333,5.660273687781745,3.0450132034239417
6.514061797780481,-0.27867800861833825,5.690723819815984,3.166280278573138
6.511275017694297,-0.3800924350075006,5.722386622601715,3.290512702012826
6.507474093344222,-0.485578448846189,5.755291749621843,3.4179894525960663
6.5026183088557605,-0.5950915305710763,5.789471644147804,3.5489308765422782
6.49666739355005,-0.7084944257333445,5.824960952913227,3.683457219962935
6.489582449292716,-0.825514216149369,5.861795525112857,3.82153048919305
6.481327307131223,-0.9456838306815675,5.9000108300047875,3.9628748031090355
6.471870468824407,-1.0682647472232643,5.9396395780358775,4.106870484035331
6.4611878213521745,-1.1921490744766283,5.980708282876231,4.252418940178234
6.449266330607408,-1.3157431495242184,6.023232472278013,4.397780613078637
6.436108899112166,-1.4368429721180156,6.067210278408799,4.540399304668148
6.421740469390985,-1.5525259656593904,6.112614271455481,4.676745532896304
6.406215209734391,-1.6591038486296434,6.159381726784444,4.802239502056177
6.389624171248094,-1.7522029632718295,6.207404121805006,4.91134427182557
6.372102141615376,-1.827047012062557,6.256517564523262,4.99793227734654
6.353831671494751,-1.8789886657752866,6.306496887296727,5.055990225615045
6.335041784836998,-1.9042499075442756,6.357056789552877,5.080609421914594
6.3159992857615554,-1.9006996452957634,6.407862883772023,5.069028960622597
6.296992289308598,-1.8683951971907746,6.458553173378249,5.021359898840252
6.27830833733669,-1.8096446839879459,6.508766772366651,4.940660946869945
6.2602118904968105,-1.7285389987623696,6.558173381835351,4.8322991281986
6.242926500509187,-1.6301416516746625,6.606496373117337,4.702855509466503
6.22662508399244,-1.519643909706513,6.653524928212002,4.558995351555978
6.211428644895375,-1.4017309284918602,6.699114881727562,4.406633528502804
6.1974113356104565,-1.2802478656706098,6.74318121701259,4.2505101172927375
6.1846088569537505,-1.1581232387183222,6.785686318185517,4.094112394105171
6.173027624566568,-1.0374524622298524,6.8266274421265685,3.9398081389431505
6.1626530999442695,-0.9196511830201745,6.866025523516,3.7890668656659896
6.153456588114068,-0.8056188323395375,6.90391619217266,3.6426890928058495
6.145400399790673,-0.6958825779262312,6.940343083100718,3.5010047924563996
6.138441574011411,-0.5907117425208019,6.975353131025281,3.364029080813679
6.132534456586203,-0.49020319088285885,7.008993421833418,3.2315770301435727
6.127632424677374,-0.39434238166636193,7.041309192134854,3.1033447890666035
6.12368900086071,-0.30304565394601407,7.07234264002552,2.9789650658469142
6.12065854432125,-0.21618875099394252,7.102132290683989,2.858044033343362
6.118496656811311,-0.13362557489337945,7.1307127310174225,2.7401851982531036
6.117160401062377,-0.05520016416976088,7.1581145829999535,2.6250043301674406
6.11660839942068,0.01924594699287696,7.184364626301628,2.5121383658062157
6.116800858890609,0.08986946759615867,7.20948600995969,2.401250313483845
6.11769955356657,0.1568231326853479,7.233498513094529,2.2920315405779683
6.119267784893424,0.22025480745764603,7.256418828500308,2.1842023761129448
6.121470332968,0.28030742116621654,7.278260852261438,2.0775116500770365
6.124273407179662,0.33711939913791966,7.299035968762208,1.9717355798649636
6.127644601171041,0.3908253708605201,7.318753324560857,1.8666762719089178
6.131552854879646,0.44155700704384937,7.337420087279947,1.7621600114326847
6.135968424950085,0.4894438896914188,7.355041687394274,1.658035450184708
6.1408628638469995,0.5346143540702589,7.371622041896121,1.5541717605474028
6.146209007387702,0.5771962652107749,7.387163759501595,1.4504567974655598
6.151980970039809,0.6173177077357985,7.4016683274762505,1.3467952923573467
6.158154147117167,0.6551075788098586,7.415136280399824,1.2431070923021006
6.1647052229052655,0.6906960814457923,7.427567351322844,1.1393254511380562
6.1716121837197235,0.7242151204115974,7.438960605834225,1.0353953751697667
6.178854334923839,0.755798606295662,7.449314559585923,0.9312720239874562
6.186412320986796,0.785582675421993,7.458627279825797,0.8269191657787305
6.194268147741016,0.8137058346042569,7.466896471483585,0.7223076860322595
6.202405206087058,0.8403090404228328,7.474119548343907,0.6174141484123779
6.210808296491287,0.8655357229612799,7.480293689828031,0.5122194066477714
6.2194636537209,0.889531763853747,7.485415883894508,0.4067072664244914
6.228358971359437,0.9124454381417546,7.489482956558754,0.30086319645313414
6.237483425740855,0.9344273288586666,7.4924915885232855,0.19467308807961017
6.246827699029442,0.9556302224722139,7.494438319404082,0.0881220630452746
6.2563840012541645,0.9762089923193807,7.495319540034535,-0.018806670682966917
6.266146091177358,0.996320475944326,7.495131473327705,-0.12613291463297438
6.276109295936801,1.01612335075811,7.493870144181375,-0.23388052602376652
6.286270529444383,1.035778010612892,7.491531338921137,-0.34207841231052977
6.296628309550512,1.0554464436251962,7.488110554798031,-0.45076147037715164
6.307182773986764,1.0752921087538667,7.48360294009426,-0.5599714643667673
6.317935695074302,1.0954798050451906,7.478003225450592,-0.6697578328133477
6.328890493124755,1.1161755228349923,7.471305647122458,-0.7801784110121126
6.340052248353104,1.137546260183843,7.4635038630123365,-0.8913000479370767
6.351427710954943,1.159759779927629,7.4545908625329655,-1.0031990878018402
6.363025308754219,1.1829842722928552,7.444558871654947,-1.1159616736558962
6.374855151477147,1.2073878741727408,7.433399254918388,-1.2296838129984797
6.386929030218875,1.233137977715454,7.421102416788403,-1.3444711216599137
6.399260409996029,1.260400236300105,7.407657705571804,-1.4604381300162848
6.41186441235903,1.2893371432736758,7.393053324271641,-1.5777069921943816
6.424757783791767,1.3201060154603257,7.377276254349697,-1.696405380752046
6.437958843946371,1.3528561563217758,7.360312200542176,-1.8166632720061573
6.451487405509589,1.3877248991168945,7.342145567822115,-1.9386082255715489
6.465364654500758,1.4248321346374107,7.322759485566399,-2.0623586302159893
6.4796129758471315,1.4642728077986942,7.302135899264239,-2.1880142218953806
6.494255703925118,1.5061067214733121,7.2802557570452855,-2.315642976728578
6.509316771139852,1.550344818874565,7.257099327278,-2.445263246886458
6.524820219328597,1.5969309433313907,7.232646694809135,-2.57681976146204
6.540789528761911,1.645717933802658,7.206878497194515,-2.710151907254616
6.557246708099937,1.6964368810548696,7.179776978121969,-2.844952637655769
6.574211076910486,1.7486585792711273,7.151327451745411,-2.9807166172724555
6.591697662703197,1.801746886673001,7.121520285572687,-3.116677105315925
6.609715131569927,1.8548051938569998,7.090353514519528,-3.2517330774219335
6.628263183508497,1.906619923581001,7.057836183745309,-3.384371784646849
6.6473293827443065,1.955609362469569,7.02399246589884,-3.5125979257197533
6.666885476369003,1.9997922188758455,6.988866486641642,-3.6338889673019734
6.686883398557761,2.036797201275365,6.952527596968623,-3.7452056462681047
6.707251370570515,2.063939867479897,6.915075540505942,-3.843093544644803
6.727890769245314,2.0783908817060923,6.876644605059494,-3.9239087714772163
6.7486746780623745,2.077444260654248,6.837405517344721,-3.984179416787979
6.769449120668917,2.058861903631692,6.797563723176841,-4.0210700416840615
6.790037739705234,2.021228451934479,6.75735302276,-4.032858450490202
6.810250024224579,1.9642189833313555,6.717024438255098,-4.019290996594908
6.829892214057892,1.888687450828461,6.676831528289149,-3.9816908893647214
6.848779088566177,1.7965364947956484,6.637014619395502,-3.9227673822840945
6.8667444535141335,1.6904072021106342,6.597786945572661,-3.8461812888786064
6.88364852553524,1.5732869629045056,6.559325132683875,-3.7560035241579803
6.899381395164285,1.4481436592543515,6.521765097442295,-3.656215699961476
6.913862831756829,1.317659212227973,6.48520294044268,-3.5503518234274725
6.927039423879108,1.184084438283668,6.449699422208406,-3.441309094679809
6.938880268261945,1.049197958624785,6.4152863312616075,-3.3313019887031596
6.949372247848193,0.914334847957766,6.381973311374576,-3.2219110276429874
6.9585155963277705,0.7804512882551841,6.349754201098146,-3.114179228084732
6.966320109210322,0.6482004107211536,6.318612408817299,-3.0087220631900045
6.972802113317534,0.51800458423458,6.288525188185399,-2.905830960795991
6.97798215915988,0.39011725892266025,6.259466878577439,-2.805561266737488
6.981883331749106,0.2646724295273068,6.231411265910064,-2.7078024032223147
6.984530056044379,0.14172239789726587,6.204333241877841,-2.6123314767248305
6.9859472800233515,0.021265604250130674,6.1782099271105935,-2.518853005584394
6.986159936065853,-0.09673346201535708,6.15302139705475,-2.4270276936971786
6.985192601445699,-0.21233042302842198,6.128751120117778,-2.336492893948151
6.9830692972154145,-0.32559170499541173,6.1053861911782965,-2.2468769349075868
6.97981338016546,-0.4365885505125925,6.082917421829221,-2.157809001679373
6.975447494660334,-0.5453934290334738,6.061339331812427,-2.0689258398663473
6.969993560369999,-0.652078160126008,6.040650073413763,-1.9798762112082744
6.963472778768739,-0.7567132469563204,6.020851311301681,-1.8903237674193767
6.9559056462991755,-0.8593680544914581,6.001948073627487,-1.7999488130709351
6.947311965754261,-0.9601115675139793,5.983948585496777,-1.7084492852965292
6.937710850079121,-1.0590135362715962,5.966864092643812,-1.6155411752354816
6.927120714716405,-1.1561458695428688,5.950708680891457,-1.5209585433575152
6.915559256020976,-1.2515841716000364,5.935499095457882,-1.4244532303451838
6.9030434143049755,-1.3454093451016116,5.92125456315443,-1.3257943312934197
6.889589320853959,-1.4377091993010898,5.907996619841496,-1.2247674795014136
6.875212228860948,-1.528580014138362,5.895748945046482,-1.121173974255311
6.8599264287195645,-1.618128017068996,5.884537205303929,-1.014829782921378
6.843745148548875,-1.706470731551197,5.8743889074747155,-0.9055644504050495
6.826680441233362,-1.7937381540780069,5.865333262970665,-0.7932199583158615
6.808743059692582,-1.8800737101209202,5.857401063387507,-0.6776495924308724
6.789942322591373,-1.9656349274001266,5.850624567463198,-0.5587169014147698
6.770285973317372,-2.0505937459471086,5.84503739844905,-0.4362948642180291
6.749780035857901,-2.1351363561474397,5.84067444980687,-0.3102654311480405
6.728428672296427,-2.219462415069403,5.837571795495389,-0.18051966859407023
6.706234048145733,-2.3037834334477916,5.835766598809449,-0.04695882569560314
6.6831962138112555,-2.3883200448401762,5.835297010552493,0.09050323927757542
6.659313013362854,-2.4732977572655153,5.836202042945269,0.23193567441316248
6.634580035790199,-2.5589406371484933,5.838521399689401,0.3773834792652508
6.608990629418714,-2.6454621759566908,5.842295234482053,0.5268564874176339
6.582536007659147,-2.733052333243296,5.847563799356229,0.6803130375417115
6.555205484326715,-2.8218594338886605,5.854366929731646,0.8376364486608787
6.526986889987828,-2.9119652365027124,5.862743294218255,0.9986019231783242
6.497867237622801,-3.0033511339225734,5.872729313450038,1.1628310242128415
6.467833726283575,-3.0958532139967625,5.884357623692167,1.3297305811565716
6.4368751941436075,-3.1891040399363697,5.897654929503733,1.4984131104791125
6.404984153744244,-3.282459940690412,5.912639060608524,1.6675972141785278
6.3721595543373395,-3.374915039686948,5.929315032750309,1.8354899311999935
6.33841040394047,-3.465008177407493,5.9476699320623085,1.9996600463912555
6.303760322166395,-3.550737324936378,5.967666532526221,2.156923335794686
6.2682529489170316,-3.6295083360925404,5.9892357658841675,2.303278027300066
6.231957865556106,-3.698158870924625,6.012268546157168,2.4339484014152313
6.19497627684686,-3.753107281215352,6.036608030171321,2.5436068384597954
6.1574452040347065,-3.79066753014579,6.062044098555918,2.626831830355085
6.119538528733249,-3.807530478116108,6.088312416859469,2.6788012836491424
6.081463223952087,-3.8013367771569597,6.115100429695961,2.696113705531175
6.043449856180517,-3.7711849358577463,6.142061566751273,2.6775140699054623
6.00573800682194,-3.7178877296666903,6.168836707450327,2.6242583805209168
5.968559129525273,-3.6438588834372947,6.195079291255537,2.5399489316239223
5.9321205406909,-3.5526602193057037,6.220478780571776,2.4298831365881632
5.896593938497843,-3.4483761966932422,6.244777611937658,2.3001534510816106
5.862110176530911,-3.3350217027744957,6.267779146448474,2.1567918942050612
5.8287599595031665,-3.216124451874327,6.289347065390524,2.0051616543672535
5.796598714984423,-3.094519979402265,6.309398681934197,1.8496515429528906
5.765653515190401,-2.972320282444045,6.327895197363726,1.6936193236945365
5.73593031236596,-2.850988765582378,6.344831390600671,1.5394888803811528
5.707420424710136,-2.7314610645474517,6.360226279404483,1.388915347715575
5.680105814064662,-2.6142717371973676,6.374115432881639,1.2429609319163353
5.653963096692689,-2.4996662849351035,6.386545042200802,1.1022516691304065
5.628966433843337,-2.3876912762332645,6.397567558892106,0.9671043050884623
5.6050895210810046,-2.278262620361799,6.407238601942991,0.8376229243255512
5.582306894877386,-2.171215167123504,6.415614831186247,0.7137695243046628
5.560594743206152,-2.0663376107965763,6.422752526429293,0.5954139779181267
5.539931367098186,-1.963396395422727,6.428706666208474,0.4823685111514453
5.5202974031439584,-1.8621516548550117,6.433530351319988,0.3744109373970023
5.501675886595408,-1.762367514131523,6.437274460693958,0.2712999231051719
5.4840522114540935,-1.6638184650054055,6.4399874599250095,0.17278471007827395
5.46741402680404,-1.5662930435800657,6.441715307025793,0.07861104314812478
5.451751096368239,-1.4695956746288084,6.442501417457274,-0.01147545867869526
5.437055139621951,-1.3735472835587637,6.442386662870487,-0.09772762267990774
5.423319666786363,-1.2779850897051723,6.441409386643688,-0.18039613674455462
5.410539815889312,-1.182761863474901,6.439605425276242,-0.2597296486718563
5.398712197254563,-1.0877448388931275,6.4370081287895236,-0.33597527388756177
5.3878347488656315,-0.992814410477689,6.433648376050648,-0.40937932725154774
5.377906604760855,-0.8978627004884041,6.429554582778133,-0.48018815864332776
5.368927977755971,-0.802792053387727,6.424752701191699,-0.5486490162788287
5.360900057222094,-0.7075134945477729,6.419266211028911,-0.6150108921811555
5.353824922276616,-0.6119451769015595,6.413116102107099,-0.6795253250391236
5.3477054705076,-0.5160108303466668,6.406320848856708,-0.7424471496952678
5.342545362204134,-0.41963822290664987,6.398896377359755,-0.8040351916577109
5.338348979975067,-0.3227576390441831,6.390856025443178,-0.8645529106305632
5.335121403584625,-0.22530037854144966,6.382210496336872,-0.9242689999408626
5.332868399799211,-0.12719727871188213,6.3729678063374635,-0.9834579493891813
5.331596427012093,-0.02837726328038359,6.363133226843572,-1.0424005776633274
5.331312654379289,0.07123407685538607,6.352709221066939,-1.1013845369717348
5.332024995147843,0.17171586233254338,6.341695375697221,-1.1607047866579043
5.333742153771168,0.27315324938443614,6.330088327830643,-1.2206640236384305
5.336473686265013,0.37563867692964575,6.317881687594258,-1.2815730445897417
5.340230073034309,0.47927300235219855,6.3050659571483605,-1.3437509964432377
5.345022803057831,0.5841664743297402,6.291628447183928,-1.4075254458495206
5.350864467801128,0.6904394663580985,6.277553192725433,-1.4732321618936934
5.3577688624647095,0.7982228595867216,6.262820871106496,-1.5412144553773623
5.365751091060576,0.9076579142018989,6.247408726552722,-1.6118218467735292
5.374827670202595,1.0188953994326246,6.231290508084987,-1.6854077358419308
5.385016624196922,1.1320936560955586,6.214436430726567,-1.7623256086976613
5.396337560757877,1.2474151331919618,6.1968131746395905,-1.842923129813166
5.408811712089797,1.3650207601902402,6.1783839433414585,-1.9275332111637005
5.422461919691699,1.4850612769425917,6.159108611229821,-2.0164608111045874
5.437312532461125,1.6076643329722822,6.138944003118775,-2.1099637764608636
5.453389175790848,1.7329157844177132,6.117844365354166,-2.2082254988593983
5.470718333635025,1.860833178872803,6.095762110365572,-2.3113165367676443
5.489326665423754,1.9913289911934338,6.072648944997896,-2.4191417502541936
5.509239955335688,2.1241609140687294,6.048457527495354,-2.5313691274727317
5.530481564476375,2.2588667350188483,6.023143836220627,-2.6473368004570936
5.553070231826563,2.3946826221401247,5.996670468216056,-2.765936565202902
5.577017058047964,2.530446910012922,5.969011102564027,-2.8854768300683773
5.602321527148094,2.6644979414594347,5.940156334263343,-3.0035370376235746
5.628966506562688,2.7945852842550853,5.910120963887107,-3.116840805258513
5.656912359405239,2.9178285017471737,5.878952555834522,-3.2211960427433772
5.686090644422711,3.0307728307019586,5.846740595407089,-3.3115718273995403
5.7163983727297305,3.129596595926985,5.813624877133093,-3.382389762285743
5.7476943386890005,3.2105048718158637,5.779800979510235,-3.4280792141451686
5.779799387407159,3.2702842575801747,5.745520187368784,-3.4438620679609526
