th1 (rad),w1 (rad/s),th2 (rad),w2 (rad/s),a1 (rad/s^2),a2 (rad/s^2)
2.8876250186544032,2.0866104247888764,3.139642181766641,2.797890737374007,-1.7911288347144052,0.6297448262142242
2.908491122902292,2.068699136441732,3.1676210891403813,2.804188185636149,-1.5944671478262498,0.6997012222343363
2.9291781142667093,2.0527544649634697,3.195662970996743,2.8111851978584923,-1.3946730548291022,0.7654048212039416
2.949705658916344,2.0388077344151787,3.223774822975328,2.8188392460705316,-1.1915298664767855,0.8265131797742543
2.9700937362604956,2.026892435750411,3.2519632154360334,2.8271043778682743,-0.9848042188712235,0.8826486052765343
2.9903626606179996,2.0170443935616986,3.280234259214716,2.8359308639210394,-0.7742501460919793,0.9334012220984276
3.0105331045536166,2.009301892100779,3.308593567853926,2.8452648761420236,-0.5596130912598721,0.9783317990513188
3.030626123474624,2.00370576118818,3.3370462166153465,2.8550481941325367,-0.3406338335092556,1.0169743088025083
3.050663181086506,2.0002994228530877,3.365596698556672,2.865217937220562,-0.117052305230885,1.0488381906324342
3.070666175315037,1.9991288998007788,3.3942488779288778,2.8757063191268863,0.11138872906840223,1.073410288685455
3.0906574643130447,2.0002427870914627,3.4230059411201466,2.8864404220137407,0.3449401636212596,1.0901564399718795
3.110659892183959,2.0036921887276753,3.451870345340284,2.8973419864134597,0.5838432454394226,1.098522690059627
3.130696814071236,2.0095306211820696,3.4808437652044186,2.908327213314056,0.8283265064447177,1.0979361200122228
3.150792120283057,2.017813886246517,3.509927037337559,2.919306574514178,1.078602969240392,1.0878052759537464
3.170970259145522,2.028599915938921,3.5391201030827006,2.9301846272737158,1.3348676618805586,1.0675202028509092
3.1912562583049113,2.0419485925577265,3.5684219493554377,2.940859829302225,1.597295476000762,1.0364520967870412
3.2116757442304884,2.057921547317734,3.59783054764846,2.951224350270095,1.8660394009619679,0.9939526051657236
3.2322549597036656,2.076581941327354,3.627342791151161,2.961163876321752,2.1412291643662433,0.9393528218552086
3.253020779116939,2.097994232971016,3.6569544299143786,2.9705574045403043,2.4229703065797152,0.8719620441544832
3.2740007214466496,2.1222239360368134,3.6866600039597817,2.979277024981849,2.711343713892083,0.791066380503928
3.295222960807018,2.1493373731757344,3.7164527742096003,2.9871876887868885,3.0064056317446193,0.6959273219923374
3.3167163345387753,2.1794014294931805,3.7463246510974693,2.9941469620068117,3.3081881760589553,0.5857804169400401
3.338510348833707,2.21248331125377,3.7762661207175374,3.000004766176212,3.616700356919242,0.4598342163475011
3.360635181946245,2.2486503148229624,3.8062661683792998,3.004603108339687,3.931929624283363,0.3172696892289433
3.3831216850944745,2.287969611065796,3.8363121994626965,3.0077758052319763,4.253843939281115,0.15724034160025274
3.4060013812051326,2.330508050458607,3.8663899575150165,3.009348208647979,4.582394365827546,-0.02112668755672308
3.429306461709719,2.3763319941168826,3.8964834396014965,3.009136941772412,4.917518164014257,-0.2187282337489298
3.4530697816508877,2.425507175757025,3.9265748090192205,3.0069496594349228,5.259142346613181,-0.4364810424616631
3.477324853408458,2.478098599223157,3.95664430561357,3.002584849010306,5.607187629709953,-0.6753155881522808
3.5021058394006896,2.5341704755202565,3.986670154103673,2.9958316931287836,5.961572663507587,-0.9361672443939953
3.5274475441558923,2.5937862021553326,4.016628471034961,2.986470020684844,6.322218363767866,-1.2199641591153296
3.5533854061774455,2.657008385793011,4.04649317124181,2.9742703790936904,6.6890520703688425,-1.527611039633495
3.5799554900353754,2.7238989064966996,4.076235875032747,2.9589942686973556,7.062011126813518,-1.8599678544959133
3.6071944791003423,2.7945190177648347,4.105825817719721,2.9403945901523967,7.44104528989417,-2.217822195981484
3.6351396692779905,2.8689294706637765,4.135229763621244,2.918216368192582,7.826117124837345,-2.6018536961580945
3.663828963984628,2.94719064191215,4.16441192730317,2.892197831231001,8.217199195964646,-3.012588421801437
3.6933008704037498,3.0293626338717967,4.1933339056154795,2.8620719470129865,8.61426639810415,-3.45034055264323
3.723594496742468,3.115505297852838,4.221954625085609,2.827568541486554,9.017281154725348,-3.9151378280795295
3.754749549720996,3.2056781094000915,4.250230310500474,2.7884171632057586,9.426168392881282,-4.406626175931111
3.786806330814997,3.299939793328904,4.278114482132532,2.7443509014464476,9.84077614416581,-4.923947553567231
3.8198057287482863,3.398347554770562,4.305557991146996,2.6951114259107753,10.260816264456068,-5.465583278772836
3.853789204295992,3.5009557174151227,4.332509105406103,2.640455593123047,10.685778070166698,-6.029152965495612
3.8887987614701434,3.6078134981167898,4.358913661337334,2.5801640634680907,11.114805639962634,-6.61115661964573
3.924876896451311,3.718961554516416,4.384715301972014,2.5140524972716336,11.546527180182146,-7.206644616459261
3.9620665119964755,3.8344268263182375,4.409855826944731,2.441986051107041,11.978822388661763,-7.808797517503879
4.000410780259658,3.954215050204855,4.434275687455801,2.363898075932002,12.408511621343182,-8.408395735729307
4.039952930761706,4.078300166418287,4.457914668215121,2.2798141185747087,12.830949765004041,-8.993159348326634
4.080735932425889,4.206609664068327,4.480712809400869,2.189882525091442,13.239509682132582,-9.546943418231862
4.122802029066572,4.339004760889653,4.502611634651783,2.0944130909091236,13.624947679733564,-10.048788193245771
4.166192076675469,4.475254237686988,4.523555765560874,1.993925208976666,13.974660966015477,-10.47185290264296
4.210944619052339,4.615000847347143,4.543495017650641,1.8892066799502363,14.271880564996431,-10.782315417151985
4.25709462752581,4.757719652997107,4.562387084450143,1.7813835257787165,14.494899948652535,-10.938408154508036
4.304671824055782,4.902668652483632,4.58020091970793,1.6719994442336361,14.616525820674712,-10.889891468546734
4.353698510580618,5.048833910690379,4.5969209141502665,1.5631005295481688,14.60405196434773,-10.578436310797095
4.404186849687522,5.194874430333856,4.612551919445748,1.457316166440198,14.420180295427798,-9.939567240148598
4.456135593990861,5.339076233288134,4.62712508111015,1.357920494038712,14.02539125041423,-8.906922698590368
4.509526356323742,5.479330145792276,4.640704286050537,1.2688512670528083,13.382197387606595,-7.419470568552365
4.564319657781665,5.613152119668342,4.6533927987210655,1.1946565613672846,12.461364127684782,-5.431772452166483
4.620451178978349,5.73776576094519,4.665339364334739,1.1403388368456198,11.249451321673176,-2.9262752782789727
4.677828836587801,5.850260274161922,4.676742752703195,1.11107608406283,9.756003278320442,0.07494873838717339
4.73633143932942,5.947820306945126,4.687853513543823,1.1118255714467018,8.017814227101859,3.5029666058591147
4.795809642398871,6.0279984492161445,4.69897176925829,1.146855237505293,6.097643308926558,7.243320864341295
4.856089626891032,6.08897488230541,4.710440321633343,1.219288446148706,4.076142910215222,11.147962526976556
4.916979375714086,6.129736311407562,4.72263320609483,1.3307680714184715,2.038377945645253,15.055898576251264
4.9782767388281615,6.150120090864014,4.735940886809015,1.4813270571809842,0.05884408334751247,18.816810457867774
5.039777939736801,6.150708531697489,4.7507541573808245,1.669495161759662,-1.8102969719880608,22.31052484736063
5.101285025053776,6.132605561977609,4.767449108998421,1.8926004102332683,-3.544560242454351,25.457298546386113
5.1626110806735515,6.097159959553066,4.786375113100753,2.1471733956971293,-5.145675598214714,28.218004238149994
5.223582680269082,6.045703203570919,4.807846847057725,2.4293534380786292,-6.635327254205838,30.58692281270067
5.284039712304792,5.97934993102886,4.832140381438511,2.735222666205636,-8.046980428181929,32.58131278721117
5.34383321161508,5.8988801267470405,4.859492608100568,3.0610357940777475,-9.418170294777306,34.231321024520156
5.402822012882551,5.804698423799268,4.890102966041345,3.403349004322949,-10.784517305940662,35.572229314053594
5.460868997120543,5.696853250739861,4.924136456084574,3.759071297463485,-12.175733452907505,36.6395464940617
5.517837529627942,5.575095916210786,4.961727169059209,4.125466762404102,-13.61329640867638,37.46653086340655
5.573588488790049,5.4389629521240215,5.00298183668325,4.500132071038167,-15.109261058390613,38.08335275582752
5.627978118311289,5.287870341540115,5.047983157393632,4.880965598596442,-16.66569211618224,38.51707333070747
5.680856821726691,5.121213420378293,5.096792813379596,5.2661363319035175,-18.274291118383193,38.79171827038706
5.732068955930473,4.938470509194461,5.149454176698631,5.654053514607388,-19.915867490985114,38.92783502279258
5.781453661022418,4.73931183428461,5.205994711844705,6.043331864835314,-21.559329327956767,38.94098043548527
5.828846779365264,4.523718541005042,5.266428030493058,6.432741669190166,-23.159841514517126,38.838578710750625
5.8740839647753145,4.292120125859871,5.33075544718496,6.821127456297672,-24.65573921201527,38.61453688748057
5.917005166033913,4.045562733739718,5.398966721747937,7.207272825172478,-25.963751850926478,38.240970558542124
5.95746079337131,3.7859252152304532,5.471039449999662,7.589682530757899,-26.972216416527015,37.65653260809046
5.995320045523615,3.516203051065183,5.546936275307241,7.9662478568388035,-27.532506680979658,36.751494447611
6.030482076034266,3.2408779842553868,5.626598753875629,8.333762801314913,-27.450366105126445,35.35155386129082
6.06289085587682,2.966374323204122,5.709936381888778,8.687278339927822,-26.48191228705118,33.20631580345905
6.092554599108862,2.7015552003336105,5.796809165288057,9.019341497962412,-24.344264073042694,29.995270703164255
6.119570151112198,2.4581125596031836,5.887002580267681,9.319294204994055,-20.75669792233105,25.372312068788265
6.14415127670823,2.2505455803798733,5.980195522317621,9.573017325681937,-15.52860255497458,19.07114305519048
6.1666567325120285,2.0952595548301276,6.0759256955744405,9.763728756233842,-8.691888231860688,11.070543192932009
6.18760932806033,2.0083406725115207,6.173562983136779,9.874434188163162,-0.6276639757010604,1.7564035924715105
6.207692734785446,2.00206403275451,6.27230732501841,9.891998224087878,7.9153846757772435,-8.051076679459065
6.227713375112991,2.0812178795122827,6.371227307259288,9.811487457293287,15.99353939090956,-17.310310116719922
6.248525553908114,2.241153273421378,6.469342181832221,9.638384356126089,22.77693331827987,-25.137822589705678
6.270937086642328,2.4689226066041767,6.565726025393483,9.387006130229032,27.803091105840835,-31.10696526589087
6.29562631270837,2.746953517662585,6.659596086695773,9.075936477570124,31.024643830338515,-35.28077091265574
6.3230958478849955,3.05719995596597,6.750355451471474,8.723128768443567,32.67946736485073,-38.02825519978071
6.3536678474446555,3.3839946296144774,6.83758673915591,8.34284621644576,33.116911937360946,-39.80122680802891
6.3875077937408005,3.715163748988087,6.921015201320367,7.9448339483654715,32.676478925687604,-40.990148702851116
6.4246594312306815,4.041928538244963,7.000463540804022,7.53493246133696,31.635792528712372,-41.87231509533121
6.465078716613131,4.358286463532086,7.075812865417391,7.116209310383648,30.203783929751793,-42.61617436580339
6.508661581248451,4.660324302829604,7.146974958521228,6.690047566725614,28.532794814378875,-43.306637228043314
6.5552648242767475,4.945652250973393,7.213875434188484,6.2569811944451805,26.734112707818852,-43.97206716412296
6.604721346786482,5.212993378051582,7.276445246132936,5.8172605228039505,24.890688721282043,-44.605901893895656
6.656851280566998,5.461900265264402,7.334617851360975,5.371201503864994,23.065659686122856,-45.18182099934244
6.711470283219642,5.692556862125631,7.3883298663996255,4.91938329387157,21.307161543374683,-45.66338097474164
6.768395851840898,5.905628477559378,7.437523699338342,4.462749484124153,19.650339444786802,-46.00930330134547
6.827452136616492,6.102131872007246,7.4821511941795835,4.002656451110698,18.117336234610416,-46.17531642829675
6.888473455336565,6.28330523435335,7.522177758690691,3.5409032868277306,16.715780816193536,-46.11311085586319
6.951306507680099,6.450463042515286,7.557586791558968,3.0797721782690988,15.43606715290587,-45.76674221867589
7.015811138105251,6.604823714044344,7.588384513341659,2.62210475608234,14.247604399146388,-45.06679770052164
7.081859375245695,6.747299758035808,7.614605560902483,2.1714367790771236,13.094336828067815,-43.922950842503866
7.149332372826053,6.8782431263164865,7.636319928693254,1.732207270652085,11.890353710586075,-42.21639706489353
7.218114804089218,6.997146663422347,7.653642001399775,1.3100433000031497,10.517573817069598,-39.795409341124625
7.288086270723442,7.102322401593043,7.666742434399806,0.9120892065919035,8.829455007559925,-36.48007761530773
7.359109494739372,7.190616951668643,7.675863326465725,0.5472884304388262,6.667037968390268,-32.085562978734
7.4310156642560585,7.257287331352545,7.681336210770113,0.2264328006514862,3.8944415584473115,-26.474057721146448
7.503588537569584,7.296231746937019,7.683600538776628,-0.0383077765599783,0.4558823687756645,-19.63788166908284
7.576550855038954,7.300790570624775,7.683217461011028,-0.2346865932508067,-3.559293451156108,-11.79311610811106
7.649558760745202,7.265197636113214,7.68087059507852,-0.35261775433191733,-7.879829500693321,-3.4300244457239146
7.722210737106334,7.186399341106281,7.677344417535201,-0.3869179987891565,-12.08865749257188,4.745292707630977
7.794074730517397,7.065512766180562,7.67347523754731,-0.33946507171284673,-15.742393799295046,11.99319415775639
7.864729858179203,6.908088828187611,7.670080586830181,-0.21953313013528283,-18.51869456711642,17.764675093395724
7.933810746461079,6.722901882516447,7.667885255528828,-0.041886379201325596,-20.303950636224986,21.83745253155221
8.001039765286244,6.519862376154197,7.6674663917368155,0.1764881461141965,-21.179884922222975,24.300614612435016
8.066238389047786,6.308063526931968,7.6692312731979575,0.4194942922385467,-21.342537249172192,25.43518421807495
8.129319024317105,6.094638154440246,7.673426216120343,0.6738461344192962,-21.015353117634834,25.581768110294803
8.190265405861508,5.884484623263898,7.680164677464536,0.9296638155222443,-20.39358169164982,25.052286873913886
8.249110252094146,5.6805488063473994,7.689461315619758,1.180186684261383,-19.623300318160243,24.092983268890325
8.305915740157621,5.484315803165797,7.701263182462372,1.4211165169502864,-18.802342349466873,22.881211024354084
8.36075889818928,5.296292379671128,7.715474347631875,1.6499286271938272,-17.990225929088005,21.53718232844072
8.413721821985991,5.116390120380248,7.731973633903813,1.8653004504782345,-17.219392249779055,20.13898710557872
8.464885723189793,4.944196197882458,7.750626638408595,2.0666903215340215,-16.504582001369297,18.735745747889368
8.514327685168618,4.779150377868765,7.771293541623935,2.2540477790129154,-15.849670744360377,17.357515832023765
8.562119188947307,4.6206536704251615,7.7938340194140645,2.4276229373331533,-15.252287419911529,16.02218042429165
8.608325725651559,4.468130796226046,7.818110248787396,2.58784474157607,-14.706785132882022,14.740012106971998
8.65300703361382,4.321062944897226,7.843988696203157,2.7352448626457897,-14.206082108014554,13.516601594383443
8.696217663062793,4.17900212381708,7.871341144829615,2.8704108785896243,-13.742763000762757,12.354692817552921
8.738007684300964,4.041574493809453,7.900045253615511,2.9939578067651533,-13.309709773258204,11.255309950832803
8.778423429239059,3.9084773960768704,7.9299848316831625,3.1065109062734813,-12.900439210570232,10.21843639551792
8.817508203199827,3.779473003971168,7.961049940745897,3.2086952702286604,-12.509260378466664,9.24341572505596
8.855302933239539,3.6543804001865015,7.993136893448184,3.30112942747922,-12.131323362879408,8.329183520083383
8.891846737241403,3.533067166557707,8.026148187722976,3.384421262680054,-11.762603812759801,7.474398825141081
8.92717740890698,3.415441128430109,8.059992400349776,3.4591652509314645,-11.399850954798687,6.677517965897724
8.961331820191281,3.301442618882122,8.09458405285909,3.525940430590442,-11.040516254257033,5.936836840201854
8.994346246380102,3.191037456339552,8.129843457164995,3.5853087989924606,-10.682673383840282,5.250517249712989
9.026256620943498,3.0842107225011492,8.165696545154919,3.6378139714895905,-10.32493611445545,4.6166062060380035
9.057098728168508,2.9809613613565946,8.202074684869816,3.6839800335499704,-9.96637820799616,4.033053023587853
9.086908341782074,2.881297579276633,8.238914485205315,3.724310563785849,-9.606457786687919,3.497726498143361
9.11572131757484,2.7852330014097535,8.276157590843173,3.759287828767283,-9.244947617785325,3.008432984891033
9.143573647588937,2.6927835252319,8.313750469130845,3.7893721586161933,-8.881872069507798,2.562935358029174
9.170501482841257,2.603964804536822,8.351644190717007,3.815001512196485,-8.517451033382557,2.1589724133108326
9.196541130886624,2.5187902942029963,8.389794205838971,3.836591236329593,-8.152050791263806,1.7942781071588398
9.221729033828653,2.4372697862903583,8.428160118202268,3.8545340174011815,-7.786141585112389,1.466600008274117
9.246101731691557,2.3594083704392346,8.46670545837628,3.8692000174839225,-7.4202614954978525,1.173716402999613
9.269695815395949,2.285205755484256,8.50539745855112,3.8809371815139184,-7.05498613280669,0.9134516010361571
9.292547872950792,2.214655894156189,8.544206830366258,3.89007169752428,-6.690903581565332,0.6836891063893326
9.314694431892354,2.1477468583405357,8.583107547341502,3.896908588588173,-6.328594004912682,0.4823824334289081
9.33617190047576,2.0844609182914087,8.622076633227383,3.9017324129224624,-5.968613306954016,0.30756345074199376
9.357016509658674,2.0247747852218687,8.661093957356607,3.9048080474298823,-5.611480260650556,0.15734822204417015
9.377264257510893,1.9686599826153632,8.700142037830906,3.906381529650324,-5.2576665340853515,0.029940383001348218
9.396950857337046,1.9160833172745098,8.739205853127409,3.9066809334803376,-4.907589085128084,-0.07636785330815875
9.41611169050979,1.8670074264232288,8.778272662462212,3.905917254947256,-4.5616044410266205,-0.16319692889096582
9.434781764774023,1.8213913820129626,8.817331835011686,3.904285285658346,-4.220004433140858,-0.23208324729962376
9.452995678594153,1.779191337681554,8.85637468786827,3.9019644531853497,-3.883013016230645,-0.2844843662233393
9.470787591970968,1.7403612075192476,8.895394332400123,3.899119609523116,-3.5507838651197643,-0.3217858681118511
9.48819120404616,1.70485336886805,8.934385528495355,3.8959017508419977,-3.2233985081543413,-0.3453096812566475
9.50523973773484,1.6726193837865067,8.973344546003775,3.8924486540294314,-2.900864825756064,-0.356323602860182
9.521965931572705,1.643610735528946,9.012269032544069,3.8888854180008297,-2.583115812603235,-0.35605175189340343
9.538402038927995,1.6177795774029136,9.051157886724077,3.8853249004818955,-2.270008572417547,-0.34568565248037514
9.554579834702023,1.595079491678738,9.090011135728895,3.8818680439570916,-1.9613235834779614,-0.3263956187241612
9.57053062961881,1.5754662558439585,9.128829816168466,3.87860408776985,-1.6567643387965123,-0.2993420810223424
9.58628529217725,1.5588986124559934,9.167615857046163,3.8756106669596266,-1.3559575247282694,-0.26568646492300624
9.601874278301809,1.5453390372087106,9.20637196371576,3.8729538023103967,-1.0584539523639502,-0.22660121048040424
9.617327668673896,1.534754497685071,9.245101501738864,3.8706877902055927,-0.7637304935232686,-0.18327850786626645
9.632675213650748,1.5271171927498384,9.28380837964092,3.86885500512693,-0.4711932933286833,-0.13693732926388802
9.647946385578246,1.5224052598165516,9.32249692969219,3.867485631834291,-0.1801825299908014,-0.08882836348715181
9.663170438176412,1.5206034345166437,9.361171786010532,3.8665973481994196,0.1100210341285715,-0.04023651337518347
9.678376472521578,1.5217036448579295,9.399837759492526,3.8661949830656677,0.40018752047425377,0.007519299607117696
