th1 (rad),w1 (rad/s),th2 (rad),w2 (rad/s),a1 (rad/s^2),a2 (rad/s^2)
0.5567317354141007,1.0020597873406591,4.120869665933452,-1.323904278109015,-2.808397848615697,5.9853057666537195
0.5667523332875073,0.9739758088545022,4.107630623152362,-1.2640512204424776,-2.933471901563788,5.727934517040566
0.5764920913760523,0.9446410898388643,4.094990110947937,-1.206771875272072,-3.068720904450807,5.465895303242947
0.5859385022744409,0.9139538807943562,4.082922392195217,-1.1521129222396425,-3.212181150928361,5.200947550696579
0.5950780410823845,0.8818320692850726,4.07140126297282,-1.1001034467326767,-3.361903002203374,4.93490258832156
0.6038963617752352,0.8482130392630389,4.060400228505493,-1.050754420849461,-3.5159850523255805,4.669569785255481
0.6123784921678656,0.8130531887397832,4.0498926842969984,-1.0040587229969062,-3.6726046811859927,4.406708077487257
0.6205090240552634,0.7763271419279232,4.03985209706703,-0.9599916422220337,-3.8300439616497544,4.147984342679895
0.6282722954745427,0.7380267023114256,4.030252180644809,-0.9185117987952347,-3.9867102582044414,3.894939587497041
0.6356525624976569,0.6981595997293812,4.021067062656857,-0.8795624029202643,-4.141151216601181,3.648963414909697
0.6426341584949508,0.6567480875633694,4.012271438627654,-0.8430727687711673,-4.292064171121374,3.41127677877286
0.6492016393705845,0.6138274458521558,4.003840710939943,-0.8089600009834387,-4.438300269858954,3.182922638737912
0.6553399138291061,0.5694444431535662,3.9957511109301085,-0.7771307745960596,-4.578863828420887,2.964763818283237
0.6610343582606417,0.5236558048693574,3.987979803184148,-0.7474831364132273,-4.712907565878988,2.7574871494310496
0.6662709163093353,0.4765267292105675,3.9805049718200154,-0.7199082649189168,-4.8397244569754365,2.561612857491378
0.671036183601441,0.42812948464081313,3.973305889170826,-0.694292136344003,-4.958736959240592,2.3775080889471747
0.6753174784478492,0.3785421150484072,3.966362967807386,-0.6705170554545312,-5.069484353213825,2.2054035019629383
0.6791028995983333,0.3278472715162689,3.9596577972528406,-0.6484630204349018,-5.171608879791763,2.0454119064591407
0.6823813723134959,0.2761311827183513,3.9531731670484915,-0.6280089013703104,-5.26484128204795,1.897548043558099
0.6851426841406795,0.2234827698978718,3.9468930780347886,-0.6090334209347295,-5.34898626972332,1.7617487180017453
0.6873775118396582,0.1699929072006386,3.9408027438254414,-0.591415933754712,-5.423908331362128,1.637892629497644
0.6890774409116646,0.1157538238870173,3.9348885844878945,-0.5750370074597356,-5.489518228270179,1.5258193800272928
0.6902349791505348,0.060858641604315505,3.929138214413297,-0.5597788136594627,-5.5457604207496285,1.4253472567102174
0.6908435655665779,0.005401037396819221,3.9235404262767024,-0.5455253410923605,-5.592601603387307,1.3362894990403043
0.6908975759405461,-0.05052497863705385,3.9180851728657786,-0.5321624461019575,-5.630020464099685,1.2584688524670784
0.6903923261541756,-0.10682518327805071,3.912763548404759,-0.5195777575772867,-5.657998731611458,1.1917302863449721
0.6893240743213951,-0.1634051705941653,3.907567770828986,-0.507660454713837,-5.676513537690218,1.1359518134600652
0.6876900226154534,-0.22017030597106746,3.902491166281848,-0.49630093657923635,-5.6855310928381035,1.091053391818444
0.6854883195557427,-0.2770256168994485,3.8975281569160556,-0.48539040266105193,-5.685001655969566,1.0570039188838545
0.6827180633867482,-0.33387563345914417,3.892674252889445,-0.4748203634722134,-5.674855768420633,1.033826346060384
0.6793793070521568,-0.3906241911433505,3.8879260492547227,-0.46448210001160956,-5.6550017189218975,1.0216009491514804
0.6754730651407233,-0.4471742083325695,3.8832812282546065,-0.45426609052009476,-5.6253242074328975,1.0204667910236709
0.6710013230573976,-0.5034274504068985,3.8787385673494055,-0.44406142260985804,-5.585684180561358,1.0306214079290024
0.6659670485533286,-0.5592842922125121,3.874297953123307,-0.43375520853056804,-5.5359198183554374,1.0523187429478669
0.6603742056312034,-0.6146434903960665,3.8699604010380013,-0.4232320211010894,-5.475848660339079,1.0858653407274128
0.6542277707272427,-0.6694019769994572,3.8657280808269903,-0.4123733676938152,-5.405270866629697,1.1316148089109348
0.6475337509572481,-0.7234546856657542,3.861604347150052,-0.40105721960470586,-5.323973616778978,1.1899605450688477
0.6402992041005905,-0.776694421833544,3.857593774954005,-0.3891576141540174,-5.231736653612126,1.2613267251492026
0.632532259882255,-0.8290117883696653,3.853702198812465,-0.37654434690252536,-5.128338980847229,1.3461575519850815
0.6242421419985584,-0.8802951781781375,3.84993675534344,-0.36308277138267453,-5.013566720716787,1.444904771677191
0.6154391902167771,-0.9304308453853054,3.846305927629613,-0.3486337236659026,-4.887222130267619,1.558013483086456
0.606134881762924,-0.9793030666879816,3.842819590392954,-0.33305358883503805,-4.749133761585548,1.6859062924955577
0.5963418510960441,-1.026794404303837,3.839489054504604,-0.31619452591008246,-4.599167731021718,1.8289659028534992
0.5860739070530058,-1.0727860816140542,3.836327109245503,-0.2979048668815475,-4.437240034813054,1.9875162757984712
0.5753460462368652,-1.1171584819621847,3.8333480605766876,-0.27802970412356276,-4.263329812655092,2.161802565425241
0.5641744614172434,-1.1597917800887356,3.830567763535452,-0.25641167846931034,-4.077493416395321,2.3519700956044605
0.552576543616356,-1.2005667142526888,3.828003646750759,-0.23289197751326574,-3.8798790880045213,2.5580427370011543
0.5405708764738291,-1.239365505132734,3.825674726975626,-0.2073115501432542,-3.670741989774991,2.7799011343371594
0.5281772214225017,-1.2760729250304839,3.8236016114741935,-0.1795125387998826,-3.45045926136658,3.017261336360582
0.5154164921721969,-1.3105775176441496,3.821806486086195,-0.14933992543627678,-3.2195447047923826,3.269654486558546
0.5023107169957554,-1.3427729646920734,3.820313086831832,-0.11664338057069132,-2.978662622653263,3.5364083364724967
0.4888829873488346,-1.3725595909186061,3.819146653026125,-0.08127929720596636,-2.728640261028105,3.8166314384654414
0.4751573914396486,-1.3998459935288872,3.8183338600540653,-0.04311298282131194,-2.470478241829681,4.109200952164433
0.4611589315043597,-1.424550775947184,3.8179027302258524,-0.0020209732996676125,-2.205358316854579,4.4127550482362885
0.44691342374488785,-1.4466043591157298,3.8178825204928555,0.042106577182695275,-1.9346477450269373,4.725690903194641
0.4324473801537306,-1.4659508365659992,3.8183035862646824,0.08936348621464169,-1.6598995940570378,5.046169237714261
0.4177878717880706,-1.4825498325065696,3.819197221126829,0.13982517859178428,-1.382848306647099,5.3721262472230125
0.4029623734630049,-1.4963783155730406,3.8205954729127467,0.19354644106401442,-1.1053999574767759,5.701293598192301
0.3879985903072745,-1.5074323151478084,3.822530937323387,0.25055937704593745,-0.8296167666122803,6.031226911132127
0.3729242671557964,-1.5157284828139312,3.825036531093846,0.3108716461572587,-0.5576956306449975,6.3593428219616115
0.3577669823276571,-1.5213054391203813,3.8281452475554185,0.3744650743768748,-0.29194068318950667,6.682964314597012
0.3425539279364533,-1.5242248459522765,3.8318898982991874,0.44129471752284494,-0.034730194067362254,6.99937356529674
0.3273116794769305,-1.5245721478929501,3.8363028454744157,0.5112884531758124,0.21152155217035193,7.305871058674164
0.312065957998001,-1.5224569323712467,3.8414157300061738,0.584347163762554,0.44440641302789796,7.599839260021968
0.29684138867428855,-1.5180128682409677,3.847259201643799,0.6603455563627737,0.6615672626377858,7.87880869894529
0.28166125999187885,-1.5113971956145897,3.853862657207427,0.7391336433522266,0.8607439766322466,8.140523978681967
0.26654728803573297,-1.5027897558482672,3.861253993640949,0.8205388831390463,1.0398187025546834,8.38300701575731
0.2515193904772503,-1.4923915688227205,3.8694593824723396,0.9043689532966195,1.1968584741832715,8.604614770623822
0.2365954747890231,-1.4804229840808878,3.878503072005306,0.9904151010028577,1.330153232626293,8.804088874020461
0.22179124494821423,-1.467121451754625,3.8884072230153346,1.0784559897430623,1.4382474535145815,8.980594891255038
0.20712003043066798,-1.4527389772194792,3.8991917829127654,1.1682619386556128,1.5199638457754028,9.133749483052068
0.1925926406584732,-1.4375393387617252,3.9108744022993216,1.2595994334861333,1.574417967168936,9.263634382822259
0.17821724727085594,-1.421795159090036,3.923470396634183,1.3522357773143558,1.6010230659760807,9.370796865084309
0.16399929567995558,-1.4057849284302752,3.9369927544073264,1.445943745965199,1.5994849680037915,9.456237165834645
0.14994144639565282,-1.3897900787502373,3.9514521918669785,1.5405061176235453,1.5697873391066426,9.52138406658358
0.13604354560815046,-1.3740922053591709,3.966857253043214,1.635719958289381,1.5121681214258504,9.568060507592532
0.12230262355455876,-1.3589705241449124,3.983214452626108,1.7314005633653065,1.427088327638295,9.598441602560886
0.10871291831310964,-1.3446996408685294,4.000528458259761,1.8273849793909154,1.315194652661087,9.61500775431565
0.09526592190442434,-1.3315476943419187,4.01880230805367,1.923535056934072,1.1772775101291424,9.620495707307718
0.08195044496100516,-1.3197749192406272,4.0380376586230105,2.019740014007149,1.0142261187523698,9.61785032685013
0.0687526957685989,-1.3096326580531035,4.058235058763082,2.11591851727565,0.8269821610140338,9.610179693693086
0.055656369188067864,-1.301362836442963,4.079394243935838,2.2120203142125807,0.6164933330399927,9.600715785169653
0.04264274082363823,-1.295197903112563,4.101514447077964,2.308027472064277,0.38366782548480566,9.592782627091724
0.0296907617925126,-1.291361224857715,4.124594721798607,2.403955298335194,0.1293304489006791,9.589773391115767
0.01677714954393545,-1.2900679203687082,4.1486342747819585,2.4998530322463517,-0.14581922995090088,9.595137523646045
0.0038764703402483676,-1.2915261126682172,4.173632805104422,2.595804407482812,-0.441246719101613,9.612378660020553
-0.009038790786433805,-1.2959385798592333,4.19959084917925,2.6919281940830175,-0.7566207028924188,9.645063827528901
-0.02199817658502614,-1.3035047868881575,4.22651013112008,2.7883788323583065,-1.0918500107318247,9.696844288199056
-0.03503322445390772,-1.3144232869954757,4.254393919443664,2.885347275240297,-1.447120305433732,9.771488322728116
-0.04817745732386248,-1.328894490049813,4.283247392196067,2.983062158467578,-1.822931558046154,9.872926306573955
-0.06146640222436061,-1.3471238056302746,4.313078013780743,3.0817914215333175,-2.220137547091583,10.00530856509428
-0.07493764028066335,-1.3693251811011904,4.343895927996076,3.1818445071842603,-2.6399887415479437,10.17307669329492
-0.08863089209167525,-1.3957250685166698,4.375714373067919,3.2835752741172093,-3.0841799831192724,10.381049249152055
-0.10258814277684195,-1.4265668683478625,4.408550125809091,3.38738576660873,-3.55490433993239,10.634522915662158
-0.11685381146032058,-1.4621159117471865,4.442423983475178,3.4937309957653513,-4.054914292398786,10.939390272280036
-0.13147497057779245,-1.5026650546711744,4.477361293432832,3.6031248984881517,-4.5875909051764525,11.30227504413695
-0.14650162112450418,-1.5485409637229388,4.513392542417713,3.716147648929521,-5.15702060743711,11.730684799658238
-0.16198703076173357,-1.6001111697973098,4.550554018907008,3.8334544969261035,-5.768077240913542,12.233179005032039
-0.17798814245970668,-1.6577919422064453,4.588888563876269,3.9557862869764238,-6.426503429022174,12.819546170359654
-0.19456606188177114,-1.7220569764966671,4.6284464267460335,4.083981748680021,-7.138978824772636,13.500975870142984
-0.2117866316467378,-1.7934467647443935,4.669286244232834,4.218991507381451,-7.913151233034807,14.290196753598064
-0.22972109929418175,-1.8725782770747414,4.711476159306648,4.361893474917431,-8.75758617182582,15.201525108465006
-0.24844688206492915,-1.9601541387929997,4.7550950940558225,4.513908726002081,-9.681554512232426,16.250721028203877
-0.2680484234528592,-2.056969683915324,4.800234181315844,4.67641593628412,-10.694514946192962,17.45446492571612
-0.2886181202920124,-2.1639148333772535,4.846998340678685,4.850960585541281,-11.805038598291654,18.829118824978718
-0.31025726862578495,-2.28196521936017,4.8955079465340985,5.039251773791068,-13.018734684072657,20.388179111260722
-0.33307692081938667,-2.4121525662008967,4.945900464272009,5.243133564903675,-14.334418135483489,22.137388700570376
-0.35719844648139565,-2.5554967475557318,4.998331799921046,5.464507451909379,-15.737243747923213,24.065758064810144
-0.38275341395695295,-2.7128691850349638,5.05297687444014,5.70516503255748,-17.186755878655593,26.129654463573036
-0.4098821058073026,-2.8847367438215197,5.110028524765715,5.96646157719321,-18.59683233235391,28.225731429590322
-0.4387294732455178,-3.0707050671450586,5.169693140537647,6.248718891489114,-19.803900658431672,30.147543744530722
-0.4694365239169684,-3.2687440737293754,5.232180329452538,6.550194328934421,-20.52161708530786,31.523024808744758
-0.5021239646542621,-3.473960244582454,5.2976822727418815,6.865424577021869,-20.289844174831785,31.74309249294794
-0.5368635671000866,-3.6768586863307715,5.3663365185121,7.182855501951349,-18.453436550840728,29.929699194195717
-0.5736321539633944,-3.861393051839179,5.438165073531614,7.482152493893306,-14.258582348884703,25.063966658902544
-0.6122460844817862,-4.003978875328026,5.5129865984705475,7.732792160482331,-7.192450749677058,16.448193801339194
-0.6522858732350665,-4.075903382824797,5.5903145200753706,7.897274098495723,2.4347407772922205,4.501052411238235
-0.6930449070633145,-4.051555975051875,5.669287261060328,7.942284622608105,13.093700575532738,-8.70518950701436
-0.7335604668138332,-3.920618969296548,5.748710107286409,7.855232727537961,22.53133059272033,-20.134287306567273
-0.7727666565067988,-3.6953056633693446,5.8272624345617885,7.653889854472289,29.057427520231013,-27.55076171255148
-0.8097197131404922,-3.4047313881670345,5.903801333106512,7.3783822373467745,32.3670557970302,-30.622585235165335
-0.8437670270221626,-3.0810608301967326,5.9775851554799795,7.072156384995121,33.20327127692583,-30.42722296818847
-0.8745776353241299,-2.7490281174274744,6.048306719329931,6.7678841553132365,32.566061746909234,-28.357522127006042
-0.9020679164984047,-2.423367499958382,6.115985560883063,6.484308934043176,31.238043543856808,-25.482758627891986
-0.9263015914979885,-2.110987064519814,6.180828650223495,6.229481347764255,29.695616884206785,-22.44197427752123
-0.9474114621431866,-1.8140308956777462,6.243123463701137,6.005061604989043,28.1843489623046,-19.557102213747562
-0.965551771099964,-1.5321874060547003,6.303174079751027,5.809490582851567,26.811195896267233,-16.96360911454034
-0.980873645160511,-1.264075447092028,6.361268985579543,5.6398544917061635,25.60949085403942,-14.700604979276433
-0.9935143996314313,-1.0079805385516336,6.417667530496605,5.492848441913399,24.576831275777206,-12.762446984660594
-1.0035942050169475,-0.7622122257938615,6.472596014915738,5.365223972066793,23.695182018491117,-11.125551257899795
-1.0112163272748862,-0.5252604056089503,6.526248254636406,5.253968459487795,22.94091945616326,-9.761381297047008
-1.0164689313309756,-0.29585121104731765,6.578787939231284,5.1563546465173244,22.289580983849145,-8.642259426728842
-1.0194274434414488,-0.07295540120882621,6.630351485696457,5.069932052250036,21.717947967811423,-7.743615757727585
-1.020156997453537,0.14422407846928803,6.681050806218957,4.99249589467276,21.204837407265558,-7.044539723464375
-1.0187147566688441,0.3562724525419436,6.7309757651656845,4.922050497438116,20.731300974101554,-6.5275675899419685
-1.0151520321434246,0.5635854622829591,6.780196270140066,4.856774821538696,20.28057808224703,-6.178162073326414
-1.009516177520595,0.7663912431054294,6.828764018355453,4.794993200805433,19.837969721649205,-5.984101170971845
-1.0018522650895407,0.9647709403219215,6.8767139503635075,4.7351521890957144,19.390708678072446,-5.93487579371177
-0.9922045556863215,1.158678027102646,6.924065472254465,4.675803431158597,18.927855937276362,-6.021139313289955
-0.980617775415295,1.3479565864754097,6.970823506566051,4.615592038025698,18.440230273911055,-6.234225930522056
-0.967138209550541,1.5323588892145203,7.016979426946308,4.553249778720477,17.92036697584434,-6.565743261292425
-0.9518146206583957,1.7115625589729637,7.062511924733513,4.487592346107553,17.36249668406773,-7.007239876832529
-0.934698995068666,1.885187525813641,7.1073878481945885,4.417519947339227,16.76253360189554,-7.549946784942613
-0.9158471198105297,2.0528128618325963,7.151563047667981,4.3420204794898005,16.118062424601106,-8.18459107019575
-0.8953189911922037,2.2139934860786075,7.194983252462879,4.260174568787843,15.428314527918788,-8.901279242671045
-0.8731790563314177,2.368276631357795,7.237584998150757,4.171161776361132,14.694125811301868,-9.689446955571341
-0.8494962900178398,2.5152178894708137,7.279296615914368,4.074267306805419,13.917870830250154,-10.537870622100142
-0.8243441111231317,2.654396597773315,7.320039288982422,3.9688886005844175,13.103370231430409,-11.434735221939205
-0.7978001451453985,2.785430300087619,7.359728174988266,3.8545412483650257,12.255770809945984,-12.367751422101932
-0.7699458421445223,2.907988008187079,7.398273587471916,3.7308637341440063,11.381399556772761,-13.324314216211132
-0.7408659620626515,3.021802003754807,7.4355822248133565,3.597620591981895,10.487594722958313,-14.291694720675887
-0.7106479420251035,3.12667795098439,7.471558430733175,3.4547036447751363,9.58251813003296,-15.257256582411856
-0.6793811625152596,3.2225031322847193,7.506105467180927,3.302131078951018,8.674953711957519,-16.208688593382348
-0.6471561311924124,3.3092526694042945,7.539126777970437,3.1400441930171943,7.774097657804912,-17.134245453261762
-0.6140636044983695,3.3869936459823435,7.570527219900609,2.968701738484577,6.889345654384709,-18.02298903069106
-0.5801936680385461,3.455887102526191,7.600214237285455,2.7884718481776662,6.030082732426685,-18.8650228259331
-0.5456347970132842,3.5161879298504575,7.628098955767231,2.5998216199183353,5.205481202076858,-19.65171257587917
-0.5104729177147797,3.568242741871226,7.654097171966415,2.4033044941595434,4.424312173772971,-20.375886095556496
-0.4747904902960674,3.6124858636089554,7.67813021690801,2.1995456332039787,3.694776183258996,-21.032005634487632
-0.43866563165997785,3.6494336254415454,7.70012567324005,1.9892255768591023,3.024358397701665,-21.616306418646325
-0.4021712954055624,3.679677209418562,7.720017929008641,1.773062512672639,2.4197136584441417,-22.126895841871793
-0.36537452331137676,3.7038743460030035,7.737748554135368,1.551793554253921,1.8865860961659136,-22.563809116889427
-0.3283357798513467,3.7227402069646627,7.753266489677907,1.3261554630850267,1.429767151304683,-22.929019156966334
-0.29110837778170007,3.7370378784777096,7.766528044308758,1.0968652715153633,1.0530945256143112,-23.226400972137263
-0.25373799899692295,3.747568823733853,7.777496697023912,0.8646012617939907,0.759492936488452,-23.461653736215865
-0.2162623107595844,3.7551637530987376,7.786142709641852,0.629984724431832,0.5510556716795673,-23.642186612123858
-0.17871067322859702,3.760674309815533,7.79244255688617,0.39356285831059334,0.42916401883168803,-23.77697704952824
-0.1411039301304417,3.76496595000385,7.796378185469276,0.15579308781531093,0.39463984184510015,-23.876412214948466
-0.1034542706304032,3.768912348422301,7.7979361163474294,-0.08297103433417374,0.4479250115594509,-23.952125135430126
-0.06576514714618019,3.7733915985378954,7.7971064060040876,-0.322492285688475,0.5892800804534625,-24.01683673157675
-0.028031231160801237,3.77928439934243,7.793881483147203,-0.5626606530042425,0.8189933640677515,-24.08421289511747
0.009761612832623064,3.7874743329831073,7.78825487661716,-0.8035027819554172,1.1375900700468435,-24.16874175981662
0.04763635616245414,3.798850233683576,7.780219848797606,-1.0451901995535835,1.5460285922236987,-24.28562969670076
0.0856248584992899,3.814310519605813,7.76976794680207,-1.288046496520591,2.045866381676188,-24.45070416825313
