th1 (rad),w1 (rad/s),th2 (rad),w2 (rad/s)
5.7635089370094805,-1.8449934232614205,2.269975030655869,2.72473641162389
5.745059002776866,-1.8078991640586988,2.297222394772108,2.6728163329723893
5.72698001113628,-1.7687145933096748,2.323950558101832,2.6270637023810375
5.7092928652031825,-1.7270541377257862,2.350221195125642,2.587728259150397
5.692022323825925,-1.6826163002332815,2.376098477717146,2.554974419283362
5.675196160823592,-1.6351948550178137,2.4016482219099795,2.5288628345895776
5.658844212273414,-1.5846854753028592,2.4269368502558755,2.50933884642361
5.642997357520386,-1.5310869496863504,2.4520302387201114,2.496228966723659
5.627686488023523,-1.474496744199729,2.476992528387348,2.4892456636267375
5.612941520581526,-1.415101305283376,2.5018849850236156,2.487999817432599
5.598790507528692,-1.3531620654248488,2.5267649831979417,2.4920194041559793
5.585258886874444,-1.2889985177268077,2.5516851772395017,2.5007723915785323
5.572368901697176,-1.2229699154258056,2.5766929011552873,2.513691573893871
5.560139202542918,-1.1554571209144942,2.601829816894226,2.5301991344778356
5.548584631333773,-1.086845911456596,2.6271318082390045,2.5497290589224573
5.5377161722192065,-1.0175127084309268,2.6526290988282293,2.571746028606113
5.527541045134897,-0.947813305891287,2.6783465591142903,2.595760001758652
5.518062912075984,-0.8780747977343459,2.704304159131877,2.6213362384013688
5.50928216409864,-0.8085905881861835,2.7305175215158908,2.6481009790508017
5.501196258216779,-0.7396181430488931,2.7569985313063987,2.6757433089628955
5.49380007678629,-0.671379004334973,2.7837559643960277,2.704013924306463
5.48708628674294,-0.6040605387061194,2.8107961036390923,2.7327215802696516
5.481045681355879,-0.5378189021200517,2.838123319441789,2.7617279721610304
5.475667492334678,-0.47278275813889226,2.865740599163399,2.790941710975548
5.470939664753289,-0.4090573658152877,2.8936500162731544,2.820311933837599
5.466849091095137,-0.34672873916552993,2.9218531356115305,2.849821960270216
5.463381803703482,-0.2858676628657152,2.9503513552142326,2.8794832832593
5.460523127074825,-0.2265334212973141,2.9791461880468257,2.9093300788300716
5.458257792861851,-0.16877715734057516,3.0082394888351263,2.939414333283097
5.456570021288446,-0.1126448228488095,3.037633632167957,2.96980162359768
5.4554435730599575,-0.05817971561571246,3.067331648403934,3.0005675417988775
5.4548617759038,-0.005424619781142295,3.0973373238219226,3.0317947251958572
5.454807529705989,0.04557641980520542,3.127655271073881,3.06357043792788
5.455263293904041,0.09477665161249774,3.1582909754531596,3.095984641986634
5.456211060420166,0.14212545965723639,3.189250821873026,3.1291284950549696
5.457632315016738,0.18756745426215557,3.220542106823576,3.16309321588677
5.45950798955936,0.2310417740843413,3.2521730389824435,3.197969263855338
5.461818407300203,0.27248156556931874,3.284152731620997,3.2338457864902397
5.464543222955896,0.31181360979585204,3.316491189485899,3.2708102964605277
5.467661359053855,0.3489580704556545,3.3491992924505043,3.3089485469991318
5.471150939758411,0.38382834019583384,3.3822887779204955,3.3483445818737345
5.474989223160369,0.41633096558154453,3.415772223739233,3.389080942526026
5.479152532816185,0.4463656334294137,3.449663033164493,3.4312390208639516
5.483616189150479,0.47382520318640015,3.4839754233731326,3.47489955141116
5.488354441182343,0.4985957713831003,3.518724418887244,3.520143241148785
5.493340398896175,0.5205567549933925,3.553925851298732,3.567051539507089
5.498545966446109,0.5395809808128165,3.5895963666938027,3.615707554671866
5.503941776254237,0.5555347677615393,3.6257534422405215,3.6661971257621566
5.509497123931853,0.5682779883639373,3.662415413498143,3.7186100636118984
5.5151799038154925,0.5776640946006226,3.699601514134262,3.773041575946028
5.520956544761499,0.583540091923296,3.7373319298937226,3.829593895772228
5.526791945680732,0.5857464435353522,3.775627868851445,3.88837813489242
5.532649410116086,0.5841168851627081,3.814511650200369,3.94951638763219
5.538490578967713,0.578478128599686,3.854006814076691,4.0131441132152705
5.54427536025371,0.5686494305060932,3.8941382552088437,4.079412828636757
5.549961854558771,0.5544420015447745,3.9349323834952115,4.148493147273056
5.555506274574219,0.5356582304305826,3.976417314967942,4.220578201497285
5.560862856878525,0.5120906985039958,4.018623096982915,4.2958874896523565
5.5659837638635645,0.48352096412417894,4.061581971879439,4.3746711878153475
5.570818973504807,0.4497181041855734,4.105328683757592,4.457214963062257
5.5753161545466625,0.4104370150513759,4.149900833388214,4.543845314397109
5.579420524697176,0.3654165013450622,4.195339286532185,4.634935445174157
5.583074689710627,0.31437722494780007,4.241688640983927,4.73091162859616
5.586218461960105,0.25701965866339704,4.288997757269889,4.83225995251774
5.588788658546739,0.19302230589744562,4.3373203567950664,4.939533199951753
5.590718881605714,0.12204063562447964,4.386715688794584,5.053357402877977
5.591939287961958,0.04370748249606693,4.4372492628233635,5.174437243726533
5.5923763627869185,-0.04236385920051064,4.488993635260629,5.3035588825865725
5.591952724194914,-0.13657185931162572,4.542029224086495,5.441587818393682
5.590587005601797,-0.23931110667945027,4.596445102270431,5.589457830535455
5.588193894535003,-0.35094373682341984,4.6523396805757855,5.748144563167997
5.584684457166769,-0.47174999866644807,4.709821126207466,5.918613434997664
5.579966957180104,-0.6018457346548238,4.7690072605574425,6.101725674322709
5.573948499833556,-0.741048468333779,4.83002451730067,6.298077799947477
5.5665380151502175,-0.8886660156203595,4.893005295300145,6.5077387680419525
5.557651354994014,-1.0431737521491713,4.958082682980565,6.729837353378275
5.547219617472522,-1.20174477291913,5.025381056514347,6.961947846493533
5.5352021697433305,-1.359616169125212,5.095000534979283,7.199244966120984
5.521606008052078,-1.509344858571378,5.166992984640492,7.433490380572034
5.506512559466365,-1.6401719133389945,5.241327888446213,7.652134391266109
5.490110840332974,-1.7379940888775716,5.317849232358874,7.838195303529038
5.4727308994441985,-1.786708299374474,5.396231185394164,7.971945746990753
5.4548638164504535,-1.7715201925820467,5.475950642864071,8.035206601192057
5.437148614524633,-1.683649044198162,5.556302708875992,8.01748628866816
5.420312124082651,-1.5240733156995192,5.636477571762674,7.9207976333167975
5.405071390925656,-1.3035582815115454,5.715685548095842,7.759483646152034
5.39203580811054,-1.0386603319340877,5.793280384557362,7.554745913608904
5.3816492047911995,-0.7464472579891586,5.868827843693452,7.327641329411607
5.374184732211308,-0.4408892823295882,5.942104256987568,7.0944794517100505
5.369775839388012,-0.13173908501360548,6.013049051504669,6.865595128660282
5.368458448537876,0.17495884081124297,6.081705002791272,6.646243307474328
5.370208036945988,0.47581167340247943,6.148167435866015,6.438137327436675
5.374966153680013,0.769092547599979,6.212548809140382,6.240822198620478
5.382657079156013,1.0540206277102673,6.274957031126587,6.052652555329409
5.393197285433116,1.3302975389591918,6.335483556679882,5.871412124046638
5.406500260822708,1.5978327045216991,6.394197677920348,5.694679443162467
5.422478587867925,1.8565925843925268,6.451144472351973,5.520033888297968
5.441044513711851,2.106526501917006,6.5063448112349525,5.345167889795599
5.462109778731021,2.3475383066791635,6.559796490132909,5.167946599356
5.485585161797813,2.57948491465176,6.611475956126469,4.986439174971662
5.511380010944331,2.802190273541064,6.661340347876186,4.798935101127974
5.539401913679741,3.0154678127014485,6.7093296988874656,4.6039525278677385
5.569556591806756,3.2191470623614085,6.755369224166143,4.400241884852575
5.60174806243037,3.4131016332251134,6.799371643014669,4.186785936096912
5.635879078762621,3.5972766203242075,6.841239502375638,3.9627963336269736
5.671851844965864,3.7717140279503,6.8808674657119075,3.7277062179112246
5.709568985245367,3.9365751770109005,6.91814452789102,3.481158273419362
5.748934737015476,4.092159347055352,6.952956110625213,3.222987744185877
5.78985633048603,4.238918168679613,6.985185988067072,2.953200162767871
5.832245512172826,4.377465532017618,7.014717989694751,2.6719438917078855
5.876020167493002,4.508583004747417,7.04143742861183,2.379477984369616
5.921105997540477,4.633220931590614,7.065232208455526,2.076136324893731
5.967438206856383,4.752495472590856,7.085993571704463,1.762289511498739
6.014963161582291,4.86768176491591,7.10361646681945,1.4383065447585066
6.063639979231451,4.980203068149144,7.117999532267035,1.104519168177867
6.1134420099129425,5.091615033743862,7.129044723948814,0.7611928616840355
6.164358160250381,5.2035829042157875,7.136656652565654,0.4085103183436577
6.216393989292539,5.317847147975123,7.140741755749091,0.04657624506261199
6.26957246077229,5.436169229575774,7.141207518199717,-0.32454269529454716
6.3239341530680475,5.560243104514026,7.137962091246772,-0.7047208972528549
6.379536584113188,5.691548580074481,7.130914882274244,-1.0935852346449992
6.4364520699139325,5.831108995093894,7.119979029927793,-1.490181928624179
6.494763159864871,5.97909835190904,7.105077210641552,-1.8924227300380254
6.554554143383962,6.1342281688796305,7.086152983341171,-2.296215249579176
6.6158964250727585,6.292852734793258,7.06319083084538,-2.694197217844741
6.678824952420691,6.447815056248635,7.036248858666932,-3.0741171641869665
6.743303102983178,6.587309700948296,7.005507687025062,-3.4172686634250447
6.8091761999926605,6.694549609173125,6.971335000390812,-3.6981120997859005
6.876121696084391,6.749619756980408,6.934353879392953,-3.887057088430693
6.943617893654196,6.73470702760491,6.895483308508646,-3.9580830898196706
7.0109649639302445,6.641608498609307,6.855902477610449,-3.8995942155851337
7.077381048916338,6.476833538820354,6.816906535454598,-3.721778392206155
7.142149384304541,6.259548144811589,6.779688751532537,-3.453643035585347
7.204744865752657,6.013528096001779,6.7451523211766835,-3.1313605154860347
7.264880146712675,5.759312547759997,6.713838716021823,-2.7867928520815792
7.322473272190274,5.510727254882829,6.685970787501008,-2.442246671279274
7.377580544739103,5.275243724600901,6.661548320788215,-2.110785949405841
7.430332981985112,5.055854685484581,6.6404404612941565,-1.7988131990425857
7.480891528839957,4.852906511022031,6.622452329303731,-1.5086657798272056
7.529420593950178,4.665388871768915,6.607365671505459,-1.2404773973406524
7.576074482667867,4.491710094968243,6.594960897532053,-0.993319512140068
7.620991583617549,4.330119280097325,6.585027702410652,-0.7658389931970488
7.664292776418522,4.1789172406369515,6.577369312478681,-0.5565893988673819
7.706081948824892,4.036550628747636,6.571803418490007,-0.36418933512142254
7.746447455112368,3.9016449151475965,6.568161525138793,-0.1873878923670317
7.785463904263844,3.7730070864978353,6.566287646215122,-0.025082317308875113
7.823193975128823,3.649614496827935,6.566036823042033,0.1236874692502655
7.8596901200971026,3.530598330039673,6.567273697734536,0.25975443541274124
7.894996103397499,3.4152258463109675,6.569871242088664,0.38384332075548794
7.929148361860609,3.3028833372410475,6.573709675296219,0.4965894750589951
7.96217719523302,3.193060564356835,6.578675570046809,0.5985560947741353
7.994107800876588,3.085336888481125,6.584661130994551,0.6902492427180007
8.024961169761399,2.9793690356124194,6.591563623421731,0.7721305183877359
8.054754860117523,2.8748803397215625,6.599284928605608,0.8446274821046975
8.083503663514739,2.7716512752383995,6.607731203426655,0.9081420422597721
8.111220176267123,2.669511100389828,6.616812623849253,0.9630570535957287
8.13791528727102,2.568330455403762,6.62644319438521,1.0097413789766239
8.163598591825059,2.468014786071695,6.636540608174976,1.0485536550105263
8.188278739685776,2.368498488131169,6.647026144725081,1.0798449823526253
8.211963724567088,2.2697396892615185,6.657824594548607,1.103960739193808
8.234661121459704,2.1717156026064326,6.668864201940545,1.1212416936654905
8.256378277485767,2.0744183988348737,6.6800766188772,1.1320245687933586
8.277122461474116,1.977851553358664,6.691396864565133,1.1366421927397927
8.296900977007702,1.8820266320863939,6.702763286492531,1.1354233476274567
8.315721243328566,1.7869604836517325,6.714117519968806,1.1286924123404398
8.333590848165084,1.6926728089909466,6.72540444409221,1.1167688783971683
8.350517576254994,1.5991840809542295,6.736572132876182,1.0999668032909822
8.366509417064536,1.5065137877202803,6.747571800909092,1.0785942525876768
8.38157455494174,1.4146789744561428,6.758357743434969,1.0529527705227997
8.3957213446863,1.3236930581568676,6.768887271140197,1.0233369088042954
8.408958275267869,1.2335648910751984,6.77912064022824,0.9900338347287679
8.42129392417862,1.1442980487159815,6.789020978575528,0.9533230324757235
8.43273690466578,1.0558903190834767,6.798554208900285,0.9134761054528833
8.443295807856616,0.9683333707571734,6.807688969954814,0.8707566827154176
8.452979141564189,0.8816125784322907,6.816396536781968,0.8254204286541875
8.461795267348512,0.795706985776213,6.82465074106851,0.7777151522211506
8.469752337206273,0.710589386791638,6.832427892590721,0.7278810098128418
8.47685823107419,0.6262265083049732,6.83970670268885,0.6761507944476762
8.48312049615724,0.5425792776759988,6.846468210633327,0.6227503029382266
8.488546288934,0.45960316131413426,6.852695713662709,0.5678987722719782
8.493142320547141,0.3772485610524974,6.858374701385429,0.5118093762789909
8.496914806157667,0.29546125684185576,6.863492795148219,0.4546897737979443
8.499869418726085,0.21418288555554138,6.868039692886199,0.39674269987902
8.50201124758164,0.13335144692113057,6.872007119884989,0.3381665920189843
8.503344762050851,0.05290182869745112,6.875388785805179,0.2791562439564852
8.503873780337825,-0.0272336558172164,6.878180348244744,0.21990348011913485
8.503601443779653,-0.10712472403773786,6.880379383045935,0.16059784437223107
8.502530196539276,-0.1868425795270126,6.881985361489657,0.10142729724382957
8.500661770744006,-0.266459371519521,6.882999634462095,0.042578916271498325
8.497997177028811,-0.3460476630817472,6.88342542362481,-0.015760405481613636
8.494536700397994,-0.4256799122563098,6.883267819569993,-0.07340326736763882
8.49027990127543,-0.5054279704904644,6.882533786896317,-0.13016107993016338
8.485225621570526,-0.5853626027560332,6.881232176097015,-0.1858433987210316
8.479371995542966,-0.6655530340231917,6.879373742109805,-0.2402572772560916
8.472716465202733,-0.7460665271505204,6.876971169337244,-0.2932066431531215
8.465255799931228,-0.8269679977931396,6.874039102905713,-0.3444917014725739
8.456986119953296,-0.9083196726035471,6.870594185890988,-0.39390836926656214
8.44790292322726,-0.9901807977990532,6.8666551021983215,-0.44124774530274496
8.43800111524927,-1.0726074060874495,6.862242624745294,-0.4862956188303069
8.427275041188395,-1.1556521509696838,6.857379668556991,-0.528832021051372
8.415718519678698,-1.2393642185646156,6.852091348346478,-0.568630822602358
8.403324877493052,-1.323789328315151,6.846405040120454,-0.6054593797782475
8.390086984209901,-1.4089698352251627,6.840350446322672,-0.6390782313835714
8.37599728585765,-1.494944947630346,6.8339596640088365,-0.6692408468949771
8.361047836381347,-1.581751075911763,6.827267255539887,-0.6956934249927712
8.34523032562223,-1.6694223290083074,6.820310321289959,-0.7181747393780789
8.328536102332148,-1.7579911770669512,6.813128573896178,-0.7364160260489417
8.310956190561479,-1.8474893000860821,6.805764413635689,-0.750140902770937
8.292481297560618,-1.937948643963996,6.79826300460798,-0.7590653072541126
8.273101811120979,-2.029402706978761,6.790672351535439,-0.7628974354508177
8.25280778405119,-2.121888081427783,6.78304337718093,-0.7613376553406088
8.231588903236913,-2.215446276991808,6.775430000627524,-0.7540783645082897
8.209434440466994,-2.3101258544221035,6.767889216982441,-0.7408037517166836
8.186333181922773,-2.4059849004594476,6.760481179465274,-0.7211894135378799
8.16227333291818,-2.5030938775658256,6.753269285329895,-0.6949017670134942
8.13724239414252,-2.6015388851623777,6.74632026765976,-0.6615971884476878
8.111227005290896,-2.701425372657618,6.739704295775283,-0.6209207971401018
8.08421275156432,-2.8028823485558254,6.733495087803882,-0.572504791740021
8.056183928078761,-2.906067134090935,6.727770039886482,-0.515966236961254
8.027123256737852,-3.0111707134891663,6.72261037751687,-0.45090419132402487
7.99701154960296,-3.118423734794874,6.718101335603629,-0.37689606517291574
7.965827312255011,-3.228103212681442,6.7143323749519,-0.29349310706979787
7.933546280128197,-3.3405399732575582,6.711397443881203,-0.2002149434209617
7.900140880395622,-3.456126852550544,6.709395294446993,-0.09654315356975508
7.865579611870117,-3.5753276012264767,6.708429862911295,0.018086028270755658
7.8298263358578515,-3.698686334434919,6.708610723194003,0.1442895966381828
7.792839472513502,-3.826837157061262,6.710053619160385,0.2827456140525899
7.754571100942889,-3.9605132228661457,6.712881075300911,0.43419978891610156
7.714965968714227,-4.100553836271524,6.7172230731900715,0.5994685793042176
7.673960430351512,-4.247907086786008,6.723217758983114,0.7794349336402722
7.631481359483652,-4.403623604377057,6.731012108319517,0.9750299794419283
7.587445123439881,-4.568833837152902,6.740762408113936,1.1871893431047873
7.541756785068352,-4.744696013968165,6.752634301544983,1.4167652593575353
7.494309824928671,-4.93229360116622,6.7668019541385585,1.6643637444430741
7.4449868889170085,-5.132448430311824,6.783445591582989,1.930058299419537
7.39366240461389,-5.34539843475719,6.802746174577185,2.212907583634045
7.340208420266318,-5.570270524994768,6.824875250413525,2.5101794293174096
7.284505715016371,-5.80427411148334,6.849977044706699,2.816178579360078
7.226462973901538,-6.041589324892626,6.8781388305002995,3.120648235343915
7.1660470806526115,-6.272108713771089,6.9093453128537385,3.4069835938852817
7.1033259935149005,-6.480617006790811,6.9434151487925915,3.6511073044494475
7.038519823446992,-6.647617049861628,6.979926221837086,3.8227475574244405
6.9720436529483765,-6.753229786942923,7.01815369741133,3.891168510861492
6.904511355078947,-6.784129029597723,7.057065382519945,3.8352981203119856
6.83667006478297,-6.74006192580588,7.0954183637230654,3.6533090160163635
6.769269445524911,-6.63470610321766,7.131951453883229,3.3640914640790287
6.702922384492734,-6.489608101935172,7.165592368524019,2.9987135601511543
6.638026303473382,-6.326001299427153,7.19557950412553,2.5886495215606407
6.574766290479111,-6.159740394011002,7.221465999341136,2.158311896618138
6.513168886539002,-6.000346216304746,7.243049118307318,1.723437762265998
6.453165424375954,-5.8523044436793565,7.260283495929977,1.2927672407454165
6.39464237993916,-5.716813372574335,7.273211168337432,0.8704510325847523
6.337474246213417,-5.593177333828077,7.281915678663279,0.45801370094724286
6.281542472875136,-5.479714881752261,7.286495815672751,0.055655166532667555
6.226745324057614,-5.37429060265641,7.287052367338077,-0.33697601967956026
6.17300241803105,-5.274606462955473,7.283682607141282,-0.720356180962701
6.120256353401495,-5.178354169401636,7.276479045331655,-1.0948683594073585
6.068472811707479,-5.0832924593622355,7.265530361737581,-1.4607041369501301
6.017639887113856,-4.9872863888798795,7.25092332036808,-1.81783341925427
5.967767023225058,-4.888329006829651,7.232744986175537,-2.16601276360476
5.918883733156761,-4.784556051111716,7.21108485853949,-2.504815862528342
5.871038172645644,-4.674258743690405,7.186036699914206,-2.8336769668432327
5.82429558520874,-4.555896618009049,7.157699930245774,-3.1519418254787133
5.77873661902865,-4.428110542197357,7.126180511990986,-3.4589226392599026
5.734455513606677,-4.289735124232764,7.091591285598387,-3.7539544498508928
5.691558162364349,-4.139809187442141,7.054051741099878,-4.036450819052285
5.650160070489928,-3.9775828192350366,7.013687232909355,-4.30595688804579
5.610384242297578,-3.8025195315575964,6.970627664028897,-4.562198105430067
5.572359046982002,-3.6142922735758836,6.9250056829745965,-4.805123164996183
