th1 (rad),w1 (rad/s),th2 (rad),w2 (rad/s),a1 (rad/s^2),a2 (rad/s^2)
2.517307900656271,2.9739924219088367,3.604042916697394,3.001845634222759,-1.0497997417690388,-2.96774228883948
2.5470478248753596,2.9634944244911465,3.634061373039622,2.972168211334364,-0.951740365749287,-2.6983076994680495
2.576682769120271,2.9539770208336535,3.6637830551529653,2.9451851343396838,-0.8377418137617835,-2.4473165215247725
2.6062225393286074,2.945599602696036,3.6932349064963623,2.920711969124436,-0.7085771492241889,-2.2152153626302873
2.635678535355568,2.9385138312037937,3.722442026187607,2.898559815498133,-0.5649768214385003,-2.002428727143334
2.6650636736676057,2.9328640629894087,3.751427624342588,2.8785355282267,-0.4076312879386925,-1.8093643242987396
2.6943923142974997,2.928787750110022,3.7802129796248547,2.8604418849837128,-0.23719370873466272,-1.6364186981051716
2.7236801917986,2.9264158130226754,3.808817398474692,2.844077698002661,-0.054282603419290996,-1.4839830592953709
2.7529443499288266,2.9258729869884825,3.8372581754547186,2.829237867409707,0.1405156287625005,-1.3524492165659978
2.7822030797987116,2.9272781432761077,3.8655505541288155,2.815713375244047,0.3466444187431975,-1.2422155187344985
2.8114758612314725,2.93074458746354,3.893707687881256,2.803291220056702,0.5635750554313577,-1.1536927315656458
2.8407833071061077,2.9363803380178535,3.921740600081823,2.7917542927410457,0.7908051171037994,-1.0873097832337448
2.870147110486286,2.9442883891888916,3.9496581430092337,2.780881194908708,1.0278573919468676,-1.0435193210851819
2.899589994378175,2.9545669631083604,3.9774669549583206,2.7704460016978563,1.2742793755950277,-1.022803029977299
2.9291356640092587,2.9673097568643105,4.005171414975299,2.7602179713980832,1.5296434381055264,-1.0256766694371697
2.958808761577902,2.982606191245366,4.03277359468928,2.7499612047037116,1.7935477595883877,-1.052694793657695
2.9886348234903557,3.0005416688412496,4.0602732067363165,2.739434256767135,2.0656181425254636,-1.1044551253690682
3.018640240178768,3.0211978502665042,4.087667549303988,2.728389705513444,2.3455108194501455,-1.181602562304235
3.048852218681433,3.044652958461006,4.114951446359123,2.7165736798904017,2.6329163868417345,-1.28483280367166
3.079298748266043,3.0709821223294234,4.142117183158026,2.7037253518536852,2.927565009445743,-1.414895594008666
3.110008569489337,3.100257772423881,4.169154436676563,2.6895763959135985,3.229233053270077,-1.5725975930904192
3.1410111472135758,3.1325501029565817,4.196050200635699,2.6738504199826942,3.5377513195565986,-1.7588048930106122
3.1723366482431414,3.1679276161521477,4.2227887048355255,2.656262371052588,3.8530150651635235,-1.9744452164887134
3.204015924404663,3.206457766803783,4.249351328546052,2.636517918887701,4.174996005717478,-2.2205098425811904
3.236080502072701,3.248207726860958,4.275716507734929,2.614312820461889,4.503756504750819,-2.4980553149452853
3.2685625793413107,3.293245291908466,4.301859635939548,2.5893322673124364,4.839466152142102,-2.8082049897549433
3.3014950322603953,3.341639953429887,4.327752958612672,2.561250217414887,5.182420924577906,-3.1521504691418496
3.334911431794694,3.393464162675666,4.353365460786821,2.529728712723468,5.53306509358919,-3.531152932062677
3.3688460734214507,3.448794813611558,4.378662747914056,2.4944171834028412,5.892015994197777,-3.946544303143836
3.4033340215575665,3.507714973553536,4.403606919748085,2.4549517403714027,6.260091676075135,-4.399728069156756
3.438411171293102,3.5703158903142875,4.428156437151799,2.4109544596798353,6.63834130924098,-4.89217932893825
3.4741143301962447,3.6366993034066972,4.452265981748597,2.3620326663904527,7.028077977059196,-5.4254432956529115
3.510481323230312,3.706980083177289,4.475886308412501,2.3077782334339236,7.43091311381645,-6.00113088512197
3.5475511240620845,3.7812892143154535,4.49896409074684,2.247766924582704,7.848791260933654,-6.620909107849395
3.585364016205239,3.85977712692479,4.521441759992667,2.1815578335042103,8.284022915444378,-7.286482566531481
3.623961787474487,3.942617356079234,4.5432573383277095,2.1086930078388955,8.739311859684378,-7.999560192396894
3.663387961035279,4.030010474676078,4.564344268406098,2.0286974059149263,9.217771237746508,-8.761798054698183
3.70368806578204,4.122188187053543,4.584631242465248,1.9410794253679444,9.722919396789559,-9.574704085261416
3.7449099476525753,4.219417381021438,4.604042036718927,1.8453323845153302,10.258641561078704,-10.439483042675356
3.78710412146279,4.322003796632226,4.622495360564081,1.7409375540885768,10.829095896864558,-11.356788786567353
3.830324159429112,4.430294755600871,4.639904736104967,1.6273696662229031,11.43853121669856,-12.326334216080175
3.874627106985121,4.544680067767857,4.656178432767196,1.5041063240621013,12.090966734120263,-13.346284689663442
3.9200739076627995,4.66558973510906,4.671219496007817,1.370643477165467,12.789659661922558,-14.412325395641185
3.96672980501389,4.793486331728285,4.684925930779471,1.226520223209055,13.536251492597929,-15.516243762467287
4.014664668331173,4.928848846654264,4.697191133011562,1.071357785584382,14.329436556393908,-16.64380256997375
4.063953156797716,5.0721432122182035,4.707904710867406,0.9049197598846446,15.162938130376007,-17.771601008284858
4.114674588919898,5.223772593521963,4.716953908466253,0.727203749801796,16.022518452756724,-18.862546689936753
4.166912314855117,5.3839977780495305,4.72422594596427,0.5385782829024285,16.881722260430298,-19.859541758490185
4.220752292635613,5.552815000653833,4.729611728793294,0.33998286531752664,17.696138544656748,-20.677139257208083
4.276280442642151,5.729776386100401,4.73301155744647,0.1332114727454458,18.396326815821013,-21.191492705273774
4.333578206503155,5.9137396542586105,4.7343436721739245,-0.07870345430729192,18.88047890529521,-21.23031581204328
4.392715603045741,6.1025444433115625,4.733556637630851,-0.29100661242772474,19.00974764215598,-20.567318324580707
4.453741047478857,6.292641919733122,4.730646571506574,-0.4966797956735318,18.612123962150644,-18.92988322948472
4.516667466676188,6.478763159354629,4.725679773549839,-0.685978627968379,17.50382841670784,-16.03316858443447
4.581455098269735,6.653801443521707,4.718819987270155,-0.8463103138127237,15.536847483868566,-11.653155478160429
4.647993112704952,6.809169918360393,4.710356884132028,-0.962841868594328,12.67099967827898,-5.735997179856512
4.716084811888556,6.9358799151431825,4.700728465446085,-1.0202018403928932,9.044949675553537,1.4941605218849336
4.785443611039987,7.026329411898718,4.690526447042156,-1.0052602351740438,4.995618125012158,9.503487813428777
4.855706905158975,7.07628559314884,4.6804738446904155,-0.910225357039756,0.9836441232318762,17.556179773570904
4.9264697610904635,7.086122034381159,4.6713715911200175,-0.734663559304047,-2.556473727933029,24.936300058319627
4.997330981434275,7.060557297101829,4.664024955526977,-0.48530055872085076,-5.356136464091111,31.159756965791942
5.067936554405294,7.006995932460917,4.659171949939768,-0.17370298906293136,-7.36207477936504,36.056932833736354
5.138006513729903,6.933375184667267,4.657434920049139,0.1868663392744322,-8.69016728481677,39.71392000378972
5.207340265576575,6.8464735118191,4.659303583441884,0.5840055393123293,-9.538895057223582,42.35015120797659
5.275805000694766,6.751084561246864,4.665143638835007,1.0075070513920952,-10.116254198085027,44.21136068361167
5.3433158463072346,6.649922019266014,4.675218709348927,1.4496206582282118,-10.599960660246456,45.50912256943992
5.4098150664998945,6.543922412663549,4.6897149159312095,1.904711883922611,-11.125193848042473,46.40073227395129
5.47525429062653,6.432670474183124,4.7087620347704355,2.368719206662124,-11.787133611403666,46.99194849292299
5.539580995368361,6.3147991380690875,4.732449226837057,2.8386386915913535,-12.648584450463838,47.34864126565519
5.602728986749052,6.188313293564449,4.76083561375297,3.3121251042479054,-13.747700327849499,47.50979917741411
5.664612119684697,6.050836290285954,4.793956864795449,3.7872230960220463,-15.104053974506476,47.498893668943566
5.725120482587556,5.899795750540889,4.83182909575567,4.262212032711482,-16.722885299827947,47.332893772577805
5.784118440092965,5.732566897542609,4.874451216082785,4.735540970437261,-18.5979458000246,47.029096607446796
5.841444109068391,5.546587439542363,4.921806625787157,5.2058319365117285,-20.71345746674636,46.610127512996925
5.896909983463814,5.339452864874899,4.9738649451522745,5.671933211641698,-23.045613024157888,46.10739081017951
5.950304512112563,5.108996734633321,5.030584277268692,6.133007119743493,-25.563879887151867,45.56310607681382
6.001394479458896,4.853357935761802,5.091914348466126,6.588638180511632,-28.232165687849957,45.03090276146317
6.049928058816514,4.5710362788833026,5.1578007302712425,7.038947208126263,-31.00964759904827,44.574752956483565
6.095638421605347,4.260939802892819,5.228190202352505,7.484694737691099,-33.85072144174282,44.26573086815765
6.138247819634276,3.9224325884753912,5.303037149729416,7.927352046372675,-36.703017391619106,44.17557259324468
6.17747214551903,3.5554024145592003,5.382310670193143,8.369107772305123,-39.501637550281345,44.36506809578849
6.213026169664621,3.160386039056387,5.466001747916194,8.812758453263008,-42.15652513254183,44.86365807141811
6.244630030055185,2.7388207877309685,5.554129332448825,9.26139503397719,-44.528024203222905,45.63394097118857
6.272018237932494,2.2935405456987397,5.646743282788597,9.717734443689075,-46.38347284562243,46.511309710913466
6.294953643389482,1.8297058172425154,5.743920627225488,10.18284754079821,-47.327008439217124,47.10702228961606
6.313250701561907,1.356435732850344,5.845749102633469,10.653917763694372,-46.70273452329909,46.67202439338798
6.326815058890411,0.8894083876173531,5.952288280270413,11.120638007628251,-43.506733694477674,43.964211166397334
6.335709142766584,0.45434105067257635,6.063494660346696,11.560280119292225,-36.436694957390486,37.28621022513466
6.340252553273309,0.08997410109867149,6.179097461539619,11.933142221543571,-24.346631924708472,25.05068173238592
6.341152294284296,-0.15349221814841324,6.298428883755054,12.183649038867431,-7.313924879077707,7.1588758644231145
6.339617372102811,-0.2266314669391903,6.420265374143729,12.255237797511661,12.253412908532239,-13.556904891740638
6.33735105743342,-0.10409733785386792,6.542817752118846,12.119668748594256,30.11866281105829,-32.00326218862169
6.336310084054881,0.19708929025671496,6.664014439604788,11.79963612670804,42.80015382362677,-44.1775576155493
6.338280976957448,0.6250908284929827,6.782010800871868,11.357860550552546,49.554649625409375,-49.61162785068209
6.344531885242378,1.1206373247470764,6.895589406377393,10.861744272045726,51.74428026520448,-50.37557436509921
6.355738258489849,1.6380801273991212,7.004206849097851,10.357988528394735,51.162574379315075,-48.86718588276249
6.37211905976384,2.149705871192272,7.107786734381798,9.86931666956711,49.13224907064174,-46.72295355562482
6.393616118475762,2.6410283618986896,7.206479901077469,9.402087134010863,46.414625276595785,-44.788498017632854
6.4200264020947495,3.1051746146646475,7.300500772417578,8.954202153834535,43.392514671600324,-43.40304390757024
6.451078148241396,3.5390997613806507,7.3900427939559235,8.520171714758833,40.2440755497926,-42.64041405899972
6.486469145855202,3.9415405168785766,7.4752445111035115,8.093767574168837,37.0509970523625,-42.45075641645982
6.525884551023988,4.312050487402201,7.5561821868451995,7.669260010004239,33.855848491066425,-42.73291390588623
6.5690050558980095,4.650608972312866,7.632874786945242,7.241930870945376,30.689703209020287,-43.3692694298184
6.615511145621138,4.9575060044030685,7.705294095654695,6.808238176647192,27.584001891450185,-44.24241865115776
6.665086205665169,5.23334602331757,7.773376477421167,6.3658139901356146,24.574375462742843,-45.24353531910363
6.717419665898345,5.479089777944998,7.837034617322524,5.913378636944579,21.7004818317065,-46.276991496142266
6.7722105636777945,5.696094596262063,7.89616840369197,5.450608721983156,19.00400507423302,-47.263148568272236
6.829171509640415,5.886134647004393,7.950674490911801,4.9779772363004335,16.52600420036764,-48.14000304525806
6.888032856110459,6.051394689008069,8.000454263274806,4.496577205847853,14.304292999792985,-48.863848794358326
6.948546803000539,6.194437619005999,8.045420035333285,4.00793871790427,12.37123191686759,-49.40893874520985
7.010491179190599,6.318149938174675,8.085499422512328,3.513849330452171,10.75209957417961,-49.766103315883804
7.073672678572346,6.425670933916471,8.12063791581685,3.0161882972933327,9.464033932127068,-49.94030301028707
7.137929387911511,6.520311273237741,8.150799798789784,2.5167852671904622,8.515368714691773,-49.94709232154909
7.203132500643888,6.605464960384659,8.175967651461688,2.0173143439749714,7.905025715181285,-49.80790488576762
7.269187150247735,6.684515217536473,8.196140794901439,1.5192352951172952,7.621441794349245,-49.54390052311726
7.336032302423099,6.760729635479965,8.211333147852612,1.0237962898861226,7.640290215352521,-49.167818202217774
7.403639598777899,6.83713253763349,8.221571110751473,0.5321181078639449,7.919985420968768,-48.67285406393462
7.472010924154234,6.916332391843178,8.226892291830112,0.04538956722459864,8.393671846283027,-48.017107516993036
7.541174248072666,7.000269110306008,8.227346187502357,-0.4347815079453317,8.956281298307701,-47.101916667520946
7.611176939175726,7.089831923289085,8.222998372422904,-0.9058006746205411,9.445896300969448,-45.7433182539438
7.6820752584086165,7.18429088629878,8.213940365676699,-1.3632338571599791,9.621527754493833,-43.6399963342169
7.753918167271604,7.280506163843718,8.200308027105098,-1.799633820502148,9.147204820212236,-40.35224452586314
7.8267232289100415,7.371978212045841,8.182311688900077,-2.2031562657607795,7.6077671858177265,-35.328494908509235
7.9004430110305,7.4480558839040185,8.16028012624247,-2.5564412148458717,4.600771247105373,-28.04263785352852
7.97492356986954,7.494063596375073,8.13471571409401,-2.836867593381157,-0.056395379613697984,-18.296619336351185
8.049864205833291,7.493499642578936,8.106347038160198,-3.0198337867446687,-6.0517134737120575,-6.61748566301967
8.12479920225908,7.432982507841815,8.076148700292752,-3.0860086433748655,-12.455146315959881,5.568113932914909
8.199129027337499,7.308431044682216,8.045288613859004,-3.0303275040457165,-18.008853394599328,16.359681864384758
8.27221333778432,7.128342510736222,8.014985338818546,-2.866730685401869,-21.740911161375582,24.27928808113784
8.343496762891682,6.910933399122467,7.986318031964527,-2.623937804590491,-23.38985893073968,28.8981360135437
8.412606096882907,6.67703480981507,7.960078653918622,-2.3349564444550537,-23.314381948966886,30.716154969963274
8.479376444981058,6.443890990325401,7.936729089474071,-2.027794894755421,-22.11536962080764,30.614964696167576
8.543815354884313,6.222737294117325,7.916451140526517,-1.7216452477937452,-20.33507913031443,29.412523694750213
8.606042727825486,6.01938650281418,7.89923468804858,-1.427520010846243,-18.347620457427237,27.692346241146016
8.666236592853627,5.8359102982399085,7.884959487940117,-1.1505965484347827,-16.370252237474688,25.81090934669888
8.724595695836026,5.672207775865162,7.873453522455769,-0.8924874549677938,-14.511360106881543,23.962541461323177
8.781317773594678,5.527094174796346,7.864528647906091,-0.652862040354562,-12.814382758314375,22.241553574270124
8.836588715342641,5.398950347213202,7.858000027502546,-0.43044650461186074,-11.287798858853341,20.685812345223976
8.890578218814772,5.2860723586246685,7.853695562456427,-0.22358838115962099,-9.923037835563358,19.303466497878965
8.943438942401018,5.186841980269035,7.851459678644831,-0.03055371618083133,-8.704367132452903,18.088186967964354
8.99530736220371,5.099798308944506,7.851154141483023,0.1503281534988122,-7.614028529979523,17.027446052958542
9.046305345293154,5.023658023644711,7.852657423018011,0.3206026140283976,-6.634733358195681,16.10682482448238
9.096541925529602,4.957310690062754,7.855863449158295,0.4816708622732214,-5.750751118505985,15.312134349106426
9.14611503243023,4.899803178877694,7.860680157781027,0.6347922057642856,-4.948278047526218,14.630365387045014
9.195113064219006,4.850320398402432,7.867028079838669,0.7810958596347357,-4.215455582448556,14.050027462014322
9.24361626820303,4.808165842577947,7.874839038435017,0.921596134254879,-3.5422331572115673,13.561181798391248
9.29169792662881,4.772743511005831,7.8840549997775655,1.0572079522387914,-2.9201747141751015,13.155330808659599
9.339425361738869,4.74354176386408,7.894627079299953,1.1887612603253874,-2.342257705955358,12.825249331649914
9.386860779377509,4.720119186804526,7.906514691903207,1.3170137536418867,-1.8026868465980845,12.564800866261843
9.434061971245553,4.702092318338545,7.9196848294396265,1.442661762304505,-1.296731274082805,12.368759549179728
9.481082894428939,4.689125005597718,7.934111447062672,1.5663493577963024,-0.8205870480675116,12.232646739116282
9.527974144484915,4.680919135117042,7.949774940640635,1.6886758251874652,-0.3712637664453211,12.152584946303728
9.574783335836086,4.677206497452589,7.96666169889251,1.8102016746505025,0.05350720505544582,12.125168833661814
9.621555400810612,4.6777415695031435,7.984763715639016,1.9314533629871207,0.45534576477682215,12.147351667777308
9.668332816505643,4.682295027150912,8.004078249268886,2.0529268796648936,0.8352801827430759,12.216345124822741
9.715155766777151,4.690647828978342,8.024607518065535,2.175090330913121,1.1937908645091355,12.329530331376942
9.762062245066934,4.7025857376234335,8.046358421374666,2.2983856342268902,1.530843074611871,12.484378213632214
9.809088102443168,4.717894168369552,8.069342277716935,2.4232294163632124,1.8459106652769506,12.678377520299836
9.856267044126863,4.736353275022322,8.093574571880566,2.5500131915662108,2.1379926456677767,12.908969213713261
9.903630576877086,4.757733201479,8.119074703796228,2.6791028837033433,2.405624273858139,13.173486261431716
9.951207908891876,4.781789444217581,8.145865732633261,2.8108377463176604,2.6468842588619768,13.469098195458308
9.999025803334051,4.8082582868062005,8.173974110096438,2.9455287282722433,2.85939962024742,13.792760135244691
10.047108386202114,4.836852283008675,8.20342939737916,3.08345632962469,3.040349763005085,14.141166295495545
10.0954769090322,4.867255780638725,8.234263960675408,3.2248679925796457,3.1864713794906407,14.510708323793112
10.144149466838588,4.899120494433632,8.266512640601205,3.369975075817577,3.294065881901002,14.897439140138646
10.193140671782924,4.932061153252642,8.30021239135938,3.518949467218963,3.359011190599244,15.297043284341896
10.24246128331545,4.965651265158634,8.33540188603157,3.6719199000623823,3.3767798471168775,15.704815120742884
10.292117795967036,4.999419063629802,8.372121085032195,3.828968051269811,3.342465575143954,16.11564660471669
10.342111986603333,5.032843719381242,8.410410765544892,3.990124517316978,3.2508205642692083,16.52402668143397
10.392440423797145,5.0653519250239345,8.450312010718061,4.155364784131318,3.096305880787472,16.92405476078602
10.443093943047385,5.096314983831809,8.491865658559375,4.3246053317391775,2.8731574918795775,17.30947108445252
10.494057092885704,5.125046558750605,8.535111711876766,4.497700042583703,2.5754703891691015,17.673707155268605
10.54530755847321,5.150801262642296,8.580088712302603,4.6744371141363885,2.197303168959079,18.009959707735472
10.596815571099633,5.172774294331886,8.626833083443966,4.854536711213743,1.7328051098714818,18.311291919207356
10.648543314042952,5.190102345430601,8.675378450556103,5.037649630405817,1.1763672104585383,18.570765632847372
10.700444337497258,5.2018660175351865,8.72575494686016,5.2233572867342914,0.5227977231497557,18.781608203638427
10.752462997672609,5.207093994766684,8.777988519727502,5.411173368770676,-0.23247864739148758,18.937417084672735
10.804533937620276,5.204769208292769,8.83210025341521,5.600547539617404,-1.093200614591944,19.0324043247941
10.856581629703204,5.193837202146849,8.888105728811384,5.7908715828653445,-2.062034485633787,19.061681631296786
