th1 (rad),w1 (rad/s),th2 (rad),w2 (rad/s)
1.7627697977650105,-1.2674689861919939,1.4056192214261838,3.1408912273844205
1.7500951079030906,-1.3936331151966848,1.437028133700028,3.1680441926529213
1.7361587767511237,-1.5188149338493377,1.4687085756265572,3.195998444438261
1.7209706274126304,-1.6423623112664332,1.5006685600709397,3.2237599299941238
1.704547004299966,-1.763440419673563,1.532906159370881,3.2500470153876524
1.6869126001032304,-1.8810430059012793,1.5654066295247575,3.273303253336823
1.6681021700442176,-1.9940310200597229,1.5981396620581256,3.2917483582995
1.6481618598436203,-2.101203837528571,1.6310571456411207,3.303475175709803
1.6271498214683346,-2.2014020120861737,1.6640918973982188,3.3065917223358103
1.6051358013474728,-2.2936310185796702,1.6971578146215769,3.2993941236575033
1.5821994911616761,-2.377185465074276,1.7301517558581518,3.2805421892486826
1.5584276365109333,-2.451747359448579,1.7629571777506388,3.249200849596385
1.5339101629164476,-2.5174345078636495,1.7954491862466027,3.205113794792009
1.508735817837811,-2.5747868764542305,1.8275003241945227,3.14859172767666
1.4829879490732687,-2.624695600663091,1.8589862414712892,3.0804209633380397
1.4567409930666377,-2.6682940163415574,1.8897904511046697,3.001718594771958
1.430058052903222,-2.7068366855936934,1.9198076370523893,2.913769819130358
1.4029896860472852,-2.74158968173167,1.948945335243693,2.81787951619162
1.3755737892299686,-2.7737466712459318,1.977124130405609,2.7152582922205077
1.3478363225175094,-2.8043754552636067,2.004276713327814,2.606949667913868
1.3197925679648734,-2.8343921749481313,2.030346210006953,2.493794836790969
1.291448646215392,-2.8645565536740953,2.0552841583748624,2.3764261359725523
1.262803080678651,-2.8954807745625826,2.0790484197345878,2.2552792834823103
1.2338482729330251,-2.9276456264439914,2.101601212569411,2.1306158328173823
1.2045718166685853,-2.961419262941967,2.1229073708975847,2.0025496234630222
1.1749576240391655,-2.997075596678119,2.142932867132215,1.871073289330783
1.1449868680723843,-3.034810677758175,2.161643600025523,1.7360826931188322
1.1146387612948025,-3.074756321493329,2.1790044269567113,1.5973983996456789
1.0838911980798693,-3.1169908148356362,2.1949784109531683,1.4547840673207761
1.052721289931513,-3.161546839942918,2.209526251626376,1.307962054182123
1.0211058215320838,-3.208416895826579,2.2226058721681974,1.156626723989368
0.989021652573818,-3.257556543470236,2.234172139408091,1.000455990337196
0.9564460871391156,-3.3088857928237183,2.244176699311463,0.8391216144407654
0.9233572292108785,-3.3622889210918934,2.2525679154558707,0.672298713164861
0.8897343399999595,-3.4176129780259488,2.2592909025875194,0.499674859398342
0.8555582102197,-3.4746652048911018,2.264287651181503,0.3209590777113707
0.820811558170789,-3.5332095740131404,2.267497241958617,0.1358909587205812
0.7854794624306576,-3.5929626470309897,2.2688561515458225,-0.05574996336577792
0.7495498359603476,-3.6535889522589238,2.268298651912165,-0.25413450459868225
0.7130139464377584,-3.7146960938982083,2.265757306866178,-0.45937381127928467
0.6758669854987763,-3.7758298264923313,2.261163568753385,-0.6715091227622778
0.6381086872338531,-3.8364693546146373,2.2544484775257625,-0.8905014972049908
0.5997439936877067,-3.8960231473331195,2.2455434625537127,-1.116221764007288
0.5607837622143755,-3.953825585969155,2.23438124491364,-1.348441047789402
0.521245506354684,-4.009134788031613,2.220896834435746,-1.58682228345354
0.4811541584743679,-4.0611319656368705,2.2050286116012106,-1.8309132052703465
0.44054283881799916,-4.108922678853107,2.186719479548507,-2.0801413395290504
0.3994536120294681,-4.151540329171682,2.1659180661532167,-2.3338115545754214
0.3579382087377513,-4.187952202318558,2.1425799506074625,-2.5911067191659116
0.3160586867145657,-4.217068310478711,2.1166688834158034,-2.85109198641992
0.2738880036097786,-4.237753200521729,2.088157963551604,-3.112723154486096
0.2315104716045613,-4.2488407870277145,2.0570307320067434,-3.374859456606962
0.18902206373428415,-4.249152137955271,2.0232821374406735,-3.63628100471444
0.14653054235473145,-4.237515988660943,1.986919327393529,-3.8957109556017495
0.10415538246812203,-4.212791589339576,1.9479622178375116,-4.151842291511742
0.06202746657472627,-4.173893305225693,1.9064437949223942,-4.4033689124379745
0.020288533522469336,-4.119816192760419,1.8624101057980145,-4.649020530705023
-0.020909628405134856,-4.049661575344312,1.8159199004909643,-4.887600645759677
-0.061406244158577976,-3.9626614498271278,1.7670438940333675,-5.118026667513699
-0.10103285865684924,-3.8582003849020863,1.7158636273582304,-5.339371063649573
-0.1396148625058701,-3.7358334456287783,1.6624699167217347,-5.550902250069719
-0.17697319696215788,-3.59529861892945,1.6069608942210376,-5.752123851115046
-0.2129261831514524,-3.4365222482351716,1.549439655709887,-5.9428109595604415
-0.2472914056338041,-3.2596161318130594,1.4900115461142827,-6.123042158892368
-0.27988756695193473,-3.0648652074392135,1.428781124525359,-6.293226359299355
-0.3105362190263269,-2.8527051269314843,1.3658488609323653,-6.4541239576435885
-0.3390632702956417,-2.6236894872412106,1.3013076213559294,-6.606862452923629
-0.3653001651680538,-2.3784469802179573,1.235238996826693,-6.752947399525771
-0.3890846349702334,-2.1176291893850783,1.1677095228314354,-6.894270402046932
-0.41026092686408416,-1.8418501424580827,1.098766818810966,-7.033116664441336
-0.428679428288665,-1.5516189954713722,1.0284356521665527,-7.172175293729013
-0.4441956182433787,-1.247267415277413,0.9567138992292626,-7.314555974470943
-0.45666829239615286,-0.9288734980268389,0.8835683394845533,-7.463815534221144
-0.46595702737642125,-0.5961847841379242,0.8089301841423419,-7.623996860580887
-0.4719188752178005,-0.2485448833129904,0.732690215536533,-7.799679679065557
-0.4744043240509304,0.11516701875345031,0.6546934187458775,-7.99603589480286
-0.47325265386339593,0.4965637597562395,0.5747330597978488,-8.218867394287779
-0.4682870162658335,0.8977017745538396,0.49254438585497107,-8.474572767457438
-0.45930999852029514,1.320865370738442,0.4077986581803967,-8.769923900111566
-0.4461013448129107,1.7679956391880916,0.32009941917928103,-9.111400609377315
-0.4284213884210298,2.2393925101478023,0.22898541308550788,-9.503576961876883
-0.40602746331955175,2.7310140504612654,0.13394964346673904,-9.945623701836336
-0.3787173228149391,3.229361272200928,0.034493406448375674,-10.42449919898416
-0.3464237100929298,3.703233909311704,-0.06975158554146593,-10.903745572054818
-0.3093913709998128,4.094792206484765,-0.17878904126201411,-11.311043145292913
-0.26844344893496513,4.321611440613199,-0.29189947271494326,-11.540338888581084
-0.22522733452883315,4.309794473939967,-0.40730286160075413,-11.495943207978705
-0.18212938978943347,4.051482019087056,-0.5222622936805412,-11.169446744649806
-0.1416145695985629,3.6209829956000714,-0.6339567611270392,-10.659963510617287
-0.10540473964256217,3.1180977908751553,-0.7405563962332121,-10.096780869431695
-0.07422376173381062,2.6122723518513133,-0.8415242049275291,-9.565796407498413
-0.04810103821529749,2.1349275291979644,-0.9371821690025133,-9.10176340767494
-0.026751762923317844,1.694545833951983,-1.0281998030792627,-8.709898134978403
-0.009806304583798015,1.2897289538399481,-1.1152987844290467,-8.383558633674712
0.003090984954601467,0.9159228401899637,-1.1991343707657938,-8.112960226817297
0.012250213356501104,0.5681941580499971,-1.2802639730339667,-7.888544769630576
0.017932154937001073,0.24219501407544936,-1.3591494207302723,-7.70199419656108
0.020354105077755567,-0.06559897564125927,-1.4361693626958831,-7.546353297701348
0.019698115321342975,-0.35791305320738953,-1.5116328956728966,-7.415866388174054
0.01611898478926908,-0.6367768258746713,-1.5857915595546372,-7.3057552431260735
0.009751216530522366,-0.9036394610777041,-1.658849111985898,-7.212015258667512
0.0007148219197453242,-1.1594747492177802,-1.730969264572573,-7.131250148129849
-0.010879925572432477,-1.404871374178682,-1.8022817660538715,-7.06054558513123
-0.0249286393142193,-1.6401096042690166,-1.8728872219051838,-6.997376197766843
-0.04132973535690947,-1.8652271175035096,-1.942860983882852,-6.939539286936585
-0.05998200653194456,-2.080076564725557,-2.012256376752218,-6.885109192174775
-0.08078277217920013,-2.284376845388307,-2.0811074686739657,-6.8324071260249575
-0.1036265406330832,-2.477759352630863,-2.1494315399342154,-6.77998214427493
-0.12840413415939184,-2.659809802868207,-2.2172313613769647,-6.726599629334965
-0.1550022321880739,-2.8301057639639993,-2.2844973576703143,-6.671234260238562
-0.1833032898277139,-2.9882496571811394,-2.3512097002726997,-6.61306497311954
-0.2131857863995253,-3.133896833437826,-2.417340350003895,-6.551469921618614
-0.24452475473390356,-3.266778302036401,-2.482855049220081,-6.486019950056707
-0.27719253775426755,-3.3867177959921815,-2.5477152487206483,-6.416469595532533
-0.3110597157141894,-3.4936430581380247,-2.6118799446759735,-6.342745123460788
-0.34599614629556963,-3.587591485361032,-2.6753073959105813,-6.2649295489381585
-0.38187206114917993,-3.668710532069897,-2.7379566913999627,-6.183244975284615
-0.4185591664698789,-3.737253509807879,-2.7997891411528086,-6.09803286718632
-0.4559317015679577,-3.7935715983854683,-2.860769469824672,-6.009733055033031
-0.4938674175518124,-3.838102987768914,-2.9208668003750025,-5.918862337891547
-0.5322484474295015,-3.8713600949191824,-2.980055423753918,-5.825993525993391
-0.5709620483786934,-3.8939157529018837,-3.038315359013852,-5.7317356600782094
-0.6099012059077122,-3.9063891661259356,-3.095632715614634,-5.636715990174796
-0.6489650975689716,-3.909432285000023,-3.151999875516382,-5.541564116987984
-0.6880594204189718,-3.9037170955861096,-3.207415516686262,-5.446898518590752
-0.727096591374833,-3.889924162504004,-3.2618845018721694,-5.353315521736675
-0.765995832999873,-3.8687326197164666,-3.315417657089536,-5.261380642453582
-0.8046831591970376,-3.8408116823794236,-3.368031463514072,-5.171622120028083
-0.8430912760208318,-3.80681365759986,-3.4197476847143524,-5.084526402229592
-0.8811594125968304,-3.767368362929852,-3.4705929487366483,-5.000535304158178
-0.918833096226129,-3.7230788163693296,-3.52059830177823,-4.920044552806793
-0.9560638843898223,-3.674518036679843,-3.569798747306298,-4.843403437879082
-0.9928090647566207,-3.622226783468951,-3.618232781685089,-4.770915310362738
-1.02903133259131,-3.566712068418438,-3.6659419347887163,-4.702838698403171
-1.0646984532754944,-3.508446278336891,-3.712970321772748,-4.639388840848609
-1.0997829160588632,-3.4478667642740284,-3.759364210181234,-4.580739469321288
-1.1342615837016035,-3.385375766367259,-3.8051716048744466,-4.527024697770486
-1.168115341365276,-3.3213405597481755,-3.8504418518521515,-4.478340903049256
-1.2013287469627578,-3.2560937216841794,-3.895225260882644,-4.434748500697551
-1.2338896841795997,-3.1899334336309253,-3.9395727458896195,-4.396273536888058
-1.2657890185159089,-3.1231237438677844,-3.9835354812585,-4.362909030821692
-1.2970202559545867,-3.055894727006341,-4.027164571566717,-4.334616012395562
-1.32757920322465,-2.988442486234652,-4.070510731690672,-4.3113242084992445
-1.3574636280869965,-2.920928953179815,-4.113623973775664,-4.2929323387163
-1.3866729176187946,-2.8534814493607916,-4.156553297162827,-4.2793079884932785
-1.4152077321124026,-2.7861919831032083,-4.19934637704776,-4.27028703605566
-1.4430696519434347,-2.719116267354451,-4.242049247408317,-4.265672619678299
-1.4702608146169793,-2.6522724580417663,-4.284705973605099,-4.2652336456675
-1.496783539197397,-2.58563963053324,-4.327358310061775,-4.2687028560347855
-1.5226399355027294,-2.519156034537512,-4.3700453386221225,-4.2757744999138225
-1.5478314958481045,-2.452717196558129,-4.41280308362126,-4.286101685923829
-1.5723586678136858,-2.386173974815191,-4.455664100480499,-4.299293535462521
-1.5962204075618378,-2.3193307150258318,-4.498657035835124,-4.314912310534376
-1.6194137147120962,-2.2519437065932717,-4.541806158940467,-4.332470754681062
-1.641933151778029,-2.183720196477188,-4.585130866487278,-4.351429961101395
-1.6637703537428008,-2.1143182795153463,-4.628645166098292,-4.371198165345944
-1.6849135365379542,-2.0433480441245107,-4.672357147751751,-4.391130945392137
-1.7053470169791993,-1.970374403059634,-4.716268457205673,-4.410533390021955
-1.7250507610097956,-1.8949220687969246,-4.760373791105892,-4.428664853318009
-1.743999981697765,-1.8164831273267046,-4.804660439639072,-4.444746930171038
-1.762164812971032,-1.7345276054487642,-4.849107908940782,-4.457975242511251
-1.7795100890255195,-1.648517297521988,-4.893687661365894,-4.467535494638648
-1.7959952620007393,-1.5579229039283737,-4.938363016312281,-4.472624017580381
-1.811574491040023,-1.4622442298477403,-4.983089256488085,-4.472472665338073
-1.8261969333385004,-1.3610328087196497,-5.027813983141465,-4.466377456093371
-1.8398072614256968,-1.2539158798616947,-5.072477757702399,-4.453729799923342
-1.8523464202243138,-1.1406202172533348,-5.117015055701632,-4.43404858218801
-1.8637526223968472,-1.0209939502683292,-5.161355541523512,-4.407010867522964
-1.8739625618995306,-0.8950243215116856,-5.205425650198741,-4.3724786596428515
-1.8829128051146475,-0.7628493692077553,-5.249150436795169,-4.330519099882638
-1.8905412988067252,-0.6247618498687086,-5.292455627793996,-4.281415784712666
-1.8967889173054122,-0.48120432948872083,-5.335269785641122,-4.225669543822177
-1.9016009606002995,-0.33275520555797533,-5.377526481079344,-4.163987985932829
-1.9049285126558793,-0.18010635897481275,-5.419166360938672,-4.097264257282565
-1.9067295762456273,-0.024034022020683776,-5.4601390035114985,-4.026546587531512
-1.9069699164658342,0.1346348651030851,-5.5004044693868135,-3.9530011320565746
-1.9056235678148035,0.2950581638536046,-5.539934480707379,-3.8778712084069387
-1.9026729861762675,0.45641325621241713,-5.578713192791449,-3.8024361911265085
-1.8981088536141433,0.6179286408291232,-5.6167375547027145,-3.7279730828093824
-1.891929567205852,0.7789106500804084,-5.654017285530808,-3.65572320578872
-1.884140460705048,0.9387642388067858,-5.690574517588695,-3.5868656911087182
-1.8747528183169802,1.0970075118607607,-5.726443174499782,-3.522498623500172
-1.8637827431983724,1.2532802838245665,-5.761668160734784,-3.4636279568757793
-1.8512499403601268,1.4073474383461055,-5.796304440303541,-3.411163728636391
-1.8371764659766658,1.559098154365388,-5.830416077589906,-3.3659227119826727
-1.821585484433012,1.7085422029595756,-5.864075304709733,-3.3286364533615314
-1.8045000624034162,1.8558045240247498,-5.897361669243348,-3.2999636199998528
-1.7859420171631688,2.0011192084845715,-5.930361305443347,-3.2805056895847406
-1.765930825078323,2.144823881111119,-5.963166362339194,-3.270825207959089
-1.7444825862672118,2.287355337297134,-5.995874614418785,-3.271466084421782
-1.7216090328942404,2.429247161556385,-6.028589275263003,-3.282975660781981
-1.6973165612786765,2.5711299647607166,-6.061419031870822,-3.3059285632209416
-1.6716052616310693,2.7137348323280985,-6.0944783175030315,-3.340952618102667
-1.6444679133077882,2.8579005821043357,-6.127887843684058,-3.3887573837459626
-1.6158889074867449,3.004585488988562,-6.161775417521517,-3.450166122479183
-1.5858430525968592,3.1548842381791555,-6.196277078746309,-3.5261523112708284
-1.5542942102150676,3.310051004991991,-6.231538601859017,-3.6178820533576204
-1.5211937001651477,3.4715296901978303,-6.267717422392593,-3.726763966612761
-1.4864784032631693,3.640992383746439,-6.304985062058721,-3.8545081806336037
-1.4500684794257048,3.8203869064348868,-6.343530143865057,-4.0031957277724315
-1.411864610361356,4.01199339952415,-6.383562101142782,-4.175358322553086
-1.3717446763661143,4.218487565872342,-6.425315684368313,-4.3740651264622725
-1.3295598007073908,4.443002552523294,-6.469056335632935,-4.603005122120292
-1.2851297751821578,4.68916890131503,-6.515086386854138,-4.866535976204612
-1.2382380861690074,4.961084795527488,-6.563751746616185,-5.16963196511252
-1.1886272382137326,5.263111504820803,-6.61544806626731,-5.517582914595912
-1.1359961231655247,5.599272317744938,-6.670623895413269,-5.915132189568471
-1.0800033999880754,5.971811460194257,-6.729775217308953,-6.36443001556465
-1.0202852853861328,6.378109062659037,-6.793419517464599,-6.860671561780981
-0.9565041947595425,6.804805383180039,-6.862026233082409,-7.3838063724514615
-0.8884561409277422,7.21863145348967,-6.9358642968069235,-7.885609149452366
-0.8162698263928455,7.557974708712023,-7.0147203883014475,-8.277771876081282
-0.7406900793057253,7.740406148229059,-7.09749810706226,-8.44242864263442
-0.6632860178234347,7.705400074963931,-7.1819223934886045,-8.292176100546238
-0.5862320170737954,7.469266353441981,-7.2648441544940665,-7.847361704324158
-0.5115393535393755,7.118954544525657,-7.343317771537308,-7.227699462655105
-0.44034980809411894,6.745563903616993,-7.415594766163859,-6.559316109126436
-0.37289416905794903,6.402412692931963,-7.481187927255124,-5.916016302458381
-0.3088700421286294,6.10888269235701,-7.540348090279707,-5.324466316882688
-0.2477812152050593,5.866795757349003,-7.593592753448534,-4.7869100162151925
-0.18911325763156928,5.671410466849444,-7.641461853610686,-4.296443692170625
-0.13239915296307483,5.516449095283703,-7.684426290532392,-3.8440172676264774
-0.07723466201023779,5.395953398320934,-7.722866463208657,-3.4210446274109647
-0.023275128027028448,5.304802589250389,-7.757076909482767,-3.020165322792723
0.029772897865475448,5.238735899162769,-7.787278562710695,-2.6353247876946444
0.08216025685710314,5.194219074894401,-7.8136318105876414,-2.2616426709299993
0.13410244760604717,5.168281065707603,-7.8362482372969415,-1.8952432681340747
0.1857852582631232,5.158363405672082,-7.855200669978283,-1.5331054288040105
0.23736889231984404,5.162193645519851,-7.870531724266323,-1.1729453386918118
0.28899082877504256,5.177683567827325,-7.882261177653241,-0.8131299207428349
0.3407676644533158,5.202850035110473,-7.8903924768606695,-0.45261367574853667
0.39279616480442053,5.235756135088808,-7.894918613618155,-0.09089080522595228
0.4451537261553086,5.274470825201632,-7.895827521670415,0.27204509717614933
0.49789843440732495,5.317045768601784,-7.893107070698654,0.6357404832589573
0.5510688920933428,5.36150821231614,-7.8867496658660645,0.9993257505327848
0.6046839742165042,5.405868519647381,-7.876756408360737,1.3615672634471836
0.658742659412978,5.448140391450908,-7.863140735726264,1.7209292063863346
0.7132240633274871,5.486371039667194,-7.845931443662401,2.0756448836807633
0.768087773724159,5.5186778142126265,-7.825174994825594,2.423795061790803
0.8232745518662853,5.543287251216775,-7.800937044207686,2.763389291570214
0.8787074243784531,5.55857239222659,-7.773303151291984,3.09244513435395
0.934293148300719,5.563084620386333,-7.7423786999484445,3.40906003460713
0.9899239945045823,5.5555771531140286,-7.708288099602373,3.711471268966536
1.0454797660357227,5.535018586729923,-7.671173386912708,3.998100815164539
1.100829951903022,5.5005962901105265,-7.631192378761062,4.26758383842554
1.1558359148041273,5.451710750554653,-7.588516540376807,4.518781430510947
1.210353022309674,5.387962979838681,-7.543328726071697,4.750779918357261
1.2642326521080607,5.309137664134293,-7.495820926888125,4.962880236667475
1.3173240287494037,5.215184853515378,-7.44619212452145,5.154581411720815
1.3694758772845574,5.106202682937366,-7.394646310404242,5.325562138640245
1.4205379041139312,4.982422999822409,-7.341390689017839,5.47566385432164
1.4703621341121553,4.844200971278976,-7.286634050474622,5.604877770270938
1.518804143824945,4.692008883823653,-7.230585272771913,5.71333720624183
1.5657242326631817,4.526433542310699,-7.173451900709495,5.801315417985403
1.6109885680862888,4.348176013124057,-7.115438746529641,5.869228076652826
1.6544703282175293,4.158052007016717,-7.056746465763113,5.917638739668372
1.6960508482876964,3.956991002956937,-6.997570078366429,5.947265128587535
1.7356207583172658,3.746032293490736,-6.938097427080554,5.958983841496653
1.7730810812521731,3.526316472169563,-6.878507588665587,5.953831282987779
