th1 (rad),w1 (rad/s),th2 (rad),w2 (rad/s),a1 (rad/s^2),a2 (rad/s^2)
5.837516525166688,-1.8111128973858528,5.587155249621765,1.58888352773316,0.8935352796508853,6.230514902694818
5.819405396192829,-1.802177544589344,5.603044084899096,1.6511886767601083,1.4165855712380213,5.476927791038527
5.801383620746936,-1.7880116888769637,5.619555971666697,1.7059579546704935,1.9853395766450037,4.662095217507387
5.783503503858166,-1.7681582931105138,5.636615551213402,1.7525789068455673,2.5930664260608163,3.7964663750795866
5.765821920927062,-1.7422276288499057,5.654141340281858,1.790543570596363,3.23023579936227,2.894219598345364
5.748399644638562,-1.7099252708562829,5.6720467759878215,1.8194857665798168,3.884906284906898,1.9726820925621
5.73130039193,-1.671076208007214,5.69024163365362,1.8392125875054377,4.543444167443612,1.0512945503936153
5.714589629849928,-1.6256417663327778,5.7086337595286745,1.8497255330093738,5.191505575661832,0.15021835635832365
5.6983332121866,-1.5737267105761594,5.727131014858768,1.8512277165729571,5.815151111178003,-0.7112285240189811
5.6825959450808385,-1.5155751994643794,5.745643292024498,1.8441154313327672,6.4019247417677745,-1.5160702452531258
5.667440193086195,-1.4515559520467016,5.764084446337826,1.828954728880236,6.941732434088225,-2.250876860482813
5.652924633565728,-1.3821386277058194,5.782373993626628,1.8064459602754077,7.427400868281971,-2.906508437249441
5.63910324728867,-1.3078646190229997,5.800438453229382,1.7773808759029133,7.854867682803759,-3.478335711890437
5.62602460109844,-1.229315942194962,5.818212261988411,1.7425975187840088,8.223028852931659,-3.9659778292574823
5.61373144167649,-1.1470856536656453,5.835638237176251,1.702937740491434,8.53332483597573,-4.372675795694883
5.602260585139833,-1.061752405305888,5.852667614581166,1.6592109825344852,8.789173732868456,-4.70445651606484
5.591643061086774,-0.9738606679772034,5.86925972440651,1.6121664173738368,8.995357450491976,-4.969237790495943
5.5819044544070024,-0.8839070934722836,5.885381388580249,1.5624740394688774,9.157444577958042,-5.175992183807288
5.573065383472279,-0.7923326476927032,5.901006128974937,1.5107141176308045,9.281302981275118,-5.334043678050151
5.565142056995352,-0.699519617879952,5.9161132701512456,1.457373680850303,9.372725611623146,-5.452529061476167
5.558146860816553,-0.6057923617637205,5.930687006959748,1.4028483902355413,9.43717030844446,-5.54002390989842
5.552088937198916,-0.511420658679276,5.944715490862103,1.347448151136557,9.479600147623048,-5.604313059676068
5.546974730612123,-0.41662465720304553,5.958189972373469,1.2914050205397964,9.504404211768414,-5.652276260922563
5.542808484040093,-0.3215806150853614,5.971104022578867,1.2348822579305707,9.51537745168923,-5.689858219426098
5.53959267788924,-0.22642684056846907,5.9834528451581726,1.1779836757363098,9.515740359700764,-5.7220953365466025
5.537328409483555,-0.13126943697146143,5.995232681915535,1.1207627223708438,9.508182712897142,-5.7531766186662905
5.53601571511384,-0.036187609842490004,6.0064403091392435,1.0632309561841808,9.494919481143613,-5.786521773378271
5.535653839015415,0.05876158496894614,6.017072618701086,1.0053657384503982,9.47775046632313,-5.824864505041038
5.536241454865105,0.15353908963217744,6.02712627608559,0.9471170933999878,9.458118060615373,-5.870333070820815
5.537776845761427,0.24812027023833116,6.03659744701959,0.8884137626917797,9.437159629968024,-5.924523192832425
5.54025804846381,0.3424918665380114,6.045481584646508,0.8291685307634555,9.415752513435985,-5.988560545862767
5.5436829671291905,0.43664939167237127,6.053773269954142,0.7692829253048279,9.394550596421514,-6.063151422986639
5.548049461045914,0.5305948976365864,6.06146609920719,0.7086514110749615,9.374011988570127,-6.14862099980923
5.55335541002228,0.6243350175222877,6.06855261331794,0.6471652010768693,9.354417623582696,-6.244939027915048
5.5595987601975025,0.7178791937581147,6.075024265328708,0.5847158107977187,9.335880686316546,-6.35173291547417
5.5667775521350835,0.8112380006212802,6.080871423436686,0.521198481642977,9.318346730349877,-6.468288095701983
5.574889932141296,0.904421467924779,6.086083408253115,0.4565156006859572,9.301584229461316,-6.59353541808471
5.583934146820544,0.9974373102193921,6.090648564259975,0.3905802465051101,9.285165152771013,-6.726025086042171
5.5939085199227385,1.090288961747102,6.094554366725026,0.3233199956446884,9.268435006722255,-6.863886467836751
5.6048114095402095,1.1829733118143246,6.097787566681473,0.2546811309663209,9.250471693813475,-7.0047729922965045
5.616641142658353,1.2754780287524594,6.100334377991136,0.18463340104335585,9.230032557483465,-7.145791393681661
5.629395922945878,1.367778354327294,6.10218071200157,0.11317548710653924,9.205489196792106,-7.283414909310619
5.643073706489151,1.4598332462952153,6.1033124668726355,0.04034133801343305,9.174750157930095,-7.413380823891299
5.657672038952103,1.5515807478745163,6.10371588025277,-0.033792470225479945,9.135172598259526,-7.530574219202136
5.673187846430848,1.6429324738571116,6.103377955550514,-0.10909821241750131,9.083465675842286,-7.62890221607446
5.689617171169418,1.7337671306155344,6.102286973426339,-0.1853872345782459,9.015590988854003,-7.701166734728711
5.706954842475573,1.8239230405040745,6.100433101080556,-0.26239890192553306,8.926669135952555,-7.738949214953901
5.7251940728806145,1.9131897318636,6.0978091120613005,-0.33978839407507205,8.810906600136468,-7.7325281162839286
5.744325970199251,2.0012987978649646,6.09441122812055,-0.4171136752379113,8.66156370137321,-7.670859379193711
5.7643389581779,2.0879144348786967,6.090240091368171,-0.49382226902984844,8.470991938711105,-7.541660804765638
5.785218102526687,2.1726243542658077,6.085301868677873,-0.5692388770775049,8.230776543702827,-7.331651889022772
5.806944346069345,2.254932119702836,6.079609479907098,-0.6425553959677326,7.932025271177031,-7.0270078197628365
5.829493667266374,2.334252372414606,6.07318392594742,-0.712825474165361,7.565843712121184,-6.61408486599583
5.85283619099052,2.409910809535818,6.066055671205767,-0.7789663228253193,7.124025722991873,-6.080457099028966
5.876935299085878,2.4811510667657366,6.0582660079775135,-0.839770893815609,6.599959501530176,-5.416263539682932
5.9017468097535355,2.547150661781038,6.049868299039358,-0.8939335292124383,5.989701868370829,-4.615795423678836
5.927218316371346,2.6070476804647464,6.040928963747233,-0.9400914834492267,5.293107601022817,-3.679158485893557
5.953288793175993,2.659978756474975,6.031528048912741,-0.9768830683081622,4.514829359134184,-2.613742442163911
5.9798885807407425,2.7051270500663165,6.0217592182296595,-1.0030204927298012,3.6649509823221322,-1.4351538179997603
6.006939851241405,2.7417765598895376,6.011729013302362,-1.0173720309097989,2.759014638435639,-0.1672646810431833
6.034357616840301,2.769366706273894,6.001555292993264,-1.0190446777202307,1.817277037848112,1.1588631128457911
6.062051283903039,2.787539476652375,5.991364846216062,-1.0074560465917728,0.8631841226150985,2.5071971139220337
6.0899266786695625,2.796171317878526,5.981290285750144,-0.9823840754525525,-0.07874820382081027,3.83983049410568
6.117888391848347,2.795383835840318,5.9714664449956185,-0.9439857705114957,-0.9852857769039075,5.1204369113272845
6.145842230206751,2.785530978071279,5.962026587290503,-0.8927814013982228,-1.8366208637002963,6.317450256990783
6.173697539987463,2.767164769434276,5.953098773276521,-0.829606898828315,-2.6179252242211715,7.406410078701857
6.201369187681806,2.7409855171920645,5.944802704288238,-0.7555427980412964,-3.3200932281409274,8.371148879873756
6.228779042853726,2.707784584910655,5.937247276307825,-0.6718313092425588,-3.9396665058323306,9.203797441770966
6.255856888702833,2.6683879198523317,5.930528963215399,-0.5797933348248492,-4.478107561435012,9.903838327575018
6.282540767901356,2.6236068442379814,5.92473102986715,-0.480754951549099,-4.940682761172173,10.476574768378587
6.3087768363437355,2.5742000166262597,5.919923480351659,-0.3759892038653131,-5.335219153143441,10.931392351945366
6.334518836509998,2.520847825094825,5.9161635883130055,-0.2666752803458594,-5.670941481436805,11.280111487212777
6.3597273147609465,2.4641384102804573,5.913496835509547,-0.15387416547373164,-5.957513165092213,11.53561267397473
6.384368698863751,2.404563278629535,5.9119580938548095,-0.038518038733984336,-6.2043282862010685,11.71080754588989
6.408414331650047,2.3425199957675242,5.911572913467469,0.07859003672491457,-6.420046524794883,11.81794937076093
6.4318395316077215,2.2783195305195756,5.912358813834718,0.19676953043252388,-6.61233228457323,11.868231688983386
6.454622726912917,2.212196207673843,5.914326509139043,0.31545184732235776,-6.78774826351864,11.871606763865096
6.476744688989656,2.144318725038657,5.917481027612267,0.4341679149610087,-6.951755357216844,11.83675668014587
6.498187876240042,2.0748011714664885,5.921822706761877,0.5525354817624674,-7.10877870596189,11.771160345957073
6.518935887954707,2.0037133844068697,5.927348061579502,0.6702470852220381,-7.262309498977555,11.68121305318238
6.538973021798776,1.9310902894170943,5.934050532431722,0.787059215753862,-7.415021330450619,11.572368023980756
6.5582839246929465,1.856940076112588,5.9419211245892605,0.9027828959936695,-7.5688873749015855,11.449279902675588
6.576853325454072,1.7812512023635723,5.950948953549197,1.0172756950204254,-7.725290184368498,11.315938052666295
6.5946658374777085,1.7039983005198873,5.961121710499402,1.1304350755470882,-7.885119706407457,11.175783019873966
6.611705820482907,1.6251471034558127,5.972426061254873,1.2421929057458279,-8.048857535165512,11.031803094864724
6.627957291517466,1.5446585281041576,5.984847990312331,1.3525109366944752,-8.216646801612711,10.886610036735181
6.643403876798507,1.4624920600880305,5.9983730996792755,1.461377037061827,-8.388347791765932,10.742494134662882
6.658028797399387,1.378608582170371,6.012986870049894,1.568801978408456,-8.563579588656458,10.601459201671164
6.671814883221091,1.2929727862838065,6.028674889833979,1.6748165704251676,-8.741747932074656,10.46523805091135
6.6847446110839295,1.20555530696306,6.0454230555382305,1.7794689509342811,-8.922059192645532,10.335288654175688
6.69680016415356,1.1163347150366048,6.063217745047573,1.882821837476038,-9.10351993785932,10.21277062846946
6.707963511303926,1.0252995156580116,6.082045963422333,1.9849495437607325,-9.284921078322498,10.098501009683313
6.7182165064605055,0.9324503048747866,6.10189545885994,2.0859345538575655,-9.46480506517678,9.99288751070777
6.727541009509253,0.8378022542230188,6.122754804398515,2.1858634289646433,-9.64141411377812,9.89583669168293
6.735919032051483,0.7413881130852376,6.144613438688162,2.2848217958814727,-9.812617029017167,9.806633793771683
6.743332913182336,0.6432619427950659,6.167461656646976,2.3828881338191894,-9.975812027675326,9.723790573411955
6.7497655326102866,0.5435038225183126,6.191290537985168,2.480126039553309,-10.12780319683984,9.644857601260261
6.75520057083547,0.44222579054991423,6.216091798380701,2.5765746155659115,-10.264649219518066,9.566198607624063
6.759622828740969,0.33957929835473355,6.2418575445363595,2.672236601642152,-10.38148523302048,9.482727250363164
6.763018621724517,0.23576444602452873,6.268579910552781,2.7670638741457836,-10.47232287057681,9.387612142898432
6.765376266184762,0.13104121731876062,6.296250549294238,2.860939995574768,-10.52984061090766,9.271965433930584
6.766686678357949,0.02574281120968401,6.324859949249986,2.9536596499140737,-10.54518762534621,9.1245452503735
6.766944106470047,-0.0797090650437781,6.354396545749127,3.044905102417809,-10.507840376501733,8.931524382682605
6.766147015819609,-0.18478746880879543,6.384845596773305,3.1342203462446347,-10.405572605266267,8.676407281766375
6.764299141131521,-0.2888431948614581,6.416187800235751,3.2209844190622987,-10.224624544405211,8.34021285926024
6.761410709182907,-0.3910894403055102,6.448397644426374,3.304386547654901,-9.950181132304404,7.902074925772212
6.757499814779852,-0.4905912516285542,6.481441509902924,3.383407296912623,-9.567280851631509,7.340430606497754
6.752593902263566,-0.5862640601448693,6.51527558287205,3.4568116029776004,-9.062258612902959,6.634944966832675
6.746731261662117,-0.6768866462738989,6.549843698901826,3.523161052645927,-8.42475451161716,5.769224899754875
6.739962395199378,-0.7611341913900705,6.5850753094282855,3.580853301643476,-7.650175329431856,4.734178800035675
6.732351053285478,-0.8376359446843891,6.62088384244472,3.6281950896438326,-6.742278976097494,3.531581806720069
6.723974693838634,-0.905058734445364,6.657165793341159,3.6635109077110335,-5.715310999078042,2.1770733604142776
6.7149241064941805,-0.9622118444361444,6.693800902418269,3.6852816413151763,-4.5949629896811945,0.7015899029830733
6.705301988049819,-1.0081614743329563,6.730653718831421,3.692297540345007,-3.4174850421889063,-0.8496864966690041
6.69522037330649,-1.0423363247548454,6.767576694234871,3.683800675378317,-2.22666201040142,-2.4212727709270316
6.684797010058941,-1.0646029448588596,6.804414700988654,3.6595879476690465,-1.069000155732239,-3.9537649297477384
6.674150980610352,-1.075292946416182,6.841010580465345,3.620050298371569,0.011877536647118095,-5.391306247393737
6.66339805114619,-1.075174171049711,6.877211083449061,3.566137235897632,0.9802905279577465,-6.688333609724351
6.652646309435693,-1.0653712657701335,6.912872455808038,3.4992538998003884,1.8118518073622003,-7.814029593234488
6.641992596777992,-1.0472527476965114,6.947864994806041,3.4211136038680436,2.494554255635989,-8.75373310842165
6.631520069301026,-1.0223072051401516,6.982076130844722,3.333576272783827,3.027761722059597,-9.507547144889186
6.621296997249625,-0.9920295879195556,7.01541189357256,3.238500801334935,3.4197926239544367,-10.087081043387153
6.611376701370429,-0.9578316616800113,7.04779690158591,3.1376299909010634,3.684942394211595,-10.511471931307938
6.6017983847536295,-0.9209822377378953,7.07917320149492,3.032515271587984,3.8406459224799123,-10.80362565737045
6.592588562376251,-0.8825757785130962,7.1094983542108,2.92447901501428,3.905195483120978,-10.9872263239586
6.583762804591119,-0.8435238236818864,7.138743144360943,2.814606751774694,3.8961536624433912,-11.084689684982868
6.5753275663543,-0.8045622870574525,7.166889211878689,2.7037598549248654,3.829412364879898,-11.115983548695642
6.567281943483725,-0.7662681634086534,7.1939268104279375,2.592600019437909,3.7187582469481666,-11.098119721500035
6.5596192618496385,-0.7290805809391718,7.219852810622316,2.4816188222229085,3.575786292342051,-11.045100726063342
6.552328456040247,-0.6933227180157513,7.244668998844546,2.3711678149622752,3.4100239478326535,-10.96813540508611
6.545395228860089,-0.6592224785374248,7.268380676994169,2.261486460911414,3.2291629984106134,-10.875986221502046
6.5388030040747145,-0.6269308485533186,7.290995541603283,2.1527265986963937,3.039330551731403,-10.77535802653742
6.532533695589182,-0.5965375430360046,7.312522807590247,2.0449730184310195,2.8453579244659504,-10.671275226009115
6.526568320158821,-0.5680839637913451,7.332972537774557,1.9382602661709283,2.6510256703011486,-10.56742029428889
6.520887480520908,-0.5415737070883336,7.352355140436266,1.8325860632280393,2.4592755466006166,-10.46642314256411
6.515471743450024,-0.5169809516223275,7.370681001068546,1.7279218318023981,2.2723876437840858,-10.37010045024017
6.510301933933801,-0.49425707518448664,7.387960219386571,1.6242208272999965,2.092124860037307,-10.279649027324604
6.505359363181956,-0.47333582658411355,7.404202427659571,1.5214243370267504,1.9198486899465685,-10.195799368308014
6.500626004916115,-0.45413733968464787,7.419416671029838,1.4194663433436703,1.7566108167384629,-10.118936013856981
6.496084631519269,-0.43657123151726324,7.433611334463275,1.3182769832051004,1.6032248437823433,-10.049190944531334
6.491718919204096,-0.4205389830794398,7.446794104295326,1.217785073759787,1.4603220320062051,-9.986515465509088
6.4875135293733015,-0.40593576275937776,7.458971955032924,1.1179199191046962,1.328394332666592,-9.930735170350154
6.4834541717457075,-0.3926518194327118,7.470151154223971,1.0186125674011948,1.207827429732377,-9.881591733584095
6.47952765355138,-0.38057354513538805,7.480337279897983,0.9197966500653538,1.098925985463075,-9.838774538750432
6.475721918100026,-0.3695842852807573,7.489535246398636,0.8214089046778495,1.0019328362687547,-9.801944520488206
6.472026075247219,-0.3595649569180698,7.497749335445414,0.7233894594729675,0.9170435158653544,-9.770752084507118
6.468430425678038,-0.3503945217594162,7.5049832300401444,0.6256819386278963,0.8444171829048354,-9.744850555894661
6.464926480460444,-0.3419503499303679,7.511240049426424,0.5282334330689498,0.7841847911443645,-9.723906278865996
6.46150697696114,-0.3341085020189242,7.516522383757113,0.4309943702802898,0.7364551516608664,-9.707606234294888
6.4581658919409515,-0.3267439505023156,7.5208323274599165,0.3339183079373409,0.7013193891238965,-9.69566384118953
6.454898452435929,-0.31973075661107664,7.52417151053929,0.2369616695254456,0.6788541794199557,-9.687823452743338
6.451701144869818,-0.31294221481687706,7.526541127234545,0.1400834349980122,0.669124067011849,-9.683863936827159
6.44857172272165,-0.30625097414675856,7.527941961584525,0.04324479562974062,0.6721830916008464,-9.683601636817087
6.445509212980182,-0.2995291432307501,7.528374409540823,-0.053591220738430256,0.6880759003030343,-9.686892935101438
6.442513921547874,-0.2926483842277197,7.5278384973334385,-0.15046015008944463,0.7168384799108047,-9.69363658342093
6.4395874377055975,-0.2854799994286117,7.526333895832544,-0.24739651592365394,0.7584986108464072,-9.703775917334617
6.436732637711311,-0.2778950133201476,7.523859930673308,-0.3444342750970001,0.8130761176206327,-9.71730103331472
6.43395368757811,-0.2697642521439413,7.520415587922338,-0.44160728543014727,0.8805829678600013,-9.734250973556247
6.431256045056671,-0.2609584224653413,7.515999515068037,-0.5389497951657097,0.9610232513794952,-9.754715933205128
6.4286464608320175,-0.25134818995154634,7.51061001711638,-0.636496954497761,1.0543930505909447,-9.778839475206945
6.426132978932502,-0.24080425944563688,7.504245047571403,-0.7342853492498305,1.1606801919822745,-9.806820707213621
6.423724936338046,-0.22919745752581414,7.4969021940789045,-0.8323535563219667,1.2798638435808527,-9.838916340645868
6.421432961762788,-0.2163988190900056,7.488578658515685,-0.9307427197284254,1.4119138930538295,-9.875442511414088
6.419268973571888,-0.20227968015946732,7.479271231318401,-1.0294971448425663,1.5567900027915853,-9.916776191668164
6.417246176770293,-0.18671178013155146,7.468976259869975,-1.1286649067592478,1.7144401887196885,-9.96335595810389
6.415379058968978,-0.16956737824435458,7.457689610802382,-1.2282984663402867,1.8847987045490697,-10.015681799371317
6.413683385186534,-0.15071939119886388,7.445406626138979,-1.3284552843339998,2.0677829273458097,-10.074313535858685
6.412176191274545,-0.13004156192540578,7.4321220732956395,-1.4291984196925867,2.2632888266941626,-10.139867280094041
6.410875775655291,-0.10740867365846415,7.417830089098714,-1.530597092493527,2.4711844492049195,-10.21300917266911
6.409801688918706,-0.08269682916641496,7.402524118173778,-1.6327271842202182,2.691300650763676,-10.294445370377703
6.408974720627042,-0.05578382265877821,7.3861968463315755,-1.7356716379239954,2.9234180452543486,-10.384906918448312
6.408416882400455,-0.026549642206234722,7.368840129952336,-1.8395207071084785,3.1672487906884657,-10.485127679170255
6.4081513859783925,0.005122845700649935,7.350444922881251,-1.944371983900181,3.422411376708067,-10.595812878964061
6.408202614435399,0.039346959467730605,7.331001203042249,-2.0503301126898217,3.688395980652778,-10.717595030443956
6.408596084030076,0.07623091927425839,7.310497901915351,-2.157506062994261,3.964517186879291,-10.850972932104257
6.409358393222819,0.11587609114305131,7.288922841285409,-2.2660157923153035,4.249849876962131,-10.996228086795748
6.410517154134249,0.15837458991267261,7.266262683362256,-2.375978073183261,4.543142861265316,-11.1533111537542
