th1 (rad),w1 (rad/s),th2 (rad),w2 (rad/s),a1 (rad/s^2),a2 (rad/s^2)
6.07112371994928,-1.040791597348688,3.018103024216607,1.7711735910618132,2.7196044657936373,1.597638868073012
6.060715803975793,-1.0135955526907516,3.035814760127225,1.7871499797425432,3.0031048624500585,2.0676044604010975
6.050579848448885,-0.9835645040662511,3.0536862599246506,1.8078260243465543,3.2655605027116072,2.5105534649932775
6.040744203408223,-0.950908899039135,3.071764520168116,1.832931558996487,3.5044093613315863,2.923879287757662
6.031235114417831,-0.9158648054258192,3.090093835758081,1.8621703518740635,3.7176101533946637,3.3057228989436553
6.022076466363573,-0.8786887038918725,3.1087155392768215,1.8952275808635002,3.903637541821614,3.654961176498465
6.013289579324654,-0.8396523284736563,3.1276678150854567,1.9317771926284848,4.061461394957767,3.971170929378931
6.004893056039918,-0.7990377145240787,3.1469855870117414,1.971488901922274,4.190512734423217,4.254572890490159
5.996902678894677,-0.7571325871798466,3.166700476030964,2.0140346308271755,4.29063932532693,4.505960469451576
5.9893313530228784,-0.7142261939265773,3.186840822339236,2.0590942355216915,4.362053970525528,4.726618209183055
5.982189091083613,-0.670605654221322,3.207431764694453,2.106360417613522,4.405278498418272,4.9182347356361795
5.9754830345414,-0.6265528692371393,3.228495368870588,2.155542764969884,4.421086209259179,5.082814581884806
5.969217505849028,-0.5823420071445475,3.250050796520287,2.206370910788732,4.410445203629012,5.222592671640615
5.9633940857775825,-0.5382375551082574,3.272114505628174,2.2585968375051384,4.374464596972499,5.339954532330442
5.9580117102265,-0.49449290913853244,3.2947004740032257,2.311996382828443,4.3143451641498345,5.437364541108846
5.953066781135115,-0.4513494574970341,3.3178204378315104,2.3663700282395315,4.231335492778872,5.5173037480208045
5.948553286560144,-0.4090361025692454,3.3414841381139055,2.4215430657197397,4.126694283235006,5.582218117148172
5.944462925534451,-0.36776915973689533,3.365699568771103,2.4773652468912215,4.001659038952717,5.634477413796366
5.940785233937082,-0.3277525693473682,3.3904732212400153,2.533710021029185,3.8574210578883172,5.676344464688817
5.937507708243609,-0.289178358768485,3.4158103214503073,2.5904734656760735,3.695106371974417,5.709954137114254
5.934615924655924,-0.25222729504874086,3.441715056107068,2.647573007047216,3.515762086931589,5.737301119770994
5.932093651705437,-0.21706967417942497,3.4681907861775403,2.704946018244926,3.3203474455621143,5.760235432465978
5.929922954963643,-0.18386619972380383,3.4952402463599896,2.762548372569586,3.109728865704315,5.780464528495935
5.928084292966405,-0.1527689110667607,3.5228657300856856,2.8203530178545453,2.8846781793699963,5.799560864556534
5.926556603855738,-0.12392212927306073,3.551069260264231,2.878348626500111,2.645873311472814,5.818973880106348
5.925317382563007,-0.09746339615833259,3.579852746529232,2.9365383653011743,2.3939006745247244,5.84004543420642
5.924342748601424,-0.07352438941308534,3.609218130182244,2.9949388196432385,2.1292586102852207,5.86402787820562
5.9236075047072925,-0.05223180331023313,3.6391675183786765,3.0535790984252946,1.8523612725761682,5.892104085331573
5.92308518667419,-0.03370819058447145,3.669703309362929,3.1125001392786102,1.5635424108959133,5.925408904348925
5.9227481047683455,-0.018072766475512318,3.7008283107557154,3.1717542283220994,1.2630585772131007,5.965051647877588
5.92256737710359,-0.005442180703381311,3.7325458530389364,3.231404744800875,0.9510913349259511,6.012139363154798
5.922512955296556,0.0040687326458782,3.764859900486945,3.291526138432423,0.6277480971424535,6.067800762506107
5.922553642623015,0.010346213617302735,3.7977751618712694,3.3522041460574843,0.293061259794923,6.133210812741913
5.922657104759188,0.013276826215251964,3.8312972033318444,3.4135362541849035,-0.05301467704494548,6.209616098524232
5.92278987302134,0.01274667944480251,3.8654325658736934,3.475632415170146,-0.41060828914362124,6.298361186693041
5.922917339815789,0.008640596553366298,3.9001888900253947,3.5386160270370763,-0.7799389922841382,6.400916329321338
5.9230037457813225,0.000841206630524915,3.9355750502957654,3.60262519033029,-1.1613276770395122,6.518906955735502
5.923012157847627,-0.010772070139870207,3.971601302199068,3.667814259887645,-1.5552105131766063,6.654145520496349
5.9229044371462285,-0.02632417527163627,4.008279444797944,3.7343557150926086,-1.9621562428950736,6.8086663972416295
5.9226411953935125,-0.045945737700587005,4.04562300194887,3.802442379065025,-2.382887306901072,6.984764637695101
5.922181738016507,-0.06977461076959772,4.083647425739521,3.8722900254419756,-2.818305171564303,7.1850395486822665
5.9214839919088105,-0.09795766248524075,4.12237032599394,3.9441404209287985,-3.2695202399793346,7.412444170523338
5.920504415283958,-0.13065286488503408,4.161811730203229,4.018264862634032,-3.7378867187349774,7.6703418523387
5.919197886635107,-0.16803173207238387,4.201994378829569,4.094968281157419,-4.2250427481972155,7.962571184141505
5.917517569314383,-0.21028215955435603,4.2429440616411425,4.174593992998834,-4.732955940443913,8.29352050858043
5.91541474771884,-0.25761171895879514,4.284690001571131,4.257529198084638,-5.263974126620344,8.668213002310052
5.912838630529252,-0.3102514602249986,4.327265293551977,4.344211328107739,-5.820880461172901,9.092402723902412
5.909736115927002,-0.3684602648367276,4.370707406833055,4.4351353553467625,-6.406950839934972,9.572680788844925
5.906051513278634,-0.43252977323607733,4.415058760386522,4.530862163235212,-7.026009485070044,10.11658846686098
5.901726215546273,-0.5027898680867777,4.460367382018874,4.632028047903821,-7.682474896921636,10.732729671376507
5.896698316865406,-0.579614617055994,4.506687662497912,4.739355344617587,-8.38138209916529,11.430867604361543
5.8909021706948455,-0.663428438047647,4.5540812159440875,4.853664020661202,-9.128356400633665,12.221976804672142
5.884267886314369,-0.7547120020539836,4.602617856150699,4.9758837887079235,-9.9294957150857,13.118198387087407
5.876720766293829,-0.8540069592048406,4.652376694037779,5.107065772578798,-10.791087697879872,14.132605835240465
5.86818069670178,-0.9619178361836394,4.703447351763566,5.248391830931203,-11.719036061612785,15.278619544544089
5.858561518339944,-1.079108196799767,4.755931270072878,5.401178026376644,-12.717783550949573,16.568791018048515
5.847770436371946,-1.2062860323092628,4.809943050336645,5.566865936557129,-13.78837548185031,18.01248151025358
5.835707576048853,-1.3441697871277658,4.865611709702216,5.7469907516596646,-14.925076180723888,19.61164001771677
5.822265878177576,-1.4934205489350048,4.923081617218812,5.943107151836832,-16.109594041901744,21.353386823757003
5.807331672688226,-1.6545164893540223,4.98251268873718,6.156641020074402,-17.301471019904444,23.197398371023983
5.790786507794685,-1.8275311995530668,5.044079098937924,6.388615003784642,-18.422635968593585,25.055272525505856
5.772511195799154,-2.0117575592390025,5.10796524897577,6.6391677290397,-19.333943252940625,26.75870744121343
5.752393620206765,-2.205096991768409,5.174356926266167,6.906754803451834,-19.803070799577547,28.01528966931036
5.730342650289081,-2.4031276997641844,5.243424474300686,7.186907700144938,-19.469692827051038,28.359440279552896
5.706311373291439,-2.5978246280346946,5.315293551302135,7.4705021029404675,-17.831030763942604,27.129482547005004
5.680333127011092,-2.7761349356741207,5.38999857233154,7.741796928410517,-14.302042933669135,23.544680021522353
5.652571777654352,-2.919155365010812,5.467416541615645,7.977243728625741,-8.429626319524003,16.99121525869255
5.623380224004244,-3.003451628206052,5.547188978901902,8.147155881212667,-0.2812390427950152,7.546052471696033
5.593345707722183,-3.006264018634002,5.628660537714029,8.222616405929628,9.205967377767614,-3.553256737651283
5.563283067535843,-2.914204344856326,5.710886701773325,8.187083838553114,18.368715571506325,-14.11062539012831
5.53414102408728,-2.7305171891412625,5.792757540158856,8.045977584651832,25.608736513204924,-22.04803033430962
5.506835852195867,-2.474429824009213,5.873217316005374,7.825497281308735,30.196998402661386,-26.4801618976586
5.482091553955775,-2.1724598399825994,5.9514722888184615,7.560695662332149,32.36742249569569,-27.8101684997611
5.460366955555949,-1.8487856150256425,6.027079245441783,7.282593977334538,32.832031683152195,-27.05192273314457
5.441879099405692,-1.5204652981941207,6.099905185215128,7.012074750003093,32.305101181773246,-25.1875247984642
5.426674446423751,-1.1974142863763881,6.170025932715159,6.760199502018451,31.300886911583532,-22.90759649874084
5.414700303559987,-0.8844054172605529,6.2376279277353435,6.531123537031043,30.12736570597645,-20.616085937553787
5.405856249387381,-0.5831317602007884,6.302939163105654,6.324962677655505,28.945421658037336,-18.518149238787736
5.4000249317853735,-0.29367754362041504,6.366188789882209,6.139781185267628,27.82696914214574,-16.70196808216715
5.397088156349169,-0.015407852198957628,6.427586601734885,5.972761504445956,26.795059548208414,-15.193573319079112
5.396934077827179,0.25254274328312654,6.487314216779344,5.820825771255166,25.847886010116074,-13.988714203175133
5.399459505260011,0.5110216033842873,6.545522474491896,5.680938629223414,24.972145076162775,-13.069924837799789
5.4045697212938535,0.760743054145915,6.60233186078413,5.550239380845416,24.150162401706563,-12.415088741630175
5.412177151835313,1.0022446781629806,6.657834254592584,5.4260884934291145,23.363579126560875,-12.001413006242155
5.422199598616943,1.2358804694285894,6.712095139526875,5.306074363366693,22.595207306320493,-11.807027561912646
5.434558403311229,1.4618325424917944,6.765155883160542,5.188004087747567,21.829934343691633,-11.811409373014133
5.449176728736147,1.6801318859287107,6.817035924038017,5.069889994017426,21.055142844404536,-11.995265995191485
5.465978047595434,1.890683314372756,6.867734823978192,4.949937334065511,20.260886010493994,-12.340209175576431
5.484884880739162,2.0932921744776958,6.917234197318847,4.826535242309746,19.439937320740086,-12.82838876956169
5.505817802483938,2.2876915476850965,6.965499549741945,4.698251354614129,18.58776930662911,-13.442173000606134
5.528694717960789,2.4735692407513876,7.012482063288086,4.563829624608068,17.70248350713796,-14.163916541163717
5.553430410368303,2.650594075822767,7.058120359534167,4.422190459196431,16.7846979905156,-14.975833728614669
5.579936351126531,2.818441055727923,7.102342264126131,4.272432121910284,15.837392488038327,-15.85998040377178
5.608120761683811,2.9768149806083066,7.1450665853452335,4.113832317872566,14.865709971088387,-16.79833926425416
5.637888911489894,3.1254720803191907,7.186204908523959,3.9458489252300244,13.876715019351483,-17.772997763731208
5.6691436322930855,3.2642392305127057,7.22566339777626,3.768118947592712,12.8791121456662,-18.766403323658846
5.701786024598213,3.393030351969368,7.263344587252187,3.5804549143561237,11.882930468666062,-19.76167750596973
5.735716328117906,3.5118596566560285,7.299149136395749,3.3828381392964264,10.899184180421434,-20.742968695968937
5.770834924684467,3.620851498460243,7.332977517788713,3.175408452336737,9.939520769121408,-21.69582176845984
5.807043439669069,3.720246706151457,7.36473160231208,2.9584502346521386,9.015870694113016,-22.607543194798772
5.844245906730584,3.810405413092587,7.394316104658602,2.732374802704151,8.14011304158968,-23.467541118464784
5.88234996086151,3.891806543508484,7.421639852685643,2.497699391519503,7.323771556658858,-24.26762206679926
5.921268026296595,3.9650442590750723,7.446616846600838,2.2550231708515103,6.577754348401108,-25.002229101292567
5.960918468887345,4.030821802559084,7.469167078309353,2.0050008798385845,5.912148538146439,-25.668610177672374
6.001226686912936,4.089943287940548,7.489217087107739,1.7483147780618609,5.33607824099244,-26.26691001656262
6.042126119792342,4.143304070350472,7.506700234888357,1.4856456778962346,4.8576306324480925,-26.800183461631065
6.083559160495847,4.191880376674953,7.521556691667319,1.217643843279924,4.483850548408887,-27.274332546866763
6.125477964262597,4.236718882159042,7.533733130100119,0.9449005178112563,4.220799134212363,-27.697972542358013
6.167845153084188,4.278926873501165,7.543182135278231,0.6679207923876762,4.073666387150726,-28.08223310556466
6.2106344218192,4.319663537372672,7.5498613432021076,0.3870984613320296,4.0469206241912765,-28.440498021213603
6.253831057192927,4.360132743614585,7.553732327815428,0.10269348111989351,4.144469036769331,-28.788079041442945
6.297432384629072,4.401577433982278,7.554759262626627,-0.18518730929453592,4.369790802097507,-29.141803315420646
6.341448158968895,4.445275342003253,7.552907389533681,-0.47660534244874236,4.72598457709902,-29.519465525775857
6.385900912388927,4.492535187774243,7.548141336109194,-0.7717999977065009,5.215640327700203,-29.939048139500784
6.43082626426667,4.5446915910512455,7.540423336132129,-1.0711904791015088,5.840392745408235,-30.417534766255343
6.4762731801771825,4.603095518505328,7.529711431341114,-1.3753658267640623,6.599926503549113,-30.969014499596952
6.522304135362235,4.669094783540819,7.515957773073473,-1.6850559717600317,7.490062476657377,-31.601572530516638
6.568995083197644,4.743995408307393,7.499107213355873,-2.001071697065198,8.499333188585078,-32.31214955736126
6.616435037280717,4.828988740193244,7.479096496385221,-2.324193192638811,9.603132896323013,-33.07809975998019
6.66472492468265,4.925020069156474,7.455854564458833,-2.6549741902386126,10.754119303012775,-33.84360928789242
6.713975125374215,5.032561262186602,7.429304822556447,-2.993410283117537,11.867210021425082,-34.498681530413556
6.764300737996081,5.151233362400853,7.399370719725272,-3.338397098421672,12.797823167398366,-34.848849021910816
6.815813071620089,5.2792115940748365,7.365986748741055,-3.6868855886407803,13.314459131543048,-34.57724518470017
6.868605187560838,5.412356185390267,7.329117892854647,-4.032658040487782,13.074421327065005,-33.21152837526048
6.92272874941474,5.543100398660917,7.288791312449769,-4.364773324240386,11.628554033814334,-30.13216330913833
6.978159753401349,5.65938593899906,7.245143579207365,-4.66609495733177,8.505675520395595,-24.693301329985466
7.03475361279134,5.744442694203016,7.198482629634047,-4.913027970631624,3.4324258204795948,-16.534136574563043
7.09219803973337,5.778766952407812,7.149352349927731,-5.078369336377255,-3.340161076137732,-6.039020474351409
7.149985709257448,5.745365341646435,7.098568656563958,-5.13875954112077,-10.838256906598446,5.386135629473927
7.207439362673913,5.636982772580451,7.047181061152751,-5.084898184826031,-17.633771598959182,15.698584846795514
7.2638091903997175,5.460645056590859,6.99633207930449,-4.927912336358076,-22.54544393897495,23.213460197495177
7.318415640965626,5.235190617201109,6.947052955940909,-4.695777734383124,-25.182120825828466,27.3727907396756
7.370767547137637,4.983369408942824,6.900095178597078,-4.422049826986368,-25.8847261276705,28.662492363978533
7.420601241227065,4.72452214766612,6.855874680327214,-4.135424903346582,-25.299392254878885,28.006637179180817
7.467846462703727,4.471528225117331,6.814520431293748,-3.855358531554774,-24.0234720320956,26.264036894758704
7.5125617449549,4.231293504796375,6.775966845978201,-3.592718162607187,-22.473123478531768,24.03828596322438
7.554874680002864,4.006562270011058,6.740039664352129,-3.352335302974943,-20.89261741390858,21.689075638986527
7.594940302702974,3.797636095871972,6.70651631132238,-3.1354445465850778,-19.406716266366395,19.40537512691015
7.632916663661693,3.603568933208308,6.675161865856529,-2.9413907953159764,-18.068836701408916,17.27332630851344
7.668952352993776,3.4228805661942188,6.645747957903369,-2.7686575322308418,-16.89377569546734,15.322663107844592
7.703181158655719,3.2539428092395455,6.618061382581061,-2.6154309011523957,-15.87716873490248,13.554502919530064
7.735720586748114,3.0951711218905205,6.591907073569537,-2.4798858719570953,-15.00621325707238,11.956804751251752
7.766672297967019,2.9451089893197966,6.567108214849966,-2.3603178244445777,-14.265257645736924,10.51253615951011
7.7961233878602165,2.802456412862427,6.543505036605521,-2.2551924628494766,-13.638548501432663,9.203776583597902
7.824147951988841,2.6660709278481005,6.520953111977026,-2.1631546970134976,-13.1114654495108,8.013637622563092
7.850808661267322,2.5349562733529925,6.499321565006891,-2.0830183207878665,-12.670978041915387,6.927045382574943
7.876158224000852,2.4082464929338387,6.478491381799013,-2.013747866962117,-12.305719228021568,5.930950228293028
7.90024068893019,2.2851893006536232,6.4583539031293915,-1.954438364679187,-12.00588267083501,5.014263910633074
7.923092581936727,2.1651304739452732,6.4388095194826,-1.9042957255728563,-11.763050294796892,4.167680200404628
7.9447438866761795,2.0474999709973045,6.419766562226871,-1.86261892356881,-11.570002842375287,3.3834581508430803
7.965218886386152,1.9317999425735517,6.4011403729911835,-1.828784342060379,-11.420538110074004,2.6552063231859178
7.984536885811887,1.8175945614728117,6.38285252957058,-1.8022322788285199,-11.309307060922,1.977684991101819
8.002712831426615,1.7045014908635918,6.364830206782295,-1.7824554289175016,-11.231670773049315,1.3466324304406303
8.019757846335251,1.5921847831330986,6.34700565249312,-1.7689891046130954,-11.18357775343458,0.7586160200286354
8.035679694166582,1.480349005598753,6.329315761446989,-1.761402944412809,-11.161459689859301,0.21090640430891208
8.05048318422257,1.3687344087001598,6.311701732002861,-1.7592938803697198,-11.162143256826072,-0.298628006770116
8.064170528309571,1.257112976131899,6.294108793199164,-1.762280160437421,-11.182775616455311,-0.7716091516705029
8.07674165807089,1.145285219967346,6.2764859915947895,-1.769996251954126,-11.220761493192732,-1.2092228704246821
8.088194510270563,1.0330776050354187,6.258786029075249,-1.7820884806583728,-11.27371001325543,-1.6122804509241182
8.098525286320918,0.9203405049028643,6.240965144268665,-1.798211285167614,-11.339389817847977,-1.9812704082849928
8.107728691369946,0.8069466067243846,6.222983031416988,-1.818023989250464,-11.415691251805121,-2.31640242974589
8.11579815743719,0.6927896942063334,6.204802791524483,-1.8411880135479228,-11.500594683886987,-2.617645136560919
8.122726054379253,0.5777837473674635,6.186390911389004,-1.867364464913532,-11.592144228247006,-2.884759065241376
8.128503891852928,0.4618623050849935,6.167717266739868,-1.8962120555659456,-11.688426309719906,-3.1173260516008834
8.133122514903778,0.3449780419877944,6.148755146184208,-1.9273853160819545,-11.787552651404354,-3.3147760077558024
8.136572295323656,0.22710251547375088,6.129481293023389,-1.9605330761595126,-11.887647364944938,-3.4764119091706287
8.138843320478394,0.1082260418243015,6.1098759622617935,-1.9952971952512188,-11.98683789539203,-3.601433651099569
8.139925580896637,-0.011642337129618804,6.089922990309281,-2.0313115317622144,-12.083249616912063,-3.688961287516346
8.139809157525342,-0.13247483329873944,6.069609874991659,-2.068201144637378,-12.175003896343036,-3.738058028409202
8.138484409192355,-0.2542248722621698,6.048927863545286,-2.10558172492147,-12.260219442264532,-3.7477532422811475
8.135942160469734,-0.3768270666848151,6.027872046296071,-2.1430592573442815,-12.337016741918223,-3.7170655905825107
8.132173889802885,-0.5001972341039973,6.006441453722629,-2.1802299132501064,-12.40352536158682,-3.645026311893281
8.127171917461846,-0.6242324877198655,5.984639154590128,-2.216680176369039,-12.457893853181048,-3.530702579575524
8.120929592584647,-0.748811426251676,5.962472352826437,-2.2519872021647944,-12.498301976663088,-3.3732207819163404
8.11344147832213,-0.8737944460183068,5.93995248080479,-2.2857194099839577,-12.522974920830062,-3.171789523521204
8.104703533861947,-0.9990241952266075,5.91709528670495,-2.31743730521917,-12.530199190220133,-2.9257221257027135
8.094713291909681,-1.1243261871288088,5.893920913652758,-2.346694526476197,-12.51833982933685,-2.634458415572714
