th1 (rad),w1 (rad/s),th2 (rad),w2 (rad/s)
4.525407860751665,0.5593444053175906,4.804711718931936,0.782827727614612
4.531001304804841,0.6534902172388531,4.812539996208082,0.7890504086902348
4.537536206977229,0.7481661572731221,4.820430500294985,0.7944243886249904
4.5450178685499605,0.8434587485955878,4.828374744181235,0.7987856384428449
4.553452456035917,0.9394504321481181,4.836362600565663,0.8019744385946177
4.562846960357398,1.0362185567384075,4.844382344951609,0.8038372873643913
4.573209145924782,1.133834250155212,4.852420717825253,0.8042290666286531
4.584547488426334,1.2323611291245424,4.860463008491539,0.8030155380876061
4.596871099717579,1.3318538015984462,4.868493163872415,0.8000762482514817
4.610189637733564,1.4323561102328606,4.87649392635493,0.7953079255169894
4.624513198835892,1.5338990615045434,4.8844470056101,0.7886284566890548
4.639852189450938,1.6364983815733287,4.89233329017699,0.7799815319010704
4.656217173266671,1.7401516389616407,4.900133105496001,0.7693420440462364
4.673618689656288,1.8448348771845675,4.907826525936463,0.7567223187284172
4.692067038428133,1.950498710075735,4.915393749123748,0.7421792295607513
4.71157202552889,2.0570638519399247,4.9228155414193555,0.725822216454677
4.73214266404829,2.164416087826101,4.930073763583902,0.707822165314466
4.753786824926551,2.2724007407655082,4.937151985237047,0.6884210194301754
4.776510832334206,2.380816767482172,4.944036195431348,0.6679418689573915
4.8003190000090274,2.4894107156907586,4.950715614120922,0.6467990998002253
4.825213107165935,2.597870905891094,4.957183605118924,0.6255079756683721
4.851191816224846,2.7058223546731694,4.963438684875608,0.6046927836237684
4.878250039771578,2.812823122706757,4.969485612711845,0.585092413362771
4.906378270998645,2.918362924720712,4.975336536845473,0.567562000943711
4.935561900245852,3.021864942565206,4.98101215685491,0.5530691071994853
4.965780549671504,3.1226917841134862,4.986542847926905,0.5426828984251533
4.997007467512639,3.220156371670416,4.991969676911157,0.5375550412313098
5.029209031229343,3.313538173032424,4.9973452273234695,0.5388915922645635
5.062344412959668,3.4021045865974457,5.002734143246115,0.5479160887396985
5.096365458825642,3.4851364964062665,5.008213304133512,0.5658252743898027
5.131216823789704,3.561956137362764,5.01387155687741,0.5937402608163592
5.166836385163331,3.6319546417695383,5.019808959485574,0.6326571494526811
5.203155931581027,3.694616198257511,5.026135530980101,0.6834018907288086
5.2401020935636025,3.7495358322836343,5.0329695498873885,0.7465941452673244
5.277597451886439,3.7964284896074174,5.0404354913400615,0.8226240102204347
5.315561736782513,3.8351282805727833,5.048661731442266,0.9116437984190479
5.353913019588241,3.8655781753273204,5.057778169426457,1.013574961554692
5.392568801341514,3.8878117965943058,5.067913919042003,1.12812821484469
5.431446919307457,3.901929934634929,5.07919520119045,1.2548334012095805
5.470466218653806,3.9080748334215176,5.091743535202546,1.3930749015145831
5.5095469669880215,3.906405161142878,5.1056742842176925,1.5421284841163638
5.54861101859945,3.897074017217438,5.121095569058856,1.7011962115120967
5.587581758771624,3.8802115484334143,5.1381075311739774,1.8694370923449093
5.626383874255959,3.8559129500414033,5.156801902097427,2.0459922898608416
5.664943003756373,3.824231958215317,5.177261824996035,2.2300046552618196
5.703185323338526,3.7851794691689125,5.199561871548653,2.420633032199663
5.741037118030215,3.7387266551156757,5.22376820187065,2.6170621547752146
5.778424384581372,3.684811856461232,5.249938823418402,2.818509073724255
5.815272503145985,3.6233505659436194,5.278123914155644,3.0242269581717816
5.851506008805421,3.554247938668294,5.308366183737363,3.233506898736963
5.887048488192104,3.4774134280661873,5.340701252724732,3.445678034353705
5.9218226224727655,3.392777341401088,5.375158033068269,3.660105974885712
5.955750395886777,3.300309321297641,5.411759092817126,3.876189113119122
5.988753489099754,3.200038991725089,5.4505209839483175,4.093352019776042
6.020753879017004,3.092079260706438,5.491454504146078,4.311034694849864
6.051674671624069,2.9766530465855783,5.534564851094577,4.528676011247606
6.081441202089924,2.8541244754392117,5.579851611207053,4.745689249985684
6.109982446844317,2.7250358418546536,5.627308503706909,4.961427240136871
6.1372328052628635,2.5901517416453363,5.676922776108278,5.175134393388091
6.1631343226793165,2.4505115989248782,5.728674120042159,5.385883080592602
6.187639438668565,2.3074910237903143,5.782532950848085,5.592492719154432
6.2107143489064685,2.1628705916696465,5.8384578780396295,5.793432232135402
6.232343054823165,2.018907113449896,5.896392200360983,5.986711042249943
6.252532125957663,1.878396620061646,5.956259310783483,6.169771394201952
6.27131609215828,1.7447098470111713,6.0179570247255025,6.3394060295285115
6.288763190628392,1.6217709388336177,6.0813510850207875,6.491738959699714
6.304980900016727,1.5139419016635909,6.146268474617784,6.622318842372662
6.3201203190333635,1.4257761338021309,6.212491663041511,6.726374941801163
6.334378080371385,1.3616238970715275,6.279755412459522,6.799261871785316
6.3479943193421,1.3251174962039722,6.3477480311773755,6.837062165781859
6.36124549430414,1.3186271195404597,6.416118652835194,6.837234114666388
6.374431765499545,1.3428309471585458,6.484490993981858,6.799123941060736
6.3878600749711305,1.3965440861543865,6.552482233392465,6.724160225559763
6.401825515832674,1.4768785975076044,6.619723835648062,6.615642337631381
6.41659430180775,1.5796892829024323,6.685880259024376,6.478185771828999
6.432391194636774,1.70016327960262,6.750662116742666,6.317008518315451
6.4493928274328,1.8333883574616514,6.813832201925821,6.137266764298703
6.467726711007416,1.9747834943349942,6.875204869568807,5.943580399699039
6.487474545950766,2.120351949465926,6.934640673565798,5.739788305116353
6.508678065445426,2.266777796352224,6.992038556616961,5.528897088329045
6.531345843408948,2.411414436665445,7.047327527500252,5.313155314057176
6.555459987775603,2.55221416488968,7.100459080640824,5.094188341638222
6.580982129424499,2.687635404717062,7.151400964057206,4.873147471692206
6.60785848347167,2.8165497255008143,7.200132438774128,4.650847004039619
6.636023980726678,2.9381593361246656,7.246640908814524,4.427877764643581
6.665405574087925,3.051928504630687,7.29091968646096,4.20469476848331
6.695924859134231,3.157528488116533,7.332966634145793,3.9816812823298404
6.727500144015396,3.254793905069243,7.372783446969091,3.7591933248127885
6.7600480830660885,3.343688070310672,7.410375380217219,3.537588905474129
6.793484963769195,3.4242749985531584,7.44575126927196,3.317245889222755
6.827727713754727,3.4966961960810714,7.478923728164188,3.0985717309853045
6.862694675715537,3.561150811908866,7.50990944547404,2.8820076728368407
6.898306183834626,3.6178781262802278,7.538729522202408,2.6680294160561315
6.934484965097428,3.667141688334035,7.56540981636297,2.4571457916777617
6.9711563819807685,3.709214676552972,7.589981274279747,2.2498965453178603
7.008248528746298,3.7443662577347596,7.612480239732926,2.046850005941296
7.045692191323646,3.7728488794593997,7.632948739792338,1.8486011033957277
7.083420680118239,3.7948865645105863,7.651434750826295,1.6557699179579646
7.121369545763345,3.8106643987856814,7.667992450005875,1.4690006727106941
7.159476189751202,3.82031952870276,7.682682456732982,1.288960807356252
7.19767938503823,3.8239341162003675,7.695572064806544,1.1163394984144988
7.235918726200233,3.821530836975114,7.706735459790689,0.9518447246571613
7.274134034569984,3.813071636622925,7.71625390703726,0.7961977423932886
7.3122647509362135,3.79846055048633,7.724215884461193,0.6501236771879313
7.3502493564410765,3.7775513995847874,7.730717121233073,0.5143369237312229
7.388024870436924,3.750161035448122,7.735860490470385,0.3895202597143219
7.425526480791405,3.716088455092914,7.739755693067528,0.2762971120557379
7.462687365342335,3.675139495548267,7.742518664188085,0.17519732597943027
7.499438760297817,3.6271559478890616,7.74427063744788,0.0866180654316984
7.535710319776708,3.5720468938858385,7.745136818102196,0.01078297672120003
7.571430788715567,3.5098190642552436,7.745244647869408,-0.052295820815118826
7.606528979358119,3.4406023393825005,7.744721689661257,-0.10284741944586366
7.640935002751944,3.3646664734295357,7.743693215466799,-0.1413579964521685
7.6745816674862395,3.282425927748865,7.7422796355022765,-0.16856863371624503
7.7074059267637285,3.1944313238872146,7.740593949165114,-0.18545326465326767
7.739350240002601,3.1013481557634877,7.738739416518581,-0.19317806196352974
7.770363721560236,3.0039255024687113,7.736807635898946,-0.19304663787208445
7.800402976584923,2.9029589955725434,7.7348771695202245,-0.18643759403970692
7.829432566540649,2.799252845160281,7.733012793579827,-0.17474169444717813
7.8574250949922515,2.693585268425325,7.731265376635355,-0.15930518012965933
7.884360947676504,2.5866804533661845,7.729672324834059,-0.14138388908170282
7.910227752210166,2.479188654885673,7.728258485943242,-0.12211052014156068
7.935019638759023,2.3716745767163827,7.727037380741827,-0.10247519981539721
7.958736384526187,2.264613116326781,7.726012628743673,-0.08331788417780972
7.981382515689455,2.1583909400104133,7.725179449901895,-0.06533020084636111
8.002966425089559,2.0533121678754327,7.724526147893432,-0.04906404444957192
8.023499546768313,1.9496065636265887,7.724035507448936,-0.03494440570942362
8.04299561240458,1.8474389074280118,7.723686063391842,-0.023284339138533006
8.06147000147886,1.7469185707548602,7.723453220000456,-0.014300491019803942
8.078939187186409,1.6481086364881927,7.723310215090258,-0.008128106448381585
8.09542027355129,1.5510341774736736,7.723228934025775,-0.004834852891246376
8.110930615326028,1.4556895102605671,7.723180585496862,-0.004433118037427858
8.125487510428634,1.3620443813205656,7.723136254316487,-0.006890665518566446
8.13910795424184,1.2700491316346973,7.723067347661302,-0.01213967871005666
8.151808445558187,1.1796389349876482,7.722945950874201,-0.020084308963815925
8.163604834908064,1.0907372274715506,7.722745107784562,-0.030606887811923292
8.17451220718278,1.0032584501908324,7.722439038906443,-0.043572977356233805
8.184544791684688,0.9171102211401938,7.722003309132881,-0.05883543014119997
8.19371589389609,0.8321950406892618,7.721414954831469,-0.07623761703009077
8.202037844302984,0.7484116213176701,7.720652578661168,-0.09561596414320497
8.209521960516161,0.6656559182059903,7.719696419019736,-0.11680192103826717
8.216178519698222,0.583821924127813,7.718528399809354,-0.13962346394474479
8.2220167389395,0.502802280357349,7.7171321651699065,-0.16390622103448702
8.227044761743073,0.42248874519761376,7.715493102959561,-0.18947429187730952
8.231269649195049,0.34277255322967615,7.7135983600407885,-0.21615082050218287
8.234697374727347,0.2635446913555282,7.711436851835766,-0.24375837077798784
8.237332821640901,0.18469611197840696,7.708999268127987,-0.2721191439602815
8.239179782760685,0.10611789904503723,7.706278076688384,-0.30105507100242457
8.240240961751136,0.027701398982930517,7.70326752597836,-0.3303878063784252
8.240517975740964,-0.05066167435972534,7.699963647914576,-0.35993864550513643
8.240011358997366,-0.12907915396260228,7.696364261459524,-0.38952838420305713
8.23872056745774,-0.20765834804683306,7.6924689776174935,-0.41897713584732754
8.236643983977272,-0.28650597899327984,7.68827920625902,-0.4481041198127755
8.23377892418734,-0.36572813011321514,7.683798165060892,-0.4767274334169958
8.230121642886207,-0.4454301983193687,7.679030890726723,-0.5046638187486807
8.225667340903014,-0.5257168511645783,7.673984252539236,-0.5317284354961217
8.220410172391368,-0.6066919868612439,7.668666968184274,-0.5577346511499772
8.214343252522756,-0.688458695755295,7.663089621672774,-0.5824938607580984
8.207458665565204,-0.7711192212703278,7.657264683065193,-0.6058153497992077
8.1997474733525,-0.8547749175045501,7.651206529567201,-0.6275062157879896
8.191199724177455,-0.939526199372013,7.644931467409321,-0.647371367033365
8.181804462183734,-1.02547247931562,7.6384577537389875,-0.665213620692479
8.171549737390578,-1.1127120820301912,7.631805617532063,-0.6808339270926911
8.160422616570276,-1.2013421251218261,7.6249972782611355,-0.6940317534890966
8.148409195319058,-1.2914583489433853,7.6180569607262445,-0.7046056683123
8.135494611829625,-1.3831548726700769,7.6110109040431215,-0.7123541769481483
8.121663063102924,-1.4765238456264025,7.60388736227364,-0.7170768726771205
8.10689782464666,-1.5716549524797363,7.596716593546868,-0.7185759821814358
8.091181275121864,-1.6686347176316747,7.589530833725054,-0.716658404687942
8.074494927945548,-1.7675455373565399,7.582364249678175,-0.7111383681010205
8.056819472571982,-1.868464347322447,7.5752528659971645,-0.7018408551319637
8.038134829098757,-1.9714608075079272,7.568234457445845,-0.6886059880469105
8.018420221023678,-2.076594855835493,7.561348397565376,-0.6712946024429083
7.997654272465323,-2.1839134462118928,7.554635451540947,-0.6497952878192083
7.975815138003204,-2.2934462471666652,7.548137498662755,-0.6240332235401679
7.952880675531538,-2.4052000366518467,7.541897166427353,-0.5939811884221332
7.928828675165019,-2.5191514922846614,7.5359573545431315,-0.5596731617956698
7.903637160242172,-2.6352380541372677,7.5303606229251745,-0.5212209482768284
7.877284779700799,-2.7533465451508827,7.525148413442406,-0.4788342231081423
7.849751314249291,-2.8732992970491975,7.520360071211325,-0.4328442726790079
7.821018321278799,-2.9948376826177814,7.5160316284845345,-0.38373144315214586
7.791069944452621,-3.1176032449173237,7.512194314053013,-0.3321558406956439
7.759893912003448,-3.241117094286892,7.508872755646056,-0.2789900715814665
7.727482741060579,-3.3647589638765716,7.506082854930241,-0.225351700019495
7.693835151421814,-3.4877482918859894,7.503829337930046,-0.17263161432810065
7.6589576685029535,-3.609130875906907,7.502103021786765,-0.1225127195738056
7.622866359743885,-3.7277758271981916,7.500877894591027,-0.076971611565183
7.585588601471903,-3.8423883503224032,7.500108178475375,-0.03825471545990928
7.547164717968679,-3.951543691177344,7.499725631320776,-0.008820675784076908
7.5076492810569055,-4.053745746895138,7.499637424562935,0.00875641826926805
7.467111823587954,-4.147509837779291,7.499724988745627,0.011922387560361673
7.425636725210161,-4.23146320611641,7.499844212621231,-0.0016926087165883806
7.383322093148997,-4.3044502271195295,7.499827286534066,-0.03410002830932077
7.340277590877801,-4.365624453715574,7.499486286250972,-0.08679625604227542
7.296621346340646,-4.414509068661137,7.4986183236905495,-0.16065146409353276
7.2524762556540345,-4.451012471564213,7.4970118090496145,-0.2558650217576316
7.2079661309383924,-4.475395546526202,7.494453158832038,-0.37199422832134044
7.163212175473131,-4.488198261912576,7.490733216548825,-0.5080467297196682
7.118330192854005,-4.490141568461942,7.485652749251628,-0.6626143491411717
7.073428777169386,-4.482023456916477,7.479026605760216,-0.8340211833530358
7.028608542600221,-4.464625490502646,7.470686393926686,-1.0204619152003542
6.983962287695195,-4.43864023562116,7.460481774774682,-1.2201144750732693
6.939575885338983,-4.404623493440213,7.44828063002395,-1.4312205508748055
6.895529650404581,-4.362970091761069,7.433968424515202,-1.6521350328399418
6.85189994948697,-4.313909020465494,7.417447074186803,-1.8813500357065565
6.808760859282315,-4.257512694368594,7.398633573829737,-2.1175008387133514
6.766185732338629,-4.193715452953063,7.377458565442604,-2.359360796449366
6.724248577809099,-4.122337376982769,7.35386495747811,-2.6058309542879523
6.683025204039271,-4.043110622728205,7.327806647935231,-2.8559284664342433
6.642594097811989,-3.9557064740211705,7.299247363270888,-3.108776372996088
6.603037033071777,-3.8597620925869873,7.268159599540928,-3.3635960124786193
6.564439412145907,-3.7549065150201644,7.234523639416142,-3.619702345379972
6.526890346995705,-3.640785857608349,7.198326615962342,-3.8765016871610993
6.490482488419621,-3.5170880221273046,7.159561599090731,-4.133490712176644
6.455311608198349,-3.3835675217036343,7.118226691968965,-4.390255007333669
6.421475932981313,-3.2400714360543343,7.074324141895628,-4.646464840952976
6.3890752186207695,-3.086568023981792,7.0278594934860985,-4.901865086376312
6.358209538380952,-2.923180223686622,6.978840842622335,-5.15625532138187
6.328977736144085,-2.7502271961350946,6.927278289408517,-5.409454944966505
6.301475464182734,-2.568278206919139,6.873183739958852,-5.661246687245212
6.275792682113543,-2.378224386647374,6.816571273086399,-5.911290231874145
6.252010438247069,-2.1813749210551023,6.757458370767658,-6.158996203485072
6.230196689036518,-1.9795842133166288,6.6958684087328075,-6.403350462695343
6.210400846903352,-1.77541394792485,6.631834904105854,-6.642681542446774
6.192646707424103,-1.572325966862463,6.565408088681386,-6.8743738801330405
6.176923447755478,-1.374884287583244,6.496664349880056,-7.09455193619452
6.163174604879646,-1.1889130888916206,6.42571883051811,-7.297801561693011
6.151285473990729,-1.0215119478848163,6.35274081490118,-7.47705598107043
6.141070354511881,-0.8807839302693798,6.277970255090476,-7.623836886872256
6.132262515209187,-0.7751265175391496,6.201731886221753,-7.729053406819284
6.1245112500337955,-0.7120337229932712,6.124441352153561,-7.784437459497699
6.117390912803863,-0.6965983097760341,6.0465969775585835,-7.784380866519475
6.110424929706102,-0.730200838307352,5.968753168893389,-7.727549305234688
6.1031229213230285,-0.8099847037622158,5.891477675841042,-7.617502811016045
6.095023074285407,-0.9294328089922927,5.815302647730881,-7.461928595681507
6.085728746195484,-1.0798065905246417,5.7406833617740665,-7.2708167216291475
6.074930680290238,-1.2518119191935657,5.6679751945577745,-7.054410086648277
6.062412561098302,-1.4369022641329543,5.597431093691291,-6.8216747350413645
6.048043538456973,-1.6279753003308701,5.529214346340877,-6.579570579467211
6.0317637854536645,-1.8195407936702235,5.463418640546205,-6.332988335212172
6.013568377516962,-2.0075703744107605,5.400088757194084,-6.0850620597984095
5.993492673772854,-2.18922063779278,5.3392381365961,-5.837607070510624
5.971600467394927,-2.3625476139847374,5.280862065890993,-5.591536826488272
5.947974991255079,-2.5262652873693767,5.224946697626111,-5.347199324452345
5.922712338381386,-2.6795611374582533,5.171474704381588,-5.104623796695079
5.895916727006803,-2.821963299364923,5.120428466414637,-4.863690075766187
5.867697094013153,-2.9532480825517453,5.071791565656976,-4.624238576584935
5.838164613187636,-3.0733765557449044,5.025549179891127,-4.386137489251129
5.807430847630187,-3.182450947286486,4.981687804998615,-4.1493203123855995
5.7756063381573215,-3.280683987735506,4.940194601874759,-3.913803379407503
5.742799498279966,-3.3683763846559933,4.9010565680806835,-3.679690221362675
5.709115734433406,-3.44589921221647,4.864259665867056,-3.4471675476872563
5.6746567423112415,-3.5136791543241492,4.829787990390184,-3.2164961821147533
5.639519950768,-3.5721853466897016,4.797623028569036,-2.9879992994343527
5.6037980973011035,-3.6219171080626937,4.767743035574692,-2.7620496276316717
5.5675789262204765,-3.6633922060359323,4.740122539298375,-2.5390568032456495
5.530945004160117,-3.6971355234539924,4.714731971265919,-2.319455722814569
5.493973648925577,-3.723668118738107,4.691537414037773,-2.103696472536206
5.456736967738196,-3.743496738125725,4.670500449312411,-1.8922362116682578
5.4193020003569385,-3.757103863310208,4.651578087195729,-1.6855332138709758
5.381730961723837,-3.7649383824692477,4.634722755057019,-1.4840431223285362
5.344081577899145,-3.7674069707307534,4.619882323833734,-1.288217340126236
5.306407508191837,-3.764866269572369,4.607000150432471,-1.098503349411626
5.268758845496113,-3.7576159731210415,4.5960151169383545,-0.9153466241106679
5.231182685764903,-3.7458929703163464,4.586861650697248,-0.7391936645550435
5.19372375606174,-3.7298667603025266,4.579469714051697,-0.5704955328518442
5.156425088458715,-3.709636455239263,4.573764758723179,-0.4097111033535137
