th1 (rad),w1 (rad/s),th2 (rad),w2 (rad/s),a1 (rad/s^2),a2 (rad/s^2)
3.1540153556195505,-3.1139420573685395,4.656288214597775,1.2556585584742594,0.9065635890421126,0.04863108194859809
3.1228759350458652,-3.104876421478118,4.668844800182518,1.2561448692937454,0.6035753067937353,0.13844029188338103
3.0918271708310843,-3.098840668410181,4.681406248875455,1.2575292722125793,0.30492728047596546,0.19990411613138512
3.0608387641469825,-3.0957913956054215,4.693981541597581,1.259528313373893,0.008412503903907959,0.23356025325078666
3.0298808501909282,-3.0957072705663826,4.70657682473132,1.261863915906401,-0.2881436034782001,0.23966112953540425
2.9989237774852646,-3.0985887066011646,4.719195463890384,1.2642605272017549,-0.5869051251442612,0.21817974896908035
2.967937890419253,-3.1044577578526074,4.731838069162402,1.2664423246914456,-0.8900451606493702,0.16881569983455227
2.936893312840727,-3.113358209459101,4.744502492409317,1.2681304816897911,-1.199762318076538,0.09100231362506042
2.9057597307461362,-3.1253558326398663,4.757183797226214,1.2690405048260418,-1.5182933360446405,-0.016083517958331434
2.8745061724197374,-3.140538766000313,4.769874202274475,1.2688796696464586,-1.8479206315130405,-0.15350675351103163
2.8431007847597343,-3.1590179723154432,4.782562998970939,1.2673446021113484,-2.1909730933320635,-0.32255197064668006
2.8115106050365797,-3.1809277032487637,4.795236444992053,1.2641190824048816,-2.549817825709459,-0.5246896769120082
2.779701328004092,-3.2064258815058584,4.8078776358161015,1.2588721856357614,-2.92683977250144,-0.7615261670812972
2.7476370691890337,-3.2356942792308727,4.820466357672459,1.2512569239649485,-3.3244052097826886,-1.0347304881518227
2.715280126396725,-3.2689383313286995,4.832978926912109,1.2409096190834303,-3.7448039827175696,-1.3459303615821065
2.682590743083438,-3.306386371155875,4.845388023102943,1.2274503154676093,-4.190164115688162,-1.696566972115097
2.6495268793718796,-3.3482880123127567,4.857662526257619,1.2104846457464584,-4.66233112740969,-2.0876964854439466
2.616043999248752,-3.3949113235868538,4.869767372715084,1.1896076808920188,-5.162703206972945,-2.519724256411622
2.5820948860128836,-3.446538355656583,4.881663449524004,1.1644104383279026,-5.692012654171453,-2.992056389802423
2.5476295024563176,-3.503458482198298,4.893307553907284,1.1344898744298784,-6.250044143240672,-3.5026533577764534
2.5125949176343347,-3.5659589236307045,4.9046524526515825,1.0994633408521137,-6.835282155572454,-4.0474728781025116
2.4769353283980275,-3.6343117451864293,4.915647086060104,1.0589886120710885,-7.444484337753119,-4.619795771844073
2.4405922109461633,-3.7087565885639604,4.926236972180814,1.0127906543526477,-8.07218581772201,-5.209441024640109
2.4035046450605235,-3.7894784467411804,4.936364878724341,0.9606962441062467,-8.710152999879174,-5.801896970836999
2.3656098605931115,-3.876579976739972,4.945971841165403,0.9026772743978767,-9.346825165978343,-6.37742631696124
2.326844060825712,-3.9700482283997554,4.954998613909382,0.8389030112282643,-9.966808573185924,-6.910244290283222
2.2871435785417145,-4.069716314131615,4.963387644021664,0.7698005683254321,-10.550519103549865,-7.367919495665512
2.2464464154003982,-4.175221505167113,4.971085649704919,0.696121373368777,-11.074101398888237,-7.711199497276708
2.2046942003487273,-4.285962519155995,4.978046863438607,0.6190093783960099,-11.509776493941642,-7.89450493365199
2.1618345751571675,-4.401060284095411,4.984236957222567,0.54006432905949,-11.826774099402975,-7.86734782972385
2.1178239723162133,-4.519328025089441,4.989637600513162,0.4613908507622515,-11.99297580286931,-7.5768883594035445
2.072630692065319,-4.6392577831181345,4.994251509020785,0.38562196716821606,-11.977319929704722,-6.971728828181528
2.0262381142341375,-4.759030982415181,4.998107728692467,0.3159046788864008,-11.752894990406423,-6.006846158400605
1.9786478044099856,-4.876559932319245,5.001266775481331,0.25583621730239475,-11.300489235467278,-4.6493007407013875
1.9298822050867932,-4.989564824673918,5.0038251376543545,0.20934320989538088,-10.612199266606535,-2.884076241011426
1.879986556840054,-5.095686817339984,5.005918569753308,0.18050244748526661,-9.694573902456739,-0.7191726294099925
1.8290296886666542,-5.1926325563645515,5.00772359422816,0.1733107211911667,-8.570723312280988,1.8110295238912282
1.7771033631030086,-5.278339789487362,5.009456701440072,0.19142101643007897,-7.280885069529212,4.64503349841589
1.7243199652081351,-5.351148640182654,5.011370911604373,0.23787135141423787,-5.8811105476838295,7.696733211245399
1.6708084788063087,-5.409959745659492,5.013749625118515,0.31483868352669186,-4.439995579944764,10.86131307051695
1.6167088813497137,-5.45435970145894,5.016898011953782,0.42345181423186135,-3.033691781766306,14.024120443614635
1.5621652843351244,-5.484696619276603,5.021132530096101,0.5636930186680077,-1.7397533813085009,17.071509582351197
1.5073183181423584,-5.502094153089688,5.026769460282781,0.7344081144915197,-0.6306423392658274,19.90218802475599
1.4522973766114615,-5.508400576482346,5.034113541427696,0.9334299947390796,0.23213602346784534,22.437374202602555
1.397213370846638,-5.5060792162476675,5.0434478413750865,1.1578037367651053,0.8023294411550853,24.628205824240425
1.3421525786841615,-5.498055921836117,5.055025878742738,1.4040857950075096,1.0509789338943039,26.459348915682618
1.2871720194658003,-5.487546132497173,5.069066736692813,1.6686792841643359,0.9659385433589175,27.948547020837154
1.2322965581408285,-5.477886747063584,5.085753529534456,1.9481647543727074,0.5490941108396373,29.14270249630114
1.1775176906701927,-5.472395805955188,5.105235177078183,2.239591779335719,-0.1881050497538362,30.11174484888005
1.1227937326106407,-5.474276856452726,5.12763109487154,2.5407092278245194,-1.2300003967584494,30.94183845252044
1.0680509640461135,-5.4865768604203105,5.153038187149785,2.850127612349724,-2.5622171873373567,31.729387832441777
1.0131851954419104,-5.512199032293684,5.181539463273282,3.167421490674142,-4.176791754082113,32.576930460725386
0.9580632051189736,-5.553966949834505,5.213213678180023,3.4931907952813956,-6.076758725906967,33.59155111480508
0.9025235356206285,-5.614734537093575,5.2481455861328365,3.8291063064294466,-8.280344272212742,34.88607478149574
0.8463761902496927,-5.697537979815703,5.286436649197131,4.177967054244404,-10.82516000968895,36.58308582246178
0.7894008104515357,-5.8057895799125925,5.328216319739575,4.543797912469022,-13.772939803420172,38.82177329045753
0.7313429146524097,-5.943518977946794,5.373654298864265,4.932015645373597,-17.21537175503316,41.76760433382783
0.6719077248729418,-6.115672695497126,5.422974455318001,5.349691688711875,-21.281312588563978,45.62459350489264
0.6107509979179706,-6.328485821382765,5.47647137220512,5.805937623760801,-26.144670746074272,50.64874042095455
0.5474661397041429,-6.589932528843508,5.534530748442728,6.312425027970347,-32.02913484471776,57.15708512329906
0.48156681441570787,-6.910223877290686,5.597654998722432,6.883995879203338,-39.196786112813946,65.51428710917088
0.41246457564280103,-7.302191738418825,5.666494957514465,7.539138750295047,-47.881551235817504,76.04240671546361
0.33944265825861275,-7.781007250777001,5.741886345017416,8.299562817449683,-58.056703616295415,88.69941425953294
0.26163258575084275,-8.361574286939955,5.824881973191912,9.186556960045012,-68.74601393123032,102.12045864223751
0.1780168428814432,-9.049034426252259,5.916747542792362,10.207761546467387,-76.26435068852271,111.16102427667698
0.08752649861892062,-9.811677933137487,6.018825158257036,11.319371789234156,-70.99299251330524,102.38448525687767
-0.010590280712454256,-10.521607858270539,6.1320188761493775,12.343216641802933,-37.22798436911891,53.84771081953512
-0.11580635929515964,-10.893887701961727,6.255451042567406,12.881693749998284,26.78060668837244,-36.843654726421384
-0.2247452363147769,-10.626081635078004,6.384267980067389,12.51325720273407,81.3334849522544,-114.18601669940041
-0.33100605266555694,-9.81274678555546,6.50940055209473,11.371397035740067,93.64653687026981,-132.5995024327429
-0.42913352052111153,-8.87628141685276,6.623114522452131,10.045402011412637,80.91803459009776,-116.20653380993481
-0.5178963346896391,-8.067101070951782,6.723568542566257,8.88333667331329,64.26378021083397,-94.37183850583541
-0.5985673453991569,-7.424463268843443,6.81240190929939,7.939618288254936,50.3592200599779,-76.33609478557074
-0.6728119780875913,-6.920871068243664,6.891798092181939,7.1762573403992285,39.753647838300246,-62.85365604939663
-0.7420206887700279,-6.523334589860662,6.9635606655859315,6.547720779905262,31.737378582436072,-52.943778089550264
-0.8072540346686345,-6.205960804036301,7.029037873384984,6.0182829990097595,25.589865122585543,-45.61084082996907
-0.8693136427089976,-5.950062152810445,7.089220703375081,5.562174590710069,20.77737935178961,-40.11270827817053
-0.928814264237102,-5.742288359292549,7.144842449282182,5.161047507928364,16.932366413648012,-35.92912529877819
-0.9862371478300275,-5.5729646951560685,7.196452924361465,4.801756254940583,13.80668804667775,-32.69475778569658
-1.041966794781588,-5.4348978146892915,7.244470486910871,4.474808677083617,11.234491651898823,-30.145715613902393
-1.096315772928481,-5.322552898170303,7.2892185736817074,4.1733515209445935,9.10705290349082,-28.082783371396538
-1.1495413019101839,-5.231482369135395,7.330952088891153,3.892523687230628,7.356313626941213,-26.347199964837742
-1.2018561256015379,-5.157919232865983,7.3698773257634596,3.6290516875822507,5.943854087859594,-24.805199001547308
-1.2534353179301978,-5.098480691987387,7.406167842639282,3.3809996975667778,4.8528413571613305,-23.338947255369632
-1.3044201248500717,-5.049952278415773,7.43997783961495,3.1476102250130813,4.08117877983608,-21.84265893181751
-1.3549196476342296,-5.009140490617413,7.4714539418650805,2.929183635694906,3.6346245633130656,-20.223298588697375
-1.4050110525404036,-4.972794244984282,7.500745778222029,2.7269506498079323,3.5191995184391227,-18.405370358677374
-1.4547389949902465,-4.937602249799891,7.528015284720109,2.5428969462211586,3.732894112744539,-16.338816206633528
-1.5041150174882454,-4.900273308672445,7.55344425418232,2.3795087841548233,4.257523168205197,-14.008122467057671
-1.5531177505749698,-4.857698076990394,7.577239342023868,2.2394275594842465,5.052379083499007,-11.439717653802576
-1.6016947313448737,-4.807174286155403,7.599633617618711,2.1250303829462207,6.051729712920611,-8.704250505382625
-1.6497664742064277,-4.746656989026197,7.620883921448173,2.0379878778923946,7.167797547395254,-5.9110122523049355
-1.6972330440966896,-4.674979013552244,7.6412638002270965,1.9788777553693453,8.29951759421034,-3.193843121237479
-1.7439828342322121,-4.591983837610141,7.66105257778079,1.9469393241569706,9.345491442440036,-0.6907794386758862
-1.7899026726083136,-4.498528923185741,7.68052197102236,1.9400315297702118,10.217963838889396,1.4778039896482618
-1.834887961840171,-4.396349284796846,7.699922286320062,1.9548095696666943,10.854167832575396,3.226998845188861
-1.8788514546881394,-4.287807606471093,7.719470382016729,1.987079558118583,11.222298883382585,4.516915941737568
-1.9217295307528504,-4.175584617637267,7.739341177597915,2.0322487175359587,11.321239022993744,5.352630040307056
-1.963485376929223,-4.06237222740733,7.759663664773274,2.0857750179390293,11.175076855062528,5.776124805597012
-2.0041090992032964,-3.950621458856705,7.7805214149526645,2.1435362659949995,10.824679655687257,5.853710496550008
-2.0436153137918636,-3.8423746622998323,7.801956777612615,2.2020733709604996,10.318776561595826,5.662690556842983
-2.082039060414862,-3.739186896683874,7.823977511322219,2.2587002765289292,9.70641729462461,5.280125284943296
-2.119430929381701,-3.6421227237376277,7.846564514087508,2.3115015293783623,9.031741586223863,4.7751041928956655
-2.155852156619077,-3.551805307875389,7.869679529381292,2.359252571307319,8.331152962552375,4.204648825709599
-2.191370209697831,-3.4684937782498655,7.893272055094365,2.401299059564415,7.632458829472156,3.6125628241074774
-2.22605514748033,-3.392169189955144,7.91728504569001,2.43742468780549,6.955336898993206,3.030249523677326
-2.259976839379881,-3.322615820965212,7.9416592925680645,2.467727183042263,6.31252028695663,2.4785767995226635
-2.293202997589533,-3.2594906180956458,7.966336564398487,2.4925129510374897,5.711239819975681,1.9700974944674312
-2.3257979037704897,-3.202378219895889,7.991261693908862,2.512213925982164,5.1546304615135,1.511191652200997
-2.3578216859694487,-3.150831915280754,8.016383833168684,2.527325842504174,4.642949796260952,1.1039099962352583
-2.389330005122256,-3.1044024173181444,8.041657091593725,2.538364942466526,4.174554320861772,0.747444184465637
-2.4203740292954374,-3.0626568741095266,8.06704074101839,2.5458393843111824,3.746637045095863,0.43923438188785957
-2.451000598036533,-3.025190503658568,8.092499134861502,2.550231728130061,3.3557580239356453,0.17576511246861368
-2.4812525030731183,-2.9916329234192114,8.118001452142803,2.551989379254747,2.9982087681979452,-0.046887126898273
-2.5111688323073103,-2.961650835737232,8.14352134593535,2.551520507985764,2.6702505108779917,-0.23269352307405364
-2.5407853406646828,-2.934948330628452,8.169036551015207,2.5491935727550237,2.368260683784709,-0.38544802453100463
-2.5701348239709674,-2.911265723790605,8.194528486742756,2.5453390925097135,2.0888149853685554,-0.5086368517376693
-2.5992474812088733,-2.8903775739369193,8.219981877667854,2.540252723992337,1.828725779582428,-0.6053716264387454
-2.6281512569482426,-2.872090316141095,8.245384404907776,2.5341990077279495,1.5850519570274813,-0.6783638268034514
-2.6568721601096534,-2.8562397965708204,8.270726394985056,2.527415369459915,1.355090978060567,-0.7299249556073472
-2.685434558075362,-2.842688886790215,8.296000548679656,2.5201161199038418,1.136360513692224,-0.7619818261522667
-2.713861446943264,-2.831325281653293,8.321201709878695,2.512496301642319,0.9265747204389448,-0.7761000333003139
-2.7421746997597967,-2.8220595344489032,8.346326672895119,2.504735301309316,0.7236185336531716,-0.7735113057008044
-2.7703952951042856,-2.8148233491123715,8.371374025908212,2.497000188252308,0.5255222677591254,-0.7551423143270645
-2.7985435285954092,-2.8095681264347805,8.396344027790734,2.4894487651090373,0.33043813458844973,-0.7216438751250497
-2.8266392098597573,-2.806263745088896,8.421238515441825,2.482232326357787,0.13661993224482694,-0.6734205144237225
-2.854701847310646,-2.8048975457664476,8.446060838705403,2.4754981212135494,-0.057592951780659034,-0.6106612090161442
-2.8827508227683105,-2.8054734752842543,8.470815819917538,2.469391509123388,-0.2537859804178376,-0.5333728820316481
-2.910805557521153,-2.8080113350884326,8.495509735008772,2.4640577803030714,-0.45347282219501117,-0.4414190215719167
-2.9388856708720374,-2.8125460633103825,8.520150312811802,2.459643590087352,-0.6580896324978314,-0.3345666638376309
-2.9670111315051413,-2.8191269596353608,8.544746748712676,2.4562979234489757,-0.8689776358661588,-0.21254599925294085
-2.995202401101495,-2.8278167359940225,8.569309727947166,2.4541724634564464,-1.0873505832437687,-0.07512804452061797
-3.0234805684614354,-2.8386902418264603,8.593851452581731,2.45342118301124,-1.3142427242449288,0.07777284625078083
-3.0518674708797002,-2.8518326690689095,8.618385664411843,2.454198911473748,-1.5504319532131017,0.2459634890954966
-3.0803857975703894,-2.8673369886010405,8.64292765352658,2.456658546364703,-1.7963319436163319,0.42879410110330485
-3.1090591674563997,-2.8853003080372037,8.667494238990228,2.460946487375736,-2.0518467314487925,0.6249285226150741
-3.137912170536772,-2.9058187753516918,8.692103703863985,2.4671957726018867,-2.316181963498746,0.832053859626191
-3.1669703582902886,-2.928980594986679,8.716775661590004,2.4755163111981484,-2.5876098906867466,1.046525160413706
-3.1962601642401554,-2.9548566938935465,8.741530824701986,2.4859815628022854,-2.8631916412903378,1.2629500608504676
-3.225808731179091,-2.9834886103064497,8.766390640330009,2.4986110634107903,-3.138472305822527,1.4737355685509654
-3.2556436172821552,-3.014873333364675,8.791376750964117,2.5133484190963,-3.4071840156819473,1.6686473093365481
-3.285792350615802,-3.0489451735214947,8.81651023515508,2.5300348921896654,-3.661020835921574,1.8344725228700367
-3.3162818023510168,-3.0855553818807104,8.841810584076978,2.548379617418366,-3.8895855135338975,1.9549298578870296
-3.347137356169824,-3.1244512370160495,8.867294380251161,2.567928915997236,-4.080644577052764,2.0110211138701573
-3.3783818685399845,-3.165257682786577,8.892973669411134,2.5880391271359375,-4.220847895078519,1.9820482055657525
-3.41003444536785,-3.2074661617373623,8.918854060682493,2.607859609191595,-4.297043076520569,1.8474822483969975
-3.4421091069852237,-3.250436592502568,8.944932656774409,2.626334431675565,-4.298209981504903,1.5897222987792223
-3.4746134729102494,-3.293418692317617,8.971196001091164,2.642231654663357,-4.21783634923881,1.1974906799338825
-3.5075476598334254,-3.335597055810005,8.997618317637798,2.6542065614626957,-4.056280467821164,0.669219932252651
-3.5409036303915253,-3.3761598604882166,9.024160383252426,2.6608987607852224,-3.8224265563146216,0.015442992424142914
-3.5746652289964076,-3.4143841260513628,9.050769370860278,2.6610531907094637,-3.53390066017006,-0.7408588101847294
-3.608809070256921,-3.4497231326530633,9.077379902767372,2.6536446026076166,-3.2154159753127454,-1.5665711995180258
-3.643306301583452,-3.4818772924061907,9.10391634879345,2.637978890612436,-2.8954251087173217,-2.4231847944114837
-3.678125074507514,-3.510831543493364,9.130296137699574,2.6137470426683214,-2.6019130027226085,-3.272780825031837
-3.7132333899424474,-3.5368506735205902,9.156433608126257,2.581019234418003,-2.358507716752507,-4.083596567855874
-3.7486018966776533,-3.5604357506881152,9.182243800470436,2.5401832687394443,-2.1819139958606897,-4.833738548991572
-3.7842062541845345,-3.582254890646722,9.207645633157831,2.4918458832495287,-2.0811019812613822,-5.512417413294062
-3.820028803091002,-3.603065910459336,9.232564091990326,2.436721709116588,-2.0580477340110925,-6.118978275550549
-3.8560594621955953,-3.6236463877994467,9.256931309081493,2.3755319263610826,-2.1094266334734493,-6.660564506330928
-3.8922959260735897,-3.644740654134181,9.280686628345103,2.308926281297773,-2.228598306000054,-7.149347020791427
-3.9287433326149315,-3.6670266371941818,9.30377589115808,2.237432811089859,-2.4073935867703344,-7.600012810700864
-3.9654135989868733,-3.691100573061885,9.32615021926898,2.1614326829828503,-2.6374587987298095,-8.027862693587577
-4.002324604717492,-3.717475161049183,9.347764546098809,2.0811540560469743,-2.9111139337767424,-8.447583791556568
-4.039499356327983,-3.7465863003869506,9.368576086659278,1.9966782181314087,-3.2217975234291187,-8.872596719808172
-4.076965219331853,-3.778804275621242,9.388542868840592,1.9079522509333269,-3.5642123380181285,-9.31481718487437
-4.114753262088065,-3.8144463990014232,9.407622391349925,1.8148040790845832,-3.934281379534434,-9.784676458931893
-4.15289772607808,-3.8537892127967677,9.425770432140771,1.7169573144952643,-4.328999160166839,-10.291278176835444
-4.1914356182060475,-3.897079204398436,9.442940005285724,1.61404453272691,-4.7462355042078865,-10.84260678577314
-4.230406410250032,-3.944541559440515,9.459080450612992,1.5056184648691786,-5.184525748771136,-11.445734862491253
-4.2698518258444365,-3.996386816928226,9.474136635261685,1.391161116244266,-5.642864349247087,-12.106999361829448
-4.309815694013719,-4.052815460420697,9.488048246424128,1.2700911226259717,-6.120507947894661,-12.832131439407151
-4.350343848617926,-4.114020539899643,9.500749157650388,1.1417698082319,-6.616787501686203,-13.626332839885144
-4.391484054016923,-4.180188414916505,9.512166855732707,1.0055064798330486,-7.13092566461855,-14.494296038916456
-4.433285938166088,-4.25149767156269,9.522221920531036,0.8605635194438841,-7.661854185140262,-15.440167049000571
-4.475800914881715,-4.328116213414093,9.530827555725475,0.7061618489538783,-8.208025887073578,-16.467450268729852
