th1 (rad),w1 (rad/s),th2 (rad),w2 (rad/s),a1 (rad/s^2),a2 (rad/s^2)
2.950861228892653,1.1670044780596227,1.0938694921871,2.75409898396649,-6.812085962842562,-9.322994681400909
2.962531273673249,1.0988836184311972,1.1214104820267647,2.660869037152481,-6.408721126770903,-9.374716890045269
2.973520109857561,1.034796407163488,1.1480191723982895,2.5671218682520283,-6.0143772421378605,-9.416262226718649
2.983868073929196,0.9746526347421095,1.1736903910808099,2.4729592459848417,-5.630111812299987,-9.44945359886042
2.993614600276617,0.9183515166191096,1.1984199835406584,2.3784647099962375,-5.256813988268018,-9.475881225014575
3.002798115442808,0.8657833767364295,1.2222046306406207,2.2837058977460916,-4.8952234920697135,-9.496917622567585
3.0114559492101725,0.8168311418157324,1.2450416896180816,2.188736721520416,-4.5459488761542115,-9.513733632671151
3.01962426062833,0.7713716530541902,1.2669290568332858,2.0935993851937043,-4.209484799436365,-9.527315013591515
3.0273379771588718,0.7292768050598265,1.287865050685223,1.998326235057789,-3.8862280948680623,-9.53847922556072
3.03463074520947,0.6904145241111459,1.3078483130358007,1.9029414428021818,-3.576492484321357,-9.547892111947693
3.0415348904505817,0.6546495992679323,1.3268777274638226,1.807462521682705,-3.2805218641970577,-9.556084252175639
3.048081386443261,0.6218443806259617,1.3449523526806497,1.7119016791609485,-2.998502140271673,-9.563466821114352
3.054299830249521,0.591859359223245,1.3620713694722593,1.616267010949805,-2.730571633990984,-9.570346838130781
3.0602184238417536,0.5645536428833351,1.3782340395817574,1.5205635425684971,-2.4768301160352553,-9.576941727469826
3.065863960270587,0.5397853417229825,1.3934396750074423,1.4247941252937988,-2.237346547907826,-9.583393141292865
3.0712618136878165,0.5174118762439043,1.4076876162603802,1.3289601938808702,-2.012165629890768,-9.589780018776503
3.0764359324502557,0.4972902199449966,1.4209772181991889,1.233062393693105,-1.8013132652296941,-9.59613087043866
3.0814088346497055,0.4792770872926997,1.4333078421361198,1.1371010849887184,-1.6048010569866429,-9.60243528753177
3.0862016055226325,0.46322907672283326,1.444678852986007,1.0410767321134007,-1.4226299566239606,-9.60865468304339
3.090833896289861,0.44900277715659365,1.455089620307141,0.9449901852829667,-1.254793182897132,-9.61473227456509
3.095323924061427,0.43645484532762235,1.4645395221599706,0.8488428625373159,-1.1012785267466705,-9.620602320884776
3.0996884725147034,0.42544206006015567,1.4730279507853439,0.7526368393284681,-0.9620701531694791,-9.626198624336958
3.103942893115305,0.41582135852846086,1.4805543191786286,0.6563748530850986,-0.8371500049870575,-9.63146231028615
3.1081011067005893,0.4074498584785903,1.4871180677094795,0.560060229982237,-0.7264989063823224,-9.63634889407135
3.1121756052853753,0.40018486941476705,1.4927186700093018,0.46369674104152353,-0.6300974563341775,-9.64083464464491
3.116177453979523,0.3938838948514253,1.497355637419717,0.36728839459507445,-0.5479267938509899,-9.644922253240358
3.1201162929280373,0.3884046269129154,1.5010285213656678,0.2708391720626709,-0.4799693083396014,-9.648645814862286
3.1240003391971665,0.3836049338295194,1.5037369130862945,0.17435271391404802,-0.4262093596402146,-9.652075130298714
3.127836388535462,0.3793428402331172,1.505480440225435,0.07783196261106089,-0.38663406325894023,-9.655319336743986
3.131629816937793,0.3754764996005278,1.5062587598515456,-0.01872123075637898,-0.3612341871519315,-9.658529875966918
3.1353845819337987,0.3718641577290085,1.5060715475439819,-0.11530652951604817,-0.35000519704121746,-9.661902810195262
3.1391032235110887,0.3683641057585963,1.5049184822488213,-0.2119255576180008,-0.3529484776345791,-9.665680497397595
3.1427868645686745,0.3648346209822505,1.5027992266726413,-0.30858236259197674,-0.3700727472264157,-9.67015263926525
3.146435210778497,0.36113389350998637,1.4997134030467216,-0.40528388898462925,-0.4013956729098139,-9.67565671672115
3.150046549713597,0.3571199367808882,1.4956605641568754,-0.5020404561518408,-0.44694568296092435,-9.68257782895285
3.153617749081406,0.35265047995127896,1.4906401595953571,-0.5988662344413693,-0.5067639617881765,-9.691347952480937
3.1571442538809187,0.3475828403333972,1.4846514972509435,-0.6957797139661787,-0.5809066010853667,-9.702444636283667
3.1606200822842525,0.3417737743225435,1.4776937001112818,-0.7928041603290154,-0.6694468683904649,-9.716389147117281
3.164037820027478,0.33507930563863886,1.4697656585079917,-0.8899680518001881,-0.7724775410120321,-9.733744075479418
3.1673886130838644,0.3273545302285185,1.4608659779899897,-0.9873054925549823,-0.8901132390928247,-9.755110406717625
3.1706621583861496,0.31845339783759025,1.4509929230644398,-1.0848565966221586,-1.022492676245196,-9.781124053132187
3.1738466923645254,0.3082284710751383,1.4401443570982182,-1.1826678371534805,-1.169780729473879,-9.812451831109675
3.176928977075277,0.2965306637803995,1.4283176787266834,-1.2807923554645773,-1.332170211697662,-9.849786851914121
3.179894283713081,0.28320896166342285,1.4155097551720375,-1.3792902239837184,-1.509883209727775,-9.893843275351847
3.1827263733297153,0.2681101295661451,1.4017168529322004,-1.478228656737237,-1.703171827631405,-9.945350351759012
3.185407474625377,0.25107841128983105,1.386934566364828,-1.577682160254827,-1.9123181495277162,-10.00504564935559
3.187918258738275,0.23195522979455388,1.3711577447622798,-1.6777326167483828,-2.1376332065290855,-10.073667330784287
3.1902378110362206,0.21057889772926303,1.354380418594796,-1.7784692900562258,-2.379454699264871,-10.151945304568152
3.1923436000135132,0.1867843507366143,1.3365957256942338,-1.8799887431019073,-2.638143189798608,-10.24059103443373
3.1942114435208793,0.16040291883862823,1.3177958382632147,-1.9823946534462447,-2.9140764345280608,-10.34028574239411
3.1958154727092656,0.1312621544933476,1.2979718917287522,-2.0857975108701856,-3.207641482888863,-10.451666690996596
3.197128094254199,0.09918573966445898,1.2771139166200502,-2.1903141777801514,-3.5192241158747213,-10.575311177591367
3.1981199516508436,0.06399349850571176,1.2552107748422487,-2.296067289556065,-3.849195144734372,-10.711717821010142
3.1987598866359006,0.02550154705836804,1.232250101946688,-2.4031844677661667,-4.197893035878798,-10.861284671838153
3.199014902106484,-0.016477383300419944,1.2082182572690263,-2.5117973144845482,-4.5656022765511395,-11.024283636095163
3.19885012827348,-0.06213340606593134,1.183100284124181,-2.6220401508455,-4.9525268525031265,-11.20083067502152
3.1982287942128207,-0.1116586745909626,1.1568798826157258,-2.734048457595715,-5.3587581814696765,-11.390851239553198
3.197112207466911,-0.16524625640565938,1.1295393980397688,-2.8479569699912473,-5.784236845309861,-11.594040428650697
3.1954597449028546,-0.223088624858758,1.1010598283398563,-2.9638973742777543,-6.228707503625404,-11.809817441119375
3.193228858654267,-0.28537569989501205,1.0714208545970787,-3.081995548688948,-6.691666471136087,-12.037274040151688
3.190375101655317,-0.3522923646063729,1.0406008991101892,-3.202368289090465,-7.172301623570754,-12.275116992084703
3.186852178009253,-0.42401538084208046,1.0085772162192845,-3.325119459011312,-7.669424590791104,-12.521604803517057
3.1826120242008322,-0.5007096267499915,0.9753260216291714,-3.4503355070464825,-8.18139563424457,-12.77447959491146
3.1776049279333325,-0.5825235830924372,0.9408226665587065,-3.578080302995597,-8.706042224456251,-13.030895646112093
3.171779692102408,-0.6695840053369997,0.9050418635287505,-3.708389259456718,-9.240573168529817,-13.287347058861014
3.165083852049038,-0.7619897370222979,0.8679579709341834,-3.841262730045328,-9.781491216914894,-13.539598122977273
3.157463954678815,-0.8598046491914468,0.8295453436337301,-3.976658711275101,-10.324508417653032,-13.78262134684282
3.1488659081869006,-0.9630497333679772,0.7897787565209791,-4.114484924743529,-10.864470072451043,-14.01054968737236
3.139235410853221,-1.0716944340924877,0.7486339072735437,-4.2545904216172525,-11.395294926450966,-14.21665120890133
3.128518466512296,-1.1856473833569974,0.7060880030573712,-4.396756933706266,-11.909941074146216,-14.393336065717907
3.116661992678726,-1.3047467940984596,0.6621204337203085,-4.540690294363445,-12.400408786804496,-14.532207104633176
3.1036145247377416,-1.4287508819665047,0.616713530776674,-4.686012365409777,-12.85779276295328,-14.624166189454598
3.0893270159180766,-1.5573288095960376,0.5698534071225763,-4.832254027304323,-13.27239677111125,-14.659588130508306
3.0737537278221163,-1.69005277730715,0.521530866849533,-4.978849908609406,-13.633922805525458,-14.628572363747395
3.0568532000490447,-1.8263920053624048,0.4717423677634389,-5.12513563224688,-13.931744188639795,-14.52127876659882
3.0385892799954206,-1.9657094472488028,0.4204910114409701,-5.270348419912868,-14.15526706468401,-14.328347829272136
3.0189321855229325,-2.107262117895643,0.36778752724184144,-5.4136318982055895,-14.294377172382426,-14.041396689420559
2.997859564343976,-2.250205889619467,0.31365120825978554,-5.554045865099795,-14.339958769818066,-13.653571595272348
2.975357505447781,-2.393605477317648,0.2581107496087876,-5.690581581052518,-14.284460767589172,-13.160125105922607
2.9514214506746046,-2.5364500849935396,0.20120493379826243,-5.822182832111744,-14.122472830004131,-12.558974378672842
2.926056949824669,-2.677674813293581,0.142983105477145,-5.9477725758984725,-13.851263402062047,-11.851187461613243
2.899280201691733,-2.8161874473142015,0.08350537971816027,-6.066284450514605,-13.471224721515211,-11.041340152325116
2.871118327218591,-2.9508996945293537,0.02284253521301422,-6.176697852037856,-12.986169277316607,-10.137689027022963
2.841609330273297,-3.0807613873025197,-0.03892444330736434,-6.278074742308085,-12.403429632774813,-9.15211809624635
2.810801716400272,-3.204795683630268,-0.1017051907304452,-6.369595923270549,-11.733729490737987,-8.099837019355563
2.7787537595639695,-3.3221329785376477,-0.1654011499631507,-6.450594293464105,-10.990817003772152,-6.99883574210704
2.745532429778593,-3.4320411485753692,-0.22990709289779176,-6.520582650885175,-10.190878454512198,-5.869129778381045
2.7112120182928394,-3.5339499331204913,-0.2951129194066435,-6.579273948668986,-9.351777046907662,-4.731856977576016
2.6758725189616346,-3.627467703589568,-0.36090565889333337,-6.626592518444746,-8.492182816851779,-3.6083054239054606
2.639597841925739,-3.712389531758086,-0.42717158407778083,-6.662675572683801,-7.630671629031129,-2.518959441499709
2.6024739466081583,-3.788696248048397,-0.49379833980461885,-6.687865167098798,-6.784871834449012,-1.4826452907796968
2.5645869841276743,-3.8565449663928875,-0.5606769914756068,-6.702691620006595,-5.970726800113933,-0.5158415277166665
2.5260215344637453,-3.916252234394027,-0.6277039076756727,-6.707850035283762,-5.201922784815412,0.3678051162144157
2.486859012119805,-3.968271462242181,-0.6947824080285103,-6.704171984121618,-4.489508523330618,1.1577442251325882
2.4471762974973834,-4.013166547475487,-0.7618241278697265,-6.6925945418702915,-3.8417096987867945,1.8465771231043013
2.4070446320226284,-4.0515836444633555,-0.8287500732884294,-6.674128770639248,-3.263921820507875,2.429932871236602
2.366528795577995,-4.084222862668434,-0.8954913609948219,-6.649829441926882,-2.758851122286073,2.9062061867638755
2.3256865669513105,-4.111811373891295,-0.9619896554140906,-6.6207673800592435,-2.326765679290964,3.2762029214704262
2.2845684532123975,-4.135079030684205,-1.028197329214683,-6.588005350844539,-1.965817461752627,3.542736837490692
2.2432176629055554,-4.154737205301731,-1.0940773827231285,-6.552577982469632,-1.6723991402315945,3.710215245277268
2.201670290852538,-4.171461196704047,-1.1596031625478247,-6.515475830016859,-1.4415054589441902,3.784242641873899
2.1599556788854977,-4.185876251293489,-1.2247579208479933,-6.47763340359812,-1.2670763160155516,3.771262531472041
2.1180969163725627,-4.198547014453644,-1.2895342548839746,-6.4399207782834,-1.142306077209694,3.6782493526885633
2.076111446228026,-4.209970075225741,-1.3539334626668085,-6.403138284756515,-1.0599102644193397,3.51245558369648
2.0340117454757687,-4.220569177869935,-1.4179648455143736,-6.36801372891955,-1.0123461582826825,3.281213912954366
1.9918060536970694,-4.230692639452762,-1.4816449828035692,-6.335201589790007,-0.9919879030712667,2.991790804544673
1.9494991273025417,-4.240612518483474,-1.5449969987014693,-6.30528368174456,-0.9912594779679207,2.6512856261818807
1.907093002117707,-4.250525113263153,-1.608049835518915,-6.278770825482741,-1.0027305945949743,2.2665684408973257
1.8645877509850755,-4.260552419209103,-1.6708375437737424,-6.256105141073768,-1.019181433314582,1.8442492809417743
1.8219822267929844,-4.270744233542248,-1.7333985951844801,-6.23766264826435,-1.0336423747193313,1.3906719510001153
1.7792747844575618,-4.281080657289442,-1.7957752216671237,-6.223755928754349,-1.0394147226825017,0.9119259274952908
1.7364639778846673,-4.291474804516267,-1.8580127809546672,-6.214636669479396,-1.0300780152519162,0.4138705681962859
1.6935492298395047,-4.301775584668786,-1.920159147649461,-6.210497963797433,-0.9994890009133731,-0.09783349077743358
1.650531473992817,-4.31177047467792,-1.9822641272874353,-6.2114762987052075,-0.941776802837702,-0.6176902652524383
1.6074137692460377,-4.321188242706297,-2.0443788902744875,-6.217653201357732,-0.8513382522664293,-1.1403356788601946
1.5642018868189749,-4.329701625228961,-2.1065554222880647,-6.2290565581463335,-0.7228368671501346,-1.6605097301443912
1.5209048705666852,-4.336929993900463,-2.168845987869528,-6.245661655447777,-0.5512084854565501,-2.1730368410779657
1.4775355706276805,-4.342442078755028,-2.231302604424006,-6.267392023858557,-0.3316761197161337,-2.6728174172501533
1.4341111498401302,-4.34575883995219,-2.2939765246625914,-6.294120198031059,-0.05977615315450924,-3.154833452442284
1.3906535614406084,-4.346356601483735,-2.356917726642902,-6.325668532555482,0.26860248860817487,-3.6141708118658418
1.3471899954257711,-4.3436705765976535,-2.420174411968457,-6.36181024067414,0.657165126058794,-4.046060577317566
1.3037532896597945,-4.337098925337066,-2.483792514375198,-6.402270846447316,1.1091437093580772,-4.445941475945176
1.2603823004064238,-4.326007488243485,-2.5478152228396715,-6.446730261206768,1.6272153040952402,-4.809544881408351
1.217122225523989,-4.309735335202533,-2.6122825254517394,-6.4948257100208515,2.2134082668047825,-5.133003113917295
1.1740248721719637,-4.287601252534485,-2.677230782551948,-6.546155741160025,2.8689990041057833,-5.412980727015238
1.1311488596466188,-4.258911262493427,-2.7426923399635483,-6.600285548430177,3.594403731284359,-5.646827129608902
1.0885597470216846,-4.222967225180584,-2.80869519544785,-6.656753819726267,4.389071334502391,-5.832747263632233
1.0463300747698787,-4.17907651183556,-2.875262733645113,-6.715081292362589,5.251385196814591,-5.969985204329169
1.0045393096515232,-4.126562659867414,-2.942413546568739,-6.774781144405881,6.178583516927245,-6.059013599968246
0.963273683052849,-4.064776824698141,-3.0101613580127977,-6.835371280405563,7.16670902100727,-6.101720022503609
0.9226259148058675,-3.993109734488068,-3.078515070816853,-6.896388480630599,8.210599788858456,-6.10157983295637
0.8826948174609869,-3.9110037365994836,-3.1474789556231593,-6.957404278960163,9.30393291775248,-6.0638044018147825
0.843584780094992,-3.8179644074219588,-3.2170529984127607,-7.018042322978311,10.439331688844163,-5.995453811249287
0.8054051360207725,-3.713571090533517,-3.2872334216425436,-7.077996861090804,11.60854462461175,-5.905504814503187
0.7682694251154373,-3.5974856442873997,-3.3580133902534515,-7.1370519092358355,12.802701318138716,-5.804868052346927
0.7322945686725633,-3.4694586311060127,-3.42938390934581,-7.1951005897593046,14.012645361525557,-5.706353377777691
0.6975999823615031,-3.329332177490757,-3.501334915243403,-7.2521641235370815,15.22933951391023,-5.624588457224063
0.6643066605865955,-3.177038782351655,-3.5738565564787734,-7.308410008109322,16.44433305837253,-5.575903212132321
0.6325362727630789,-3.01259545176793,-3.6469406565598668,-7.364169040230646,17.650276884694268,-5.578200558862384
0.6024103182453996,-2.836092682920987,-3.720582346962173,-7.4199510458192695,18.841469026731573,-5.65084160852702
0.5740493914161897,-2.6476779926536715,-3.794781857420366,-7.47645946190454,20.0144128953002,-5.814580325458504
0.547572611489653,-2.4475338637006696,-3.8695464520394114,-7.534605265159125,21.168372719699125,-6.09158807429131
0.5230972728526463,-2.2358501365036783,-3.9448925046910026,-7.595521145902038,22.305915741612775,-6.505612183968555
0.5007387714876095,-2.0127909790875504,-4.020847716150023,-7.660577267741723,23.433437888066145,-7.082314455587076
0.48061086169673395,-1.778456600206889,-4.09745348882744,-7.731400412297594,24.56167756364948,-7.84983514523637
0.46282629569466505,-1.532839824570394,-4.174767492950416,-7.809898763749958,25.706228205278215,-8.839624225274742
0.4474978974489611,-1.2757775425176119,-4.252866480587915,-7.898295006002705,26.8880595589259,-10.087571168555934
0.434740122023785,-1.0068969469283529,-4.331849430647942,-7.999170717688265,28.13404126382876,-11.635438113002392
0.42467115255450144,-0.7255565342900652,-4.411841137824825,-8.115525098818289,29.47741239194595,-13.532538007467991
0.41741558721160077,-0.43078241037060566,-4.492996388813008,-8.250850478892968,30.958020251623736,-15.837452228625661
0.4131077631078947,-0.1212022078543683,-4.575504893601938,-8.409225001179225,32.62188354353843,-18.619248444010896
0.411895741029351,0.20501662758101602,-4.6595971436137305,-8.595417485619334,34.51905468561916,-21.956916806170458
0.4139459073051612,0.5502071744372077,-4.745551318469924,-8.81498665368104,36.697517525310616,-25.934114955237437
0.41944797904953324,0.9171823496903139,-4.833701185006735,-9.074327803233414,39.18824567342837,-30.62280557487453
0.4286198025464364,1.3090648064245975,-4.924444463039069,-9.38055585898216,41.97117868070483,-36.04202837252391
0.44171045061068237,1.728776593231646,-5.01825002162889,-9.740976142707398,44.90148132228986,-42.06359297976959
0.4589982165429988,2.1777914064545447,-5.115659783055964,-10.161612072505093,47.55826790811107,-48.21205978819457
0.48077613060754426,2.6533740855356553,-5.217275903781015,-10.643732670387038,48.962438528043606,-53.2827024893877
0.5073098714629009,3.1429984708160914,-5.323713230484886,-11.176559695280915,47.1543092824812,-54.75662653671337
0.5387398561710618,3.6145415636409033,-5.435478827437695,-11.724125960648049,38.92592702139645,-48.403117074465456
0.5748852718074708,4.003800833854868,-5.552720087044175,-12.208157131392703,20.84988073181701,-29.620734403991552
0.6149232801460195,4.212299641173038,-5.674801658358103,-12.504364475432618,-6.844431730373935,1.359209929181315
0.6570462765577498,4.143855323869299,-5.799845303112429,-12.490772376140805,-36.28998209067119,34.15723487480503
0.6984848297964428,3.7809555029625868,-5.924753026873837,-12.149200027392755,-56.773177094300145,54.852392594084975
0.7362943848260687,3.2132237320195856,-6.046245027147765,-11.600676101451905,-65.01718805178967,59.721845259909045
0.7684266221462646,2.563051851501689,-6.162251788162284,-11.003457648852814,-65.16273791403337,54.7539248815333
0.7940571406612814,1.9114244723613552,-6.272286364650812,-10.455918400037481,-62.000453965579766,46.40987812222534
0.813171385384895,1.2914199327055575,-6.376845548651187,-9.991819618815228,-58.163956404813746,38.07318173083717
0.8260855847119506,0.7097803686574201,-6.47676374483934,-9.611087801506857,-54.65273855239348,30.933463557804128
0.8331833883985248,0.16325298313348535,-6.572874622854409,-9.301753165928815,-51.70703383216348,25.217490610368564
0.8348159182298597,-0.3538173551881495,-6.665892154513696,-9.049578259825129,-49.28523224300888,20.828361855708216
0.8312777446779782,-0.8466696776182383,-6.756387937111947,-8.841294641268046,-47.26205767496395,17.59620754893973
0.8228110479017958,-1.3192902543678777,-6.844800883524628,-8.665332565778648,-45.50093973944919,15.360410521242672
