th1 (rad),w1 (rad/s),th2 (rad),w2 (rad/s)
2.02005397556388,-2.2743678865045336,1.3140912902884878,2.059652594104134
1.997310296698835,-2.38519754517672,1.3346878162295293,2.0827629213126384
1.9734583212470678,-2.499529906223155,1.3555154454426557,2.1126183904921105
1.9484630221848362,-2.61756262261818,1.3766416293475767,2.149282105787358
1.9222873959586544,-2.7393892127667168,1.3981344504054503,2.1926480479625354
1.8948935038309873,-2.864950264746843,1.4200609308850756,2.2423667448097353
1.8662440011835189,-2.9939709233207843,1.4424845983331729,2.2977508293853637
1.836304291950311,-3.1258852116409384,1.4654621066270266,2.357661389721493
1.8050454398339015,-3.25975188907305,1.4890387205242415,2.420382034232584
1.772447920943171,-3.394173618524263,1.5132425408665673,2.4834978230409677
1.7385061847579284,-3.5272412933373616,1.5380775190969769,2.543810766952094
1.7032337718245547,-3.656536494611799,1.5635156267664978,2.597339675210708
1.6666684068784368,-3.7792315705745683,1.5894890235186048,2.6394616796448234
1.6288760911726912,-3.8923190699427765,1.615883640315053,2.6652419309025954
1.5899529004732633,-3.992970499171889,1.6425360596240788,2.6699527787556936
1.5500231954815444,-4.078969093894988,1.6692355874116358,2.6497046852264363
1.5092335045425946,-4.149104232770682,1.6957326342639,2.6020288909817157
1.4677424622148878,-4.203395753586325,1.7217529231737172,2.5262226603487097
1.4257085046790245,-4.243063476841346,1.7470151497772044,2.4233331654049275
1.3832778699106112,-4.270254848060208,1.7712484814312537,2.2957941276743052
1.3405753214300091,-4.287633933365943,1.7942064227079968,2.1468586319607135
1.2976989820963496,-4.297965457433558,1.815675009027604,1.9800170142521243
1.254719327522014,-4.303793443969272,1.8354751791701251,1.7985425906538965
1.2116813930823214,-4.307251864516166,1.8534606050766642,1.6052211248996857
1.1686088744371597,-4.309993738032937,1.8695128163256611,1.4022477266363549
1.1255089370568303,-4.313201532363353,1.8835352935920247,1.1912406886265214
1.0823769217331969,-4.317640732501091,1.89544770047829,0.9733194118032398
1.039200514408186,-4.323728263971444,1.9051808945963222,0.7492066806668726
0.9959632317684715,-4.331598952598427,1.912672961402991,0.5193313009847242
0.9526472422424872,-4.341162148964217,1.917866274412838,0.28391948644095266
0.909235620752845,-4.352146253112652,1.9207054692772476,0.04307116949282214
0.8657141582217185,-4.364131822178324,1.9211361809721759,-0.20317850011678504
0.8220728399999353,-4.376575192037214,1.9191043959710081,-0.4548105060560568
0.7783070880795632,-4.388824864152243,1.9145562909104477,-0.711783824366392
0.7344188394380408,-4.40013279485591,1.9074384526667838,-0.9740057001293949
0.6904175114894817,-4.409662450509362,1.8976983956654898,-1.241308736514597
0.646320886984388,-4.416495190547759,1.8852853083003438,-1.5134337114668557
0.6021559350789105,-4.419636263110549,1.8701509711856752,-1.7900175033001804
0.557959572447805,-4.418021455369829,1.8522507961526733,-2.070585883635238
0.5137793578941068,-4.4105252248882465,1.8315449373163208,-2.3545512154299173
0.4696741056452243,-4.395970935011065,1.8079994251620217,-2.641215276155532
0.42571439629511365,-4.373143611861712,1.7815872724004664,-2.929777515492842
0.3819829601764965,-4.340805421348586,1.752289497245538,-3.219349058408896
0.33857490596301065,-4.297713824698928,1.720096006661449,-3.5089726846070954
0.29559776771602136,-4.242642108958758,1.685006279815378,-3.79764886308211
0.2531713466264338,-4.174401709249062,1.6470297911845568,-4.084367708644517
0.2114273295339432,-4.09186545319219,1.6061861140981117,-4.368146473495551
0.1705086750020213,-3.9939905816505905,1.5625046493631563,-4.648071914342651
0.13056876918551538,-3.8798401558112663,1.5160239302197298,-4.923346612400835
0.09177036762740272,-3.74860127461854,1.4667904640957214,-5.193338101945633
0.054284354881217314,-3.5995984264102536,1.414857083076265,-5.457629515899315
0.018288370617114774,-3.4323003117529005,1.3602807879172718,-5.716070413698263
-0.01603463250041423,-3.2463186260273136,1.3031200837802892,-5.96882653634363
-0.048497818760687365,-3.0413976031875616,1.243431818416853,-6.216427434344212
-0.07891179479256298,-2.8173936216156217,1.1812675440734108,-6.459811198803789
-0.1070857310087192,-2.5742449005475363,1.116669432085373,-6.700365797706563
-0.13282818001419455,-2.3119323588281597,1.0496657741083073,-6.939966583533383
-0.15594750360247614,-2.0304342599337795,0.9802661082729734,-7.181009029635178
-0.17625184620181394,-1.7296797378407134,0.9084560179766217,-7.4264340003857905
-0.19354864358022109,-1.40951051644628,0.8341916779727637,-7.679738626767499
-0.2076437487446839,-1.0696677147360643,0.7573942917050888,-7.944956849282932
-0.21834042589204453,-0.709834601596399,0.6779447232122594,-8.226575664236954
-0.2254387719080085,-0.3297919630482951,0.5956789665698898,-8.529318445266501
-0.22873669153849147,0.07021067474786469,0.5103857821172249,-8.857662655574607
-0.22803458479101282,0.4886853761058856,0.4218091555614788,-9.214848129382451
-0.22314773102995397,0.9214372195266296,0.3296606742676543,-9.60096309640954
-0.21393335883468767,1.3589813774476118,0.23365104330355888,-10.009519395440241
-0.20034354506021154,1.7825332237212397,0.13355584934915646,-10.422032250808419
-0.18251821282299915,2.1592223744982078,0.029335526841072268,-10.80138041328366
-0.16092598907801708,2.440097920005222,-0.07867827729176433,-11.088654252351278
-0.13652500987796487,2.5688493758059527,-0.18956481981527712,-11.214159526793459
-0.11083651611990535,2.50709474220175,-0.3017064150832117,-11.130526998414446
-0.08576556869788785,2.262253651524432,-0.4130116850673562,-10.849087167727445
-0.06314303218264353,1.8866838414698899,-0.5215025567446306,-10.437663751294897
-0.04427619376794463,1.4454714969827198,-0.6258791942575797,-9.977421221483654
-0.029821478798117432,0.9878191668937555,-0.7256534064724162,-9.52612694162865
-0.01994328712917988,0.5408859828430026,-0.8209146758887027,-9.111806261977067
-0.014534427300749853,0.11621871277684398,-0.9120327385084734,-8.742419713322397
-0.013372240172981413,-0.28289984205643154,-0.9994569356416974,-8.415943227744004
-0.016201238593545726,-0.6567853907493574,-1.0836163679191373,-8.126470999671431
-0.022769092501039298,-1.0069801889605927,-1.1648810779158516,-7.867163577626397
-0.032838894390645225,-1.3351931885655404,-1.2435527136921156,-7.631474580801961
-0.046190826276300626,-1.642886052281447,-1.3198674595001352,-7.413575127380722
-0.06261968679911509,-1.9311538025206305,-1.3940032107739424,-7.208440782893946
-0.08193122482432139,-2.2007321879083777,-1.466087618602882,-7.0118127712758165
-0.10393854670340516,-2.4520550511402264,-1.5362057463156402,-6.820123373174999
-0.12845909721480742,-2.6853275372464616,-1.6044069800473901,-6.630420473496841
-0.15531237258727204,-2.900600206958953,-1.6707111847823586,-6.440302420809809
-0.18431837465686157,-3.097837609818737,-1.7351142089904568,-6.247864557279503
-0.21529675075504895,-3.2769785459438316,-1.7975928545632518,-6.051655147938636
-0.24806653621448727,-3.437986825688567,-1.8581094060426382,-5.850637494767419
-0.2824464044713729,-3.5808920563234,-1.9166157809903124,-5.644155217694524
-0.3182553250346069,-3.7058203881808716,-1.9730573331672576,-5.431898330207735
-0.3553135289164156,-3.8130154619400747,-2.027376316469335,-5.213868514944401
-0.3934436835358163,-3.9028500870606067,-2.079515001618779,-4.990342762051618
-0.4324721844064224,-3.975829455558749,-2.1294184292392955,-4.7618351932088965
-0.47223047896200987,-4.032586936985501,-2.1770367811713847,-4.529057418514066
-0.5125563483318649,-4.073873687192658,-2.2223273553565255,-4.292878147036279
-0.5532950852037914,-4.100543418849021,-2.2652561368268884,-4.054282996440005
-0.5943005193922817,-4.1135337189859404,-2.3057989667912886,-3.814335536426585
-0.6354358565821411,-4.113845260991452,-2.3439423221555544,-3.574140576538421
-0.6765743091920556,-4.102520155768733,-2.3796837279209386,-3.3348105969867348
-0.7175995107497429,-4.080620534138444,-2.413031833890806,-3.0974360483469
-0.7584057160911274,-4.049208266739791,-2.444006194374275,-2.8630600374360746
-0.7988977987585253,-4.009326525096416,-2.4726367947486354,-2.632657694623866
-0.8389910640094894,-3.9619836828365096,-2.4989633716948743,-2.407120300605462
-0.8786109008378545,-3.908139861430527,-2.523034574700929,-2.1872440526209713
-0.9176922994521598,-3.8486962495139094,-2.544907015227139,-1.9737231815637548
-0.9561792619472989,-3.784487175291805,-2.5646442470427764,-1.7671469988943223
-0.9940241337002169,-3.7162747913435203,-2.5823157170317197,-1.5680003587342004
-1.031186881613652,-3.644746141560885,-2.597995720619062,-1.3766669657650925
-1.067634343029261,-3.5705123200674023,-2.611762390276713,-1.1934349407557634
-1.103339466229935,-3.494109399198738,-2.6236967396842705,-1.018504067804539
-1.1382805602219224,-3.416000794205432,-2.633881780362316,-0.8519941845184589
-1.1724405681639767,-3.3365807417831435,-2.6424017222075005,-0.6939542315516942
-1.205806375581808,-3.2561785931160503,-2.6493412645230174,-0.5443715444622543
-1.2383681615129685,-3.1750636552579703,-2.65478497996764,-0.40318104258905757
-1.2701187980655482,-3.093450353248147,-2.658816790393531,-0.27027404145364536
-1.3010533015980297,-3.0115035258860208,-2.6615195308080675,-0.14550648308647937
-1.3311683368568898,-2.929343707830564,-2.662974595638932,-0.02870643992598508
-1.3604617739351954,-2.8470522876441406,-2.663261660038192,0.08031919905806127
-1.3889322968116369,-2.764676464245655,-2.6624584680476113,0.18177890722475856
-1.4165790614540934,-2.68223395222582,-2.660640678975364,0.2758915758827406
-1.4434014009763516,-2.5997174093168454,-2.6578817632165364,0.362882431017755
-1.46939857506952,-2.5170985770434995,-2.654252938906359,0.44297977498387736
-1.494569560839955,-2.4343321384852112,-2.6498231411565203,0.5164125022293263
-1.518912882224807,-2.351359305565786,-2.644659016134227,0.5834083277753654
-1.5424264752804648,-2.268111152855657,-2.6388249328564735,0.6441926600517716
-1.5651075868090214,-2.184511716060385,-2.6323830062559557,0.6989880447739849
-1.5869527039696252,-2.100480871740323,-2.6253931258082157,0.7480141029952257
-1.6079575126870285,-2.015937010940872,-2.6179129847782634,0.791487883698141
-1.6281168827964372,-1.9307995139163465,-2.609998105941282,0.8296245489870756
-1.6474248779356007,-1.8449910266421994,-2.6017018604514113,0.862638308053876
-1.6658747882020226,-1.7584395330071343,-2.5930754773708724,0.8907435148195005
-1.683459183532094,-1.6710802101675475,-2.5841680422226774,0.9141558439187171
-1.7001699856337695,-1.5828570492515033,-2.5750264837834904,0.9330934610699133
-1.7159985561262845,-1.4937242201089556,-2.565695549172791,0.9477781075026924
-1.730935798327374,-1.4036471577237697,-2.5562177680977642,0.9584360246154058
-1.7449722699046117,-1.3126033496796372,-2.54663340785161,0.9652986548644018
-1.7580983034014082,-1.2205828089251767,-2.536980421302966,0.9686030682383076
-1.77030413149066,-1.1275882239400177,-2.527294390620583,0.9685920803674827
-1.7815800137300601,-1.0336347888600392,-2.517608469816908,0.9655140477563998
-1.7919163616186606,-0.9387497284437745,-2.507953329339344,0.959622346770781
-1.8013038589030983,-0.8429715459403883,-2.4983571058716363,0.9511745644638517
-1.8097335743625023,-0.7463490347552157,-2.488845360226998,0.940431449458872
-1.8171970647100544,-0.6489401060537916,-2.4794410457324094,0.9276556882455456
-1.8236864657705922,-0.5508104929541229,-2.470164488849954,0.9131105848896499
-1.8291945707001334,-0.4520323968333152,-2.4610333830010576,0.8970587291582564
-1.8337148946684665,-0.3526831419863828,-2.452062795709475,0.8797607388072838
-1.8372417260883303,-0.25284390131722134,-2.4432651883214023,0.8614741562435214
-1.8397701651015024,-0.15259854823748936,-2.434650446758967,0.842452568531065
-1.8412961505838772,-0.052032679190810546,-2.4262259210736565,0.8229450038345827
-1.8418164773757852,0.04876716183647101,-2.417996471035311,0.8031956382985158
-1.8413288057574206,0.1497140397202913,-2.4099645146523256,0.7834438266340055
-1.8398316653602178,0.25072096279850525,-2.4021300763859856,0.7639244488850933
-1.8373244557322328,0.35170100644580704,-2.3944908318971345,0.7448685463612523
-1.8338074456677746,0.4525672482264781,-2.387042146433522,0.7265042026691972
-1.8292817731855098,0.5532325467847102,-2.37977710440683,0.7090576119482335
-1.8237494477176626,0.6536092035616923,-2.372686528287348,0.6927542662907828
-1.8172133556820456,0.7536085505640804,-2.3657589856244403,0.6778201881213839
-1.8096772701764048,0.8531405087410276,-2.3589807837432266,0.664483131010265
-1.8011458650889944,0.9521131601634046,-2.352335952433124,0.6529736738594865
-1.7916247334873603,1.050432373327247,-2.345806215694529,0.6435261383698726
-1.7811204097540878,1.1480015147719613,-2.33937095431083,0.6363792678555028
-1.7696403946063681,1.2447212721142955,-2.333007161632275,0.6317766164370264
-1.757193181885225,1.3404896039129504,-2.3266893954679047,0.6299666109590046
-1.7437882858460956,1.4352018209293609,-2.3203897293583147,0.6312022630871603
-1.729436267636802,1.5287507918541987,-2.314077706727443,0.6357405252790623
-1.71414875971826,1.6210272550286902,-2.307720301474652,0.6438413008915698
-1.6979384871679732,1.7119202067792179,-2.3012818884657364,0.6557661346855554
-1.680819285100181,1.8013173274166336,-2.294724227118881,0.6717766244424009
-1.6628061118260147,1.8891053984296482,-2.288006460874457,0.6921326063541797
-1.643915057841718,1.975170659547822,-2.2810851348109153,0.7170901754298026
-1.62416335124624,2.0593990526384736,-2.273914233056617,0.7468996067198699
-1.6035693607198551,2.14167630109536,-2.2664452369894184,0.7818032433553719
-1.5821525977089015,2.2218877784811917,-2.258627204555865,0.8220334132467976
-1.5599337199240895,2.2999181284363406,-2.250406870423397,0.8678104282319304
-1.536934538639726,2.3756506087481957,-2.2417287661410774,0.9193407083063657
-1.513178032552244,2.448966145279631,-2.232535359058014,0.976815060444614
-1.4886883710994476,2.5197420953561194,-2.222767208453568,1.040407127742692
-1.4634909501458864,2.5878507343624277,-2.212363137176141,1.1102720115664175
-1.437612442802262,2.653157492924583,-2.201260417060477,1.186545058373868
-1.4110808678730162,2.7155189845181464,-2.1893949664767383,1.2693407949926385
-1.3839256780278348,2.7747808742085605,-2.176701558526812,1.358751992175323
-1.3561778692857491,2.8307756482583923,-2.1631140386050585,1.454848836688647
-1.3278701128031651,2.883320351483208,-2.148565550238172,1.5576781971183244
-1.2990369092883332,2.9322143646016716,-2.132988768266989,1.6672629777698933
-1.2697147656423164,2.9772372975910453,-2.1163161384892897,1.7836015680106923
-1.239942392666406,3.018147077432442,-2.0984801228091827,1.9066674103987586
-1.2097609218920815,3.054678309778399,-2.079413448705195,2.0364087290761046
-1.1792141387942976,3.086540994083051,-2.059049361414434,2.1727484791286793
-1.148348728853467,3.113419670580983,-2.037321876623147,2.3155845967857536
-1.1172145321476572,3.134973075061579,-2.0141660306552893,2.4647906481953137
-1.0858648013970413,3.1508343734719584,-1.9895181241733362,2.620216989700735
-1.0543564576623217,3.160612042807886,-1.9633159542763288,2.781692563545028
-1.0227503372342428,3.1638914574466366,-1.9354990286408784,2.9490274580431786
-0.9911114226597765,3.1602372312365876,-1.9060087540604467,3.122016358541539
-0.9595090503474106,3.149196355964466,-1.8747885904750312,3.3004430026312424
-0.928017086787766,3.130302167714817,-1.8417841604487188,3.4840857273054313
-0.8967140651106178,3.1030791666971527,-1.8069433031756645,3.6727241534974793
-0.8656832734436463,3.067048717562297,-1.7702160616406897,3.8661469899772793
-0.8350127862680233,3.0217356725959736,-1.731554591740917,4.064160847299981
-0.8047954295420636,2.9666759992516307,-1.690912983267917,4.266599823768723
-0.7751286695495473,2.901425570607588,-1.64824698503023,4.473335444777595
-0.7461144138434714,2.825570413225856,-1.603513630582454,4.684286282545424
-0.7178587097112129,2.738738931174314,-1.5566707677569998,4.8994262217789695
-0.6904713203994698,2.6406169795443852,-1.50767650553921,5.118789817830993
-0.6640651506040259,2.5309672039392033,-1.4564886073609,5.3424724428030705
-0.6387554785646339,2.409654872846414,-1.4030638829328692,5.5706218248535375
-0.6146589298361698,2.276683607918674,-1.347357664684334,5.803416011980715
-0.591892093756983,2.132246076057742,-1.2893235045645268,6.041020557591944
-0.5705696329964056,1.9767969363127373,-1.2289132989886073,6.283514664555324
-0.5508016636332782,1.8111580986650386,-1.1660781523430541,6.530772105729178
-0.5326900826466279,1.636669250859578,-1.1007704312857622,6.782278377697758
-0.5163233901380321,1.4553983731825562,-1.0329476475087846,7.036862278505691
-0.5017694064062065,1.2704245120546598,-0.9625790247237277,7.292321867741498
-0.4890651612856599,1.0861921305717877,-0.8896558060463127,7.544939874509302
-0.478203239979942,0.9089021980326899,-0.8142064073012196,7.78892653266445
-0.4691142179996151,0.74683657299668,-0.7363171419745751,8.015916994432324
-0.4616458522696483,0.6104052366695476,-0.6561579720302518,8.214792750531911
-0.45554179990295285,0.5115967063565771,-0.5740100445249328,8.372245700225678
-0.4504258328393871,0.46251811056169406,-0.490287587522676,8.474504008511628
-0.44580065173377015,0.47301508050892044,-0.4055425474375597,8.51024683040121
-0.44107050092868094,0.548012337364473,-0.3204400791335476,8.47388299064
-0.4355903775550362,0.6858161102321653,-0.2357012492271476,8.367587704040051
-0.42873221645271453,0.8784340907341235,-0.1520253721867471,8.200756540302589
-0.4199478755453733,1.113824683657049,-0.07001780678372123,7.987053242466455
-0.4088096287088028,1.3788452707019716,0.009852725640943333,7.740696726269787
-0.39502117600178305,1.661567355899551,0.0872596929036412,7.473697617147923
-0.37840550244278753,1.9524034717246126,0.16199666907512045,7.194689204592905
-0.3588814677255414,2.2442491158589597,0.2339435611210495,6.909013309267318
-0.3364389765669518,2.5321087990970472,0.30303369421372267,6.619414367143891
-0.3111178885759813,2.8125813874360657,0.36922783788516156,6.326852819875128
-0.2829920747016207,3.0833983082607572,0.43249636608391284,6.03120145293736
-0.2521580916190131,3.3430763689767695,0.49280838061328647,5.731761032634438
-0.2187273279292454,3.590682052738584,0.5501259909396309,5.427611012972087
-0.18282050740185957,3.825682289584568,0.6044021010693518,5.117833980883091
-0.1445636845060139,4.047854779419044,0.6555804408781827,4.801651014270065
-0.10408513671182346,4.257235786728869,0.7035969510208834,4.478496636456555
-0.061512778844534766,4.45408916973212,0.7483819173854489,4.148053679409309
-0.016971887147213566,4.638885301081207,0.789862454179542,3.810262179178437
0.02941696586359851,4.812282106879225,0.8279650759713264,3.4653125156104427
0.07753978693239076,4.975102820472162,0.8626182011274308,3.113630912061438
0.12729081513711238,5.128306419602579,0.8937545102480452,2.755864643309171
0.17857387933313817,5.272947238231444,0.9213131566811369,2.3928745059310783
0.2313033517154526,5.410119999220037,0.9452419017404476,2.0257430667535496
0.285404551707653,5.540885558298854,0.9654993324079831,1.655808775838696
0.3408134072906415,5.6661711088354165,0.9820574201663701,1.284738001380423
0.3974751183789957,5.786636845274903,0.9949048001801744,0.9146488768011338
0.4553414868317447,5.902500086438967,1.0040512889481856,0.5483011819261112
0.5143664876961344,6.013309766657529,1.0095343007674467,0.1893622756655331
0.5744995853627096,6.117673174175797,1.011427923524102,-0.15725551327291992
0.6356763171044676,6.2129596256875965,1.0098553683913727,-0.48502514605079644
0.6978059133613436,6.295050438643856,1.0050051169308647,-0.7855073664668655
0.7607564177477821,6.3582730975356485,0.997150043266196,-1.0483284911082347
0.8243391487231386,6.395727823697474,0.9866667583551137,-1.2617352268913067
0.8882964269601134,6.4002164973165465,0.9740494060862007,-1.4140251719180363
0.9522985919332788,6.36580519393794,0.9599091543670204,-1.4958865462673594
