th1 (rad),w1 (rad/s),th2 (rad),w2 (rad/s),a1 (rad/s^2),a2 (rad/s^2)
1.1743017259692896,2.948109205704246,2.3279789084888547,0.4594062239427152,-6.417548201571421,-12.468606385637466
1.2037828180263321,2.883933723688532,2.3325729707282816,0.33472016008634053,-6.573548220802265,-11.7972913993146
1.2326221552632175,2.8181982414805096,2.335920172329145,0.2167472460931945,-6.715559806502552,-11.132336411412561
1.2608041376780226,2.751042643415484,2.3380876447900767,0.10542388197906889,-6.846714739413831,-10.475684999079382
1.2883145641121774,2.6825754960213457,2.339141883609867,0.0006670319882750714,-6.969821335298036,-9.828944419918539
1.315140319072391,2.6128772826683653,2.33914855392975,-0.09762241221091032,-7.087360017788368,-9.193434924249194
1.3412690918990746,2.5420036824904817,2.338172329807641,-0.18955676145340228,-7.201482335257105,-8.570241694969791
1.3666891287239795,2.4699888591379104,2.3362767621931066,-0.2752591784031002,-7.314012538962034,-7.960267481486739
1.3913890173153587,2.39684873374829,2.3335241704090754,-0.3548618532179676,-7.426451137823097,-7.364284184607217
1.4153575046528415,2.3225842223700592,2.329975551876896,-0.42850469506403976,-7.539980147319289,-6.782981791222078
1.438583346876542,2.2471844208968665,2.3256905049262553,-0.4963345129762605,-7.655470039276546,-6.217013159666644
1.4610551910855107,2.170629720504101,2.3207271597964927,-0.5585046445729269,-7.773488658143478,-5.66703323611714
1.4827614882905518,2.0928948339226663,2.3151421133507633,-0.6151749769340983,-7.8943125790023645,-5.133731363703696
1.5036904366297785,2.013951708132643,2.3089903635814224,-0.6665122905711353,-8.017941523518221,-4.6178554585217375
1.5238299537111049,1.9337722928974606,2.302325240675711,-0.7126908451563526,-8.14411650327947,-4.120227001254711
1.5431676766400795,1.852331127864666,2.2951983322241474,-0.7538931151688997,-8.272342309393196,-3.6417460575909377
1.5616909879187262,1.769607704770734,2.2876594010724585,-0.790310575744809,-8.401914802773932,-3.1833859146052625
1.5793870649664334,1.6855885567429947,2.2797562953150106,-0.8221444348908616,-8.53195318118721,-2.7461774093377826
1.5962429505338633,1.6002690249311227,2.271534850966102,-0.8496062089842394,-8.6614370199654,-2.3311836164811233
1.6122456407831747,1.5136546547314687,2.2630387888762598,-0.8729180451490507,-8.78924743204867,-1.939466218958706
1.6273821873304894,1.425762180410982,2.2543096084247694,-0.8923127073386378,-8.91421121355459,-1.572045551290461
1.6416398091345992,1.336620068275436,2.245386481351383,-0.9080331628515423,-9.035146389413446,-1.22985690737763
1.6550060098173536,1.2462686043813014,2.236306149722868,-0.9203317319253186,-9.15090721117403,-0.9137061608316034
1.6674686958611666,1.1547595322695612,2.2271028324036144,-0.9294687935336347,-9.260426443636042,-0.6242279821271238
1.6790162911838622,1.0621552678332007,2.217808144468278,-0.9357110733549059,-9.362752752269182,-0.3618498977054865
1.6896378438621942,0.9685277403105088,2.208451033734729,-0.9393295723319608,-9.457081190054948,-0.12676509942775857
1.6993231212652993,0.8739569284099593,2.199057738011409,-0.9405972233262384,-9.542775172155034,0.08108370347572838
1.708062690549399,0.7785291766884089,2.1896517657781467,-0.9397863862914811,-9.619378881932493,0.26200793504116937
1.715847982316283,0.682335387869084,2.180253901915232,-0.9371663069410695,-9.686619710331104,0.4165638178905565
1.722671336194974,0.585469190765773,2.170882238845821,-0.9330006687621639,-9.744401016285293,0.545530552926182
1.7285260281026316,0.48802518060292005,2.1615522321581992,-0.9275453632329022,-9.792786131133244,0.6498774121882016
1.7334062799086607,0.3900973192915876,2.15227677852587,-0.9210465891110201,-9.831975048633177,0.7307218629817078
1.7373072531015765,0.2917775688052558,2.14306631263476,-0.913739370481203,-9.862275598813952,0.7892813207428789
1.740225028789629,0.19315481281711627,2.133928918929948,-0.9058465572737743,-9.884071079192559,0.8268213449039897
1.7421565769178002,0.09431410202519068,2.1248704533572105,-0.8975783438247343,-9.897786317259422,0.8446030601413024
1.743099717938052,-0.00466376114740355,2.115894669918963,-0.8891323132233213,-9.903853990940583,0.8438323479514854
1.743053080326578,-0.10370230105680937,2.1070033467867297,-0.8806939897438064,-9.90268277976089,0.8256129716212794
1.74201605731601,-0.20272912885441827,2.0981964068892918,-0.8724378600275936,-9.894628604382927,0.7909053382845324
1.7399887660274658,-0.30167541489824756,2.089472028289016,-0.8645288066447483,-9.879969879242436,0.7404921269619452
1.7369720118784833,-0.4004751136906719,2.080826740222568,-0.8571238853751288,-9.858887387247584,0.6749515707594163
1.7329672607415765,-0.49906398756314774,2.072255501368817,-0.8503743696675347,-9.831449111014939,0.5946388076721767
1.727976620865945,-0.5973784786732972,2.0637517576721414,-0.8444279815908129,-9.797600134229027,0.4996754233353387
1.7220028360792121,-0.6953544800155874,2.0553074778562332,-0.8394312273574595,-9.757157561209436,0.3899471007687189
1.7150492912790563,-0.7929260556276818,2.0469131655826587,-0.8355317563497723,-9.709810286090374,0.2651091548304143
1.7071200307227794,-0.8900241584885855,2.038557848019161,-0.8328806648014682,-9.655123363003247,0.12459964284712445
1.6982197891378936,-0.986575392118618,2.0302290413711463,-0.8316346683729969,-9.592546670296198,-0.03234031614142365
1.6883540352167075,-1.08250085882158,2.0219126946874164,-0.8319580715344111,-9.521427509770898,-0.20663943714341537
1.6775290266284917,-1.177715133919289,2.0135931139720724,-0.8340244659058453,-9.441026722604203,-0.3993628781991869
1.6657518752892988,-1.2721254011453311,2.005252869313014,-0.8380180946878372,-9.350537827025896,-0.6116731701871633
1.6530306212778454,-1.3656307794155902,1.9968726883661356,-0.8441348263897088,-9.249108583844183,-0.8447862281299996
1.6393743134836896,-1.458121865254032,1.9884313401022384,-0.8525826886710088,-9.135864275353281,-1.0999234015532475
1.6247930948311493,-1.5494805080075649,1.9799055132155283,-0.8635819226865413,-9.009931848257223,-1.378260752522534
1.6092982897510737,-1.6395798264901371,1.971269693988663,-0.8773645302117666,-8.870463935566058,-1.680876995985473
1.5929024914861722,-1.7282844658457976,1.9624960486865453,-0.8941733001716213,-8.716661654983312,-2.008701770154768
1.5756196468277142,-1.8154510823956307,1.953554315684829,-0.914260317873169,-8.547795004774414,-2.362466091026564
1.557465136003758,-1.9009290324433747,1.9444117125060973,-0.9378849787834346,-8.36321966604617,-2.7426569487495875
1.5384558456793243,-1.9845612291038364,1.935032862718263,-0.9653115482709305,-8.1623890936913,-3.1494779914878186
1.5186102333882858,-2.0661851200407493,1.9253797472355536,-0.9968063281858086,-7.944860951304526,-3.58281809051826
1.4979483821878783,-2.1456337295537944,1.9154116839536954,-1.0326345090909912,-7.710297222267072,-4.042229278805982
1.4764920448923404,-2.222736701776465,1.9050853388627855,-1.073056801879051,-7.458457701162881,-4.526915112938246
1.4542646778745758,-2.297321278788094,1.894354770843995,-1.1183259530084335,-7.189187014247279,-5.035729953936866
1.4312914650866948,-2.369213148930567,1.8831715113139107,-1.1686832525478021,-6.902395800069106,-5.567189043365988
1.407599333597389,-2.438237106931258,1.8714846787884327,-1.224355142981462,-6.598037158319715,-6.119488627723444
1.3832169625280766,-2.5042174785144553,1.859241127358618,-1.2855500292586965,-6.276079900586931,-6.690534821709162
1.358174787742932,-2.5669782775203247,1.846385627066031,-1.3524553774757881,-5.936480468930207,-7.277979460103749
1.3325050049677287,-2.626343082209627,1.8328610732912731,-1.4252351720768257,-5.579155595391376,-7.8792609147080235
1.3062415741456324,-2.6821346381635407,1.818608721570505,-1.504027781223906,-5.20395784112945,-8.491647771197192
1.279420227763997,-2.7341742165748353,1.8035684437582657,-1.588944258935878,-4.8106560785403785,-9.112283369078208
1.2520784855982487,-2.782280777360239,1.787679001168907,-1.68006709262666,-4.398922780832775,-9.738229478895226
1.2242556778246463,-2.8262700051685665,1.7708783302426403,-1.7774493874156123,-3.9683296917521145,-10.36650777574994
1.1959929777729605,-2.8659533020860875,1.753103836368484,-1.8811144651731118,-3.518353102498576,-10.994138204079947
1.1673334447520998,-2.901136833111073,1.734292691716753,-1.9910558472139113,-3.0483896052379675,-11.61817374622966
1.1383220764209891,-2.931620729163453,1.7143821332446139,-2.107237584676208,-2.557782862892237,-12.235731438761633
1.1090058691293547,-2.9571985577923754,1.6933097573978517,-2.2295948990638244,-2.0458616679425177,-12.844019664809851
1.079433883551431,-2.977657174471801,1.6710138084072135,-2.358035095711923,-1.511989387461426,-13.440361737180767
1.049657311806713,-2.992777068346415,1.6474334574500942,-2.4924387130837307,-0.955624831115647,-14.022215534625582
1.0197295411232488,-3.0023333166575714,1.6225090703192568,-2.6326608684299866,-0.37639465477245226,-14.587188429885206
0.9897062079566731,-3.006097263205296,1.596182461634957,-2.7785327527288386,0.22582235249820193,-15.133045923825824
0.9596452353246201,-3.003839039680314,1.5683971341076686,-2.929863211967097,0.850798327303017,-15.657711245536252
0.929606844927817,-2.9953310564072835,1.5390985019879977,-3.086440324422459,1.497845317898031,-16.159251658755995
0.8996535343637442,-2.980352603228303,1.508234098743773,-3.248032841010019,2.1656878578692056,-16.63584528758959
0.8698500083314611,-2.958695724649611,1.4757537703336727,-3.414391293885915,2.8523155402551423,-17.085719889202252
0.840263051084965,-2.9301725692470595,1.4416098573948135,-3.5852484927779376,3.5548103770844635,-17.507052109129745
0.8109613253924944,-2.8946244654762148,1.405757372467034,-3.760319013869235,4.269141692535799,-17.89781232956465
0.7820150807377323,-2.851933048550857,1.3681541823283416,-3.9392971371648815,4.98991888814557,-18.25553630492996
0.7534957502522237,-2.802033859669401,1.3287612109566929,-4.121852500214181,5.710089812669462,-18.577000573537536
0.7254754116555296,-2.7449329615427067,1.2875426859545511,-4.307622505949556,6.420570117300717,-18.85777466373165
0.6980260820401025,-2.6807272603696997,1.2444664608950555,-4.496200252586873,7.109787821339064,-19.09162050935481
0.6712188094364056,-2.6096293821563092,1.1995044583691867,-4.687116457680421,7.763129134610325,-19.26971045311858
0.6451225156148425,-2.531998090810206,1.1526332937923824,-4.8798135622116074,8.362279503504531,-19.379643710193484
0.6198025347067404,-2.4483752957751608,1.1038351581702663,-5.073609999313542,8.884472974831102,-19.404263831349652
0.5953187817489888,-2.3595305660268497,1.053099058177131,-5.267652637627039,9.301701001983716,-19.320326802207006
0.5717234760887203,-2.2665135560070127,1.0004225318008606,-5.460855905649109,9.579999044580907,-19.097155048837536
0.5490583405286502,-2.1707135655612038,0.9458139727443695,-5.651827456137484,9.679036734782583,-18.69555256070957
0.5273512048730382,-2.073923198213378,0.8892956981829947,-5.83878298174458,9.552390439487825,-18.067460078648153
0.5066119728909044,-1.9783992938184995,0.8309078683655489,-6.019457582531062,9.149061397293558,-17.157081382408364
0.4868279799527194,-1.8869086798455639,0.7707132925402382,-6.191028396355145,8.416959354639335,-15.904438545396657
0.4679588931542638,-1.8027390862991706,0.7088030085766868,-6.350072781809112,7.309067159118119,-14.252342386653924
0.4499315022912721,-1.7296484147079894,0.6453022807585956,-6.4925962056756505,5.792618502409423,-12.157306328215611
0.4326350181441922,-1.6717222296838952,0.5803763187018391,-6.614169268957807,3.8606278552499966,-9.603675127956851
0.4159177958473532,-1.6331159511313953,0.5142346260122611,-6.710206020237375,1.5434826253266727,-6.618136566260887
0.39958663633603925,-1.6176811248781287,0.44713256580988736,-6.776387385899984,-1.0834418403732595,-3.279499662598432
0.38340982508725796,-1.6285155432818612,0.3793686919508875,-6.809182382525968,-3.900839104559568,0.28225016640883344
0.36712466965443935,-1.6675239343274568,0.3112768681256278,-6.80635988086188,-6.7580848052196965,3.9012710476141272
0.35044943031116477,-1.7351047823796537,0.24321326931700904,-6.767347170385738,-9.495846982234083,7.403464517392738
0.3330983824873682,-1.8300632522019946,0.17553979761315164,-6.693312525211811,-11.972159495200833,10.63789912054663
0.31479774996534826,-1.949784847154003,0.10860667236103352,-6.586933534006344,-14.083307750264714,13.501064480147127
0.29529990149380825,-2.09061792465665,0.04273733702097009,-6.451922889204873,-15.77337940250631,15.946447270186832
0.27439372224724173,-2.248351718681713,-0.021781891871078637,-6.292458416503004,-17.03173276477892,17.979011269892847
0.2519102050604246,-2.418669046329502,-0.08470647603610869,-6.112668303804076,-17.88228615059121,19.64003547924067
0.22772351459712958,-2.597491907835414,-0.14583315907414945,-5.91626794901167,-18.370084446590887,20.989465463311895
0.20174859551877544,-2.781192752301323,-0.20499583856426615,-5.706373294378551,-18.549364537915626,22.09105320569148
0.1739366679957622,-2.966686397680479,-0.26205957150805165,-5.485462762321636,-18.475072162306155,23.002493138892618
0.14426980401895742,-3.1514371193035404,-0.316914199131268,-5.25543783093271,-18.1979360183779,23.77039011116315
0.11275543282592201,-3.3334164794873193,-0.3694685774405951,-5.017733929821079,-17.762273190441793,24.42878334775274
0.07942126803104882,-3.5110392113917372,-0.41964591673880586,-4.773446096343551,-17.20550398460798,24.999796597913395
0.04431087591713145,-3.683094251237817,-0.4673803777022414,-4.523448130364417,-16.55853206944489,25.49528478496663
0.007479933404753281,-3.8486795719322657,-0.5126148590058855,-4.268495282514751,-15.846423389414106,25.918742217900117
-0.03100686231456938,-4.007143805826407,-0.555299811831033,-4.00930786033575,-15.089059927975306,26.267062051790926
-0.07107830037283344,-4.15803440510616,-0.5953928904343906,-3.7466372398178405,-14.301613766576931,26.531953706366124
-0.11265864442389503,-4.30105054277193,-0.632859262832569,-3.481317702754179,-13.494790146606578,26.700952778423733
-0.15566914985161434,-4.435998444237995,-0.6676724398601108,-3.2143081749699416,-12.674846118612662,26.7580288796756
-0.2000291342939943,-4.562746905424122,-0.6998155216098102,-2.9467278861731856,-11.843424316424953,26.68383980349333
-0.24565660334823552,-4.681181148588371,-0.729282800471542,-2.6798894881382522,-10.997265853797549,26.455717424801243
-0.29246841483411923,-4.791153807126347,-0.7560816953529246,-2.41533231389024,-10.127894890392856,26.047517691836585
-0.3403799529053827,-4.892432756030275,-0.780235018491827,-2.154857136971874,-9.221409391293836,25.429535037698702
-0.38930428046568544,-4.984646849943213,-0.8017835898615457,-1.9005617865948872,-8.258573120429823,24.5687753833058
-0.4391507489651176,-5.067232581147511,-0.8207892077274946,-1.6548740327618292,-7.215479803882568,23.429994492676073
-0.4898230747765927,-5.139387379186337,-0.837337948055113,-1.4205740878350686,-6.065132203817349,21.978009210986517
-0.541216948568456,-5.200038701224511,-0.8515436889334637,-1.2007939957252034,-4.780299861442792,20.181808754268598
-0.5932173355807011,-5.247841699838938,-0.8635516288907157,-0.9989759081825174,-3.337908566413759,18.02081445662961
-0.6456957525790905,-5.281220785503075,-0.8735413879725409,-0.8187677636162213,-1.7248706710790358,15.493115045876065
-0.6985079604341212,-5.298469492213866,-0.8817290656087031,-0.6638366131574607,0.05537470585273806,12.624556350132714
-0.7514926553562599,-5.297915745155339,-0.8883674317402778,-0.5375910496561336,1.9771872587534811,9.476332275364818
-0.8044718128078132,-5.278143872567804,-0.8937433422368392,-0.4428277269024854,3.9901767384622207,6.1477478449431695
-0.8572532515334913,-5.238242105183182,-0.898171619505864,-0.3813502484530537,6.021957242939448,2.7709893699372796
-0.9096356725853231,-5.178022532753787,-0.9019851219903945,-0.35364035475368094,7.987040360295072,-0.5032490435780707
-0.961415897912861,-5.0981521291508365,-0.9055215255379313,-0.35867284518946163,9.80030927220843,-3.5268848319672355
-1.0123974192043694,-5.000149036428752,-0.9091082539898259,-0.393941693509134,11.39124391325017,-6.1765570916548365
-1.062398909568657,-4.88623659729625,-0.9130476709249172,-0.4557072644256824,12.71442271547931,-8.37001718172797
-1.1112612755416196,-4.759092370141457,-0.9176047435691741,-0.5394074362429621,13.753396608560665,-10.07240810483846
-1.158852199243034,-4.62155840405585,-0.9229988179316038,-0.6401315172913467,14.5178583653099,-11.292242331218956
-1.2050677832835925,-4.476379820402752,-0.9294001331045172,-0.7530539406035363,15.036391763677734,-12.07043903468462
-1.24983158148762,-4.326015902765974,-0.9369306725105525,-0.8737583309503825,15.347878662263543,-12.467035327837092
-1.2930917405152798,-4.172537116143339,-0.9456682558200563,-0.9984286842287534,15.493989905106446,-12.549283465051303
-1.3348171116767131,-4.017597217092274,-0.9556525426623439,-1.1239215188792664,15.513934303248183,-12.383012641152755
-1.3749930838476359,-3.8624578740597926,-0.9668917578511366,-1.247751645290794,15.441559251766344,-12.027511957608327
-1.4136176625882337,-3.708042281542129,-0.9793692743040445,-1.3680267648668774,15.304303631319879,-11.533269862939921
-1.450698085403655,-3.55499924522893,-0.9930495419527133,-1.4833594634962766,15.123345988225527,-10.941628490433725
-1.4862480778559444,-3.4037657853466747,-1.0078831365876761,-1.5927757484006138,14.914380401205756,-10.28551211102167
-1.520285735709411,-3.2546219813346173,-1.0238108940716824,-1.6956308695108304,14.688624352355122,-9.590626003825031
-1.5528319555227572,-3.107735737811066,-1.0407672027667907,-1.7915371295490807,14.453824821568382,-8.876755407298116
-1.583909312900868,-2.963197489595382,-1.0586825740622814,-1.8803046836220618,14.21514744165947,-8.158970200792304
-1.6135412877968218,-2.8210460151787875,-1.077485620898502,-1.9618943856299849,13.97590777984591,-7.448654334502554
-1.6417517479486097,-2.6812869373803285,-1.097104564754802,-2.0363809289750106,13.73814433155944,-6.75434330731532
-1.668564617322413,-2.543905494064734,-1.117468374044552,-2.1039243620481636,13.503051528128925,-6.082384652865718
-1.6940036722630603,-2.408874978783445,-1.1385076176650335,-2.1647482085768206,13.271297253717728,-5.437448748883207
-1.7180924220508946,-2.2761620062462677,-1.1601550997508017,-2.2191226960656527,13.043249167951315,-4.822919347752587
-1.7408540421133574,-2.1457295145667548,-1.1823463267114582,-2.267351889543179,12.819131160063218,-4.241190524347747
-1.762311337259025,-2.0175382029661226,-1.20501984560689,-2.3097637947866563,12.59912746177118,-3.6938922975692083
-1.7824867192886862,-1.8915469283484108,-1.2281174835547564,-2.3467027177623483,12.383448254607474,-3.182062544866143
-1.8014021885721703,-1.767712445802336,-1.2515845107323798,-2.3785233432110098,12.172367400757032,-2.706278675757521
-1.8190793130301937,-1.6459887717947659,-1.2753697441644898,-2.405586129968585,11.966240299063443,-2.266759087704936
-1.8355392007481413,-1.5263263688041315,-1.2994256054641757,-2.428253720845634,11.765507785452908,-1.8634417018440628
-1.8508024644361825,-1.4086712909496024,-1.323708142672632,-2.4468881378640748,11.570690377719423,-1.49604478031458
-1.8648891773456784,-1.2929643871724081,-1.3481770240512727,-2.4618485856672208,11.382375918320381,-1.1641136467606212
-1.8778188212174025,-1.1791406279892043,-1.372795509907945,-2.473489722134827,11.201202714224513,-0.8670557554935376
-1.8896102274972946,-1.0671286008469592,-1.3975304071292933,-2.4821602796897624,11.027839543117212,-0.6041656869161474
-1.9002815135057642,-0.956850205415787,-1.422352009926191,-2.488201936558924,10.862963338724464,-0.3746410106030874
-1.909850015559922,-0.8482205720285424,-1.4472340292917802,-2.491948346664955,10.707234946815506,-0.17758949572424865
-1.9183322212802074,-0.7411482225603874,-1.4721535127584298,-2.493724241622197,10.561273031862957,-0.01202782197488986
-1.9257437035058114,-0.6355354922417578,-1.4970907551746517,-2.493844519841946,10.425625997381301,0.12312827010927657
