th1 (rad),w1 (rad/s),th2 (rad),w2 (rad/s),a1 (rad/s^2),a2 (rad/s^2)
3.1694842594809125,3.1024275300020685,5.2883105031215765,0.21145248520876475,0.339408260817269,0.18051160142159942
3.200508534780933,3.1058216126102414,5.290425027973664,0.21325760122298074,0.6331714697686559,0.14668401318337096
3.2315667509070356,3.112153327307928,5.292557603985894,0.21472444135481444,0.9209153267147786,0.08504631479151963
3.262688284180115,3.1213624805750757,5.294704848399442,0.21557490450272965,1.203689701250501,-0.004302986770663457
3.2939019089858657,3.1333993775875806,5.296860597444469,0.21553187463502302,1.4825451318267018,-0.1213497503020156
3.3252359027617415,3.1482248289058474,5.299015916190819,0.21431837713200286,1.7585398335627558,-0.26617251831609745
3.3567181510508,3.165810227241475,5.301159099962139,0.2116566519488419,2.032749348000255,-0.43894996270708103
3.388376253323215,3.1861377207214776,5.303275666481627,0.2072671523217711,2.3062787096120405,-0.6399682458578084
3.42023763053043,3.209200507817598,5.305348338004845,0.200867469863193,2.5802771063222476,-0.8696290306215224
3.452329635608606,3.23500327888082,5.307357012703477,0.1921711795569778,2.855955109376357,-1.128458846357463
3.484679668397414,3.2635628299745836,5.3092787244990465,0.18088659109340316,3.134604644782808,-1.4171205186572564
3.51731529669716,3.2949088764224115,5.31108759040998,0.1667153859068306,3.417621977590012,-1.7364273963304129
3.5502643854613845,3.3290850961983116,5.312754744269048,0.14935111194352646,3.706534084891217,-2.0873611594046872
3.5835552364233676,3.366150437047224,5.314248255388484,0.12847750034947958,4.0030289069597655,-2.471094064860642
3.61721674079384,3.4061807261168218,5.315533030391979,0.10376655970087316,4.308990091134432,-2.8890165802307255
3.651278548055008,3.449270627028166,5.316570695988988,0.0748763938985659,4.626536981732522,-3.3427714648061815
3.6857712543252896,3.4955359968454913,5.317319459927973,0.041448679250504085,4.9580707608811165,-3.8342954759734447
3.7207266142937447,3.5451167044543026,5.3177339467204785,0.0031057244907696374,5.306327804997879,-4.365869989084706
3.756177781338288,3.5981799825042815,5.317765003965386,-0.04055297540007742,5.674441477193142,-4.940181895630228
3.7921595811633306,3.654924397276213,5.317359474211385,-0.08995479435637971,6.066013700539131,-5.560396136645893
3.8287088251360926,3.7155845342816045,5.316459926267822,-0.14555875572283863,6.485197699509102,-6.230241048286567
3.8658646704789086,3.7804365112766956,5.315004338710593,-0.2078611662057043,6.936793161742123,-6.954107190192966
3.9036690355916757,3.8498044428941167,5.312925727048536,-0.277402238107634,7.426354587968817,-7.737159226477727
3.9421670800206168,3.924067988773805,5.31015170466746,-0.3547738303724113,7.960312459335628,-8.585458268992788
3.981407759908355,4.003671113367162,5.306603966363736,-0.44062841306233913,8.54610452079383,-9.50608806874231
4.0214444710420265,4.0891321585751,5.302197682233112,-0.5356892937497623,9.192310013629076,-10.50727116313357
4.062335792627778,4.181055258711391,5.296840789295615,-0.640762005381098,9.908771440613558,-11.59844814967949
4.104146345214891,4.280142973117527,5.290433169241804,-0.7567464868778928,10.706673538176103,-12.790270506538768
4.146947774946066,4.387209708499288,5.282865704373025,-0.8846491919432805,11.598522567700229,-14.094417659309931
4.190819872031059,4.503194934176291,5.2740192124535925,-1.0255933685363798,12.59792221651162,-15.523080052773217
4.2358518213728225,4.629174156341407,5.263763278768229,-1.180824169064112,13.718960702560896,-17.08783115990769
4.282143562936237,4.766363763367016,5.251955037077588,-1.3517024806631888,14.974882964782553,-18.79740874616049
4.329807200569907,4.916112593014842,5.238438012270956,-1.5396765681247937,16.375484321657403,-20.6535866907189
4.378968326500056,5.079867436231416,5.223041246589708,-1.7462124350319828,17.922275018746248,-22.643770823164427
4.42976700086237,5.259090186418878,5.205579122239389,-1.972650143263627,19.599875251895586,-24.728124760964654
4.482357902726559,5.455088938937834,5.185852620806752,-2.2199313908732736,21.361320975003643,-26.81795364131786
4.536908792115937,5.668702148687871,5.16365330689802,-2.4881109272864523,23.10429148731938,-28.741188091250404
4.593595813602816,5.899745063561064,5.138772197625156,-2.7755228081989562,24.63587157809884,-30.19179517134256
4.652593264238426,6.146103779342052,5.111016969543166,-3.077440759912382,25.628533367876805,-30.667375415321874
4.714054302031847,6.402389113020821,5.080242561944043,-3.384114514065601,25.58608597263503,-29.422357556560808
4.778078193162055,6.658249972747171,5.046401416803387,-3.6783380896312092,23.87237442802972,-25.512903154107097
4.844660692889526,6.8969737170274685,5.009618035907074,-3.93346712117228,19.89507923481954,-18.06591794284975
4.9136304300598015,7.0959245093756635,4.9702833646953515,-4.114126300600778,13.505346889521107,-6.858845032057744
4.9845896751535586,7.230977978270874,4.929142101689344,-4.182714750921355,5.442847106592736,7.033910401991521
5.056899454936267,7.285406449336802,4.88731495418013,-4.11237564690144,-2.6713006629951135,21.24140720734791
5.129753519429635,7.258693442706851,4.846191197711116,-3.899961574827961,-9.102249581116451,33.1922481202094
5.202340453856704,7.1676709468956865,4.807191581962837,-3.568039093625867,-12.945222235788421,41.480422903309126
5.27401716332566,7.038218724537803,4.771511191026578,-3.1532348645927755,-14.352391104803466,46.21894267296692
5.344399350571038,6.894694813489768,4.73997884238065,-2.691045437863106,-14.05218805799171,48.37333039662499
5.413346298705936,6.754172932909851,4.71306838800202,-2.207312133896856,-12.813193721740705,48.9959413059817
5.480888028035035,6.626040995692444,4.690995266663051,-1.7173527208370392,-11.200761569965978,48.86654800893052
5.547148437991959,6.514033379992784,4.673821739454681,-1.228687240747734,-9.560649987745114,48.456661655039895
5.612288771791887,6.418426880115333,4.661534867047203,-0.744120624197335,-8.081648646085858,48.01101884075065
5.67647304059304,6.337610393654474,4.65409366080523,-0.2640104357898285,-6.858814600799877,47.6342059397663
5.739849144529584,6.269022247646475,4.651453556447332,0.21233162360783447,-5.936834024805894,47.35175041847805
5.802539367006049,6.209653907398416,4.65357687268341,0.685849127792615,-5.335359993230964,47.14717099654683
5.864635906080033,6.156300307466107,4.660435363961336,1.1573208377580833,-5.062416416534251,46.98303536119182
5.926198909154694,6.105676143300764,4.6720085723389175,1.6271511913700014,-5.120793496643136,46.81274575433105
5.987255670587702,6.054468208334333,4.688280084252617,2.095278648913312,-5.510554030176607,46.58734669680107
6.047800352671046,5.999362668032567,4.70923287074175,2.5611521158813226,-6.229458912274821,46.25981146743088
6.107793979351372,5.937068078909818,4.734844391900563,3.023750230555631,-7.272338178415957,45.788116903505845
6.16716466014047,5.8643446971256585,4.765081894206119,3.4816313995906896,-8.630007545965507,45.13774778733212
6.225808107111726,5.7780446216660035,4.799898208202026,3.933008877464011,-10.288109161492573,44.28389168538539
6.283588553328387,5.675163530051078,4.839228296976666,4.375847794317865,-12.226141749925468,43.21337156421123
6.340340188628898,5.552902112551823,4.882986774919845,4.807981509959977,-14.416882326059955,41.92624930438006
6.395869209754416,5.408733289291224,4.931066590019444,5.2272440030037775,-16.82635665638139,40.43698298897059
6.449956542647328,5.2404697227274095,4.983339030049482,5.631613832893484,-19.41447102731351,38.77501627572595
6.5023612398746025,5.0463250124542745,5.039655168378417,6.019363995650743,-22.136364830455562,36.98470906857377
6.5528244899991455,4.824961364149718,5.099848808334924,6.3892110863364815,-24.94447936035373,35.12457774238383
6.601074103640642,4.575516570546181,5.163740919198289,6.74045686376032,-27.79126516947635,33.265892651199486
6.646829269346104,4.297603918851418,5.231145487835892,7.073115790272315,-30.632374420186615,31.490770251111826
6.689805308534618,3.9912801746495514,5.3018766457386155,7.388023492783433,-33.43011444836687,29.889982215369777
6.729718110281113,3.656979030165883,5.37575688066645,7.686923314937131,-36.15688186695697,28.56076393694001
6.766287900582772,3.2954102114963133,5.452626113815821,7.972530954306531,-38.798253501921636,27.604911574246326
6.799242002697735,2.9074276764770968,5.532351423358887,8.248580070048995,-41.35536418537405,27.127369054233807
6.828316279462506,2.493874034623356,5.614837224059377,8.519853760591333,-43.84610017526822,27.235254863606283
6.853255019808739,2.055413032870674,5.700035761665291,8.792206309227396,-46.3043641393451,28.03672761315712
6.873809150137446,1.5923693914772228,5.787957824757565,9.072573585358967,-48.77598323096362,29.63795209809113
6.889732844052219,1.1046095591675866,5.8786835606111545,9.368953106339879,-51.308255446168346,32.134088081746185
6.900778939643895,0.5915270047059031,5.972373091674553,9.690293987157341,-53.92672584958787,35.58541175851056
6.906694209690954,0.052259746210024494,6.069276031546127,10.046148104742446,-56.58588152960242,39.960024301115844
6.907216807153055,-0.5135990690859997,6.169737512593551,10.445748347753606,-59.06783119504652,45.00677380456118
6.9020808164621945,-1.104277381036465,6.274194996071087,10.895816085799217,-60.785432218068806,49.99634230107406
6.89103804265183,-1.712131703217153,6.38315315692908,11.395779508809957,-60.44513508911715,53.26302620272979
6.873916725619658,-2.3165830541083245,6.497110952017179,11.928409770837256,-55.63991211403784,51.63059662532174
6.8507508950785745,-2.872982175248703,6.6163950497255515,12.444715737090473,-42.93168803733121,40.46947042073121
6.822021073326088,-3.302299055622015,6.740842207096456,12.849410441297785,-19.88081214416821,16.369534795524334
6.788998082769868,-3.5011071770636972,6.869336311509434,13.013105789253029,10.410313369892366,-16.781397717709954
6.75398701099923,-3.3970040433647735,6.999467369401964,12.84529181207593,37.930262992007684,-46.032061890696596
6.720016970565583,-3.0177014134446964,7.127920287522723,12.384971193168964,54.086564627181204,-60.58982718144632
6.689839956431136,-2.4768357671728842,7.251769999454413,11.779072921354501,59.019248493196876,-61.288492573054214
6.665071598759408,-1.8866432822409154,7.369560728667958,11.16618799562396,57.635809952720464,-54.892873959215095
6.6462051659369985,-1.3102851827137107,7.481222608624197,10.617259256031808,53.94178160342709,-46.6035311791018
6.633102314109862,-0.7708673666794399,7.587395201184515,10.15122394424079,49.891292181274785,-38.78510193294078
6.625393640443067,-0.271954444866692,7.688907440626923,9.763372924911382,46.18471677482134,-32.1681361337152
6.622674095994401,0.18989272288152137,7.7865411698760365,9.44169156357423,42.97726086648421,-26.820858804219696
6.624573023223216,0.6196653315463634,7.880958085511779,9.173482975532032,40.22771360694354,-22.60228393157329
6.63076967653868,1.0219424676157987,7.972692915267099,8.947460136216298,37.83969813433374,-19.33323670142616
6.640989101214838,1.400339448959136,8.062167516629263,8.754127769202036,35.713058285065365,-16.85083631828204
6.654992495704429,1.7574700318097898,8.149708794321283,8.585619406019216,33.760302391190024,-15.02036058295756
6.672567196022526,2.09507305572169,8.235564988381475,8.43541580018964,31.91034371307228,-13.733195525217395
6.693517926579743,2.414176492852413,8.319919146383372,8.298083844937466,30.10802276208177,-12.901277025321143
6.717659691508267,2.7152567204732305,8.402899984832747,8.169071074684254,28.312491962260356,-12.451541096692347
6.744812258712999,2.9983816400958343,8.48459069557959,8.04455566371733,26.4954800194684,-12.32140601975872
6.774796075113957,3.2633364402905185,8.565036252216762,7.9213416035197435,24.63969087026092,-12.455447590455728
6.807429439516862,3.5097333489931275,8.644249668251959,7.796787127615186,22.737333394376304,-12.803154625057452
6.842526773006793,3.7371066829368904,8.722217539528112,7.6687555813646116,20.788714155100738,-13.317579508733203
6.879897839836162,3.9449938244878977,8.798905095341757,7.535579786277279,18.800834821299276,-13.954689407615883
6.9193477780810415,4.13300217270089,8.87426089320453,7.39603289220112,16.785969129664025,-14.673231848086095
6.9606777998080505,4.300861863997531,8.948221222126541,7.249300573720259,14.760229715751725,-15.434941643830744
7.003686418448026,4.448464161155048,9.020714227863744,7.094951157281951,12.742162850730416,-16.204933667623536
7.048171060059576,4.575885789662352,9.091663739436564,6.932901820605716,10.751424691007282,-16.95214891685531
7.093929917956199,4.683400036572425,9.16099275764262,6.763380331437163,8.807595278480369,-17.649749754875966
7.140763918321923,4.771475989357229,9.228626560956993,6.586882833888403,6.929178010336127,-18.27539229055104
7.188478678215495,4.84076776946059,9.294495389295877,6.404128910982893,5.132816128662084,-18.811336390169078
7.2368863559101015,4.892095930747211,9.358536678405706,6.216015547081202,3.4327381794820755,-19.24438325222978
7.285807315217574,4.926423312542032,9.420696833876518,6.023571714558904,1.8404253264675925,-19.565653910078534
7.335071548342994,4.944827565806708,9.480932551022107,5.827915175458119,0.36447786226128437,-19.770237837606903
7.384519824001061,4.948472344429321,9.539211702776688,5.63021279708205,-0.9893521161550338,-19.856748856399857
7.434004547445355,4.938578823267771,9.595513830747509,5.431645308518052,-2.2179997870320034,-19.826826839030876
7.483390335678032,4.916398825397451,9.649830283832689,5.233377040127743,-3.320836440498528,-19.684620078493833
7.532554323932007,4.8831904609924655,9.702164054233966,5.036530839342804,-4.299362625983569,-19.436276673707393
7.581386228541931,4.840196834732629,9.752529362627394,4.84216807260573,-5.1568746187129735,-19.089465686010303
7.629788196889257,4.7886280885455,9.800951043353452,4.651273415745627,-5.898126858241679,-18.652941514560922
7.677674477774713,4.729646819963083,9.847463777510908,4.464744000600017,-6.529006813900346,-18.13615874786684
7.724970945974343,4.664356751824079,9.89211121751691,4.283382413121349,-7.05623329190078,-17.548940021780325
7.771614513492584,4.5937944189050715,9.934945041648122,4.107893012903546,-7.487084791380243,-16.901196143181892
7.817552457681635,4.518923570991269,9.976023971777158,3.9388810514717267,-7.8291611752603165,-16.2026957030547
7.8627416933915475,4.440631959238666,10.015412782291875,3.77685409444118,-8.09017953204959,-15.462880295460254
7.907148012983934,4.3597301639181705,10.053181323236288,3.6222252914865773,-8.27780348476862,-14.690720975058323
7.9507453146231155,4.276952129070485,10.089403576151154,3.475318081735994,-8.399504160994551,-13.894611473561104
7.99351483591382,4.192957087460539,10.124156756968514,3.336371967000383,-8.462450404990625,-13.082293775549823
8.035444406788425,4.108332583410633,10.157520476638517,3.2055490292448847,-8.473425457938834,-12.260811816750952
8.076527732622532,4.023598328831244,10.189575966930965,3.082940911077375,-8.438767162897447,-11.436489258646551
8.116763715910844,3.939210657202269,10.22040537604174,2.96857601849091,-8.364328706971548,-10.614927494447514
8.156155822482868,3.8555673701325537,10.250091136226649,2.862426743546435,-8.255456957321618,-9.801020255070362
8.194711496184194,3.7730128005593375,10.278715403662114,2.764416540995731,-8.116985557722737,-8.998981418783323
8.232441624189788,3.69184294498211,10.306359569072072,2.674426726807898,-7.953240113963932,-8.212382892259038
8.269360053639609,3.612310543842471,10.33310383634015,2.5923028978853075,-7.768052998323939,-7.444199726247268
8.305483159078033,3.5346300138592315,10.359026865319004,2.5178609006228347,-7.564785535428561,-6.696859952236475
8.340829459216625,3.458982158504946,10.384205474325233,2.45089230110047,-7.346355583701887,-5.972296968623683
8.375419280801674,3.385518602667927,10.408714397336238,2.391169331414233,-7.115268788094072,-5.272002654413614
8.409274466828354,3.314365914786986,10.43262609065038,2.338449304870097,-6.873652041039903,-4.5970797328282496
8.442418125976223,3.245629394376587,10.456010583699081,2.2924785075418144,-6.623287941031999,-3.9482922348359453
8.474874419919988,3.179396514966267,10.478935368774499,2.252995585193455,-6.365649274731264,-3.3261132140156486
8.50666838506965,3.1157400222189544,10.501465324626434,2.2197344530532983,-6.101932764000779,-2.730769132577763
8.53782578529184,3.0547206945789465,10.523662669156966,2.192426761727521,-5.833091510357053,-2.162280569824726
8.568372992237629,2.996389779475376,10.54558693677424,2.170803956029274,-5.559865734566667,-1.6204990975082112
8.598336890032384,2.9407911221297094,10.567294976334534,2.1545989650541917,-5.28281154845425,-1.1051403222342442
8.62774480125368,2.8879630066451667,10.588840965985076,2.1435475618318494,-5.0023276105755015,-0.6158132157069088
8.656624431320132,2.8379397305394116,10.610276441603395,2.1373894296747804,-4.718679609214827,-0.15204594268169855
8.685003828625527,2.7907529344472635,10.631650335900142,2.1358689702479636,-4.432022587673256,0.2866915418875445
8.71291135797,2.746432708570531,10.653009025602621,2.138735885666839,-4.142421180735554,0.7009678165931048
8.740375685055705,2.705008496763176,10.674396384459289,2.14574556383277,-3.849867870293149,1.0913729088543065
8.767425770023337,2.6665098180602445,10.695853840097616,2.1566592929213133,-3.5542993949659,1.4585034680446143
8.79409086820394,2.6309668241105855,10.71742043302683,2.1712443276017597,-3.2556114655931125,1.8029498700818813
8.820400536445046,2.5984107094546545,10.739132876302847,2.1892738263025784,-2.953671947738123,2.1252849430719687
8.846384643539592,2.5688739899772735,10.761025614565872,2.210526675733298,-2.6483326756383807,2.4260540257553966
8.872073383439364,2.5423906632208895,10.783130881323205,2.2347872159908517,-2.3394400607766914,2.7057660968504726
8.897497290071573,2.5189962626131224,10.805478753483113,2.2618448769593567,-2.0268446535893077,2.9648857423487964
8.922687252697704,2.4987278160772295,10.828097202252707,2.2914937343828448,-1.7104098096227742,3.203825758221225
8.947674530858476,2.4816237179810017,10.851012139596536,2.323531991965057,-1.3900196023205675,3.4229402169860377
8.972490768038286,2.467723521957796,10.874247459516187,2.3577613941349176,-1.0655861139691458,3.6225178576054757
8.997168003257864,2.4570676608181046,10.897825073457536,2.3939865727109724,-0.7370562243917159,3.802775688868559
9.021738679866045,2.4496970985741875,10.921764939184646,2.432014329599658,-0.4044180038378092,3.963852726622113
9.046235650851788,2.4456529185358096,10.946085082480643,2.471652856865879,-0.06770680215499177,4.105803814904319
9.070692180037145,2.44497585051426,10.970801611049302,2.512710895014922,0.2729888893589378,4.2285935102913434
9.095141938542287,2.447705739407849,10.995928719999451,2.5549968301178354,0.6175217442020047,4.3320900377321365
9.119618995936365,2.4538809568498694,11.021478688300629,2.5983177304951566,0.9656800346548362,4.416059354999368
9.144157805504864,2.4635377571964177,11.04746186560558,2.6424783240451504,1.3171821739106915,4.4801593918128235
9.16879318307683,2.4767095789355245,11.073886648846031,2.6872799179632785,1.6716713696067282,4.5239345588585165
9.193560278866185,2.4934262926315918,11.100759448025665,2.732519263551864,2.0287104171351475,4.546810651444407
9.2184945417925,2.513713396802943,11.128084640661184,2.777987370066308,2.387776688613888,4.548090302429552
9.243631675760529,2.5375911636890818,11.155864514361847,2.823468273090603,2.7482574033202614,4.526949169253409
9.26900758739742,2.5650737377222845,11.184099197092753,2.868737764783137,3.109445297680541,4.482433070144313
9.294658324774643,2.59616819069909,11.212786574740583,2.9135620954845804,3.4705348473897812,4.413456314492944
9.320620006681633,2.630873539172988,11.241922195695428,2.95769665862951,3.8306192305923226,4.318801501319815
9.346928742073363,2.669179731478911,11.271499162281724,3.000884673642708,4.18868825880781,4.197121086887123
