th1 (rad),w1 (rad/s),th2 (rad),w2 (rad/s),a1 (rad/s^2),a2 (rad/s^2)
3.927478961579501,-2.1076806663897045,3.0932702137585824,2.517197212495135,4.7004694563815885,-0.3402674479159079
3.9064021549156043,-2.0606759718258885,3.118442185883534,2.513794538015976,4.743971315108948,-0.5624137509173066
3.8857953951973454,-2.013236258674799,3.1435801312636937,2.508170400506803,4.798795090516457,-0.777511475846306
3.8656630326105974,-1.9652483077696343,3.168661835268762,2.50039528574834,4.862498017737957,-0.9839464903894628
3.846010549532901,-1.9166233275922548,3.1936657881262454,2.4905558208444454,4.932287787833825,-1.1794486903558221
3.8268443162569787,-1.8673004497139165,3.2185713463346897,2.478761333940887,5.005024431637634,-1.3611158554052805
3.8081713117598395,-1.8172502053975401,3.2433589596740986,2.4651501753868343,5.077253569070632,-1.525478376864558
3.789998809705864,-1.7664776697068338,3.268010461427967,2.4498953916181887,5.145276389629158,-1.668612402369269
3.7723340330087956,-1.7150249058105422,3.2925094153441488,2.433209267594496,5.2052587813917714,-1.7863048161339645
3.7551837839506903,-1.6629723179966245,3.3168415080200937,2.4153462194331565,5.253377640289895,-1.8742673562510708
3.738554060770724,-1.6104385415937255,3.3409949702144255,2.396603545870646,5.285996981433431,-1.9283896431440073
3.722449675354787,-1.557578571779391,3.364961005673132,2.377319649439206,5.299860876073808,-1.94501312676176
3.706873889636993,-1.504579963018653,3.388734202167524,2.3578695181715883,5.292285609267346,-1.9212015709926142
3.691828090006806,-1.4516571069259794,3.41231289734924,2.338657502461662,5.261331014759219,-1.8549803809254508
3.6773115189375463,-1.399043796778387,3.4356994723738565,2.3201076986524076,5.2059316114941,-1.74551811073243
3.6633210809697623,-1.3469844806634461,3.4589005493603806,2.3026525175450834,5.125972203142918,-1.5932292177092882
3.6498512361631277,-1.2957247586320169,3.4819270745358315,2.2867202253679904,5.0222994348344505,-1.399786732285921
3.6368939885768077,-1.2455017642836723,3.5047942767895113,2.2727223580451312,4.896669111905326,-1.168045137748937
3.624438970933971,-1.1965350731646192,3.5275215003699625,2.261041906667642,4.751637169997384,-0.901885008328726
3.6124736202023247,-1.1490187014646454,3.5501319194366387,2.252023056584355,4.590408451961522,-0.6059996180098148
3.600983433187678,-1.10311461694503,3.572652150002482,2.245963060404257,4.416660857156063,-0.28564836817411515
3.5899522870182277,-1.0589480083734695,3.595111780606525,2.2431065767225156,4.23436272570206,0.05359784909163589
3.579362806934493,-1.016604381116449,3.61754284637375,2.243642555213432,4.047598979432763,0.4060976472093497
3.569196763123329,-0.9761283913221213,3.6399792719258843,2.2477035316855254,3.860417510709972,0.7663505455284995
3.5594354792101077,-0.9375242162150216,3.6624563072427394,2.2553670371408105,3.676702670789906,1.12916938408948
3.5500602370479575,-0.9007571895071225,3.6850099776141474,2.2666587309817054,3.500078384163059,1.4898104513740065
3.541052665152886,-0.8657564056654918,3.7076765649239642,2.2815568354954454,3.333840004510789,1.844062800615963
3.532395101096231,-0.8324180056203839,3.7304921332789185,2.299997463501605,3.180911777906698,2.188301359974005
3.5240709210400274,-0.8006088878413169,3.7534921079139347,2.321880477101345,3.04382564751021,2.5195099932256344
3.5160648321616144,-0.7701706313662148,3.776710912684948,2.347075577033601,2.924716899494176,2.835280959499218
3.508363125847952,-0.740923462371273,3.8001816684552843,2.3754283866285935,2.825332518413996,3.1337966701895192
3.5009538912242393,-0.7126701371871331,3.82393595232157,2.4067663533304886,2.7470488064384773,3.4137986508671223
3.493827189852368,-0.6851996491227483,3.848003615854875,2.4409043398391597,2.69089559534155,3.6745475074385583
3.4869751933611406,-0.6582906931693329,3.8724126592532664,2.477649814913545,2.65758508698697,3.9157766860366743
3.4803922864294474,-0.6317148422994632,3.897189157402402,2.5168075817739117,2.6475439126655944,4.13764202128874
3.474075138006453,-0.6052394031728072,3.922357233220141,2.558184001986799,2.660947377703963,4.340668522218533
3.468022743974725,-0.5786299293957676,3.947939073240009,2.6015906872089842,2.697755069856633,4.5256955266027585
3.462236444680767,-0.5516523786972013,3.973954980112099,2.646847642475012,2.757747096674696,4.693821207823
3.456719920893795,-0.5240749077304543,4.000423456536849,2.693785854553242,2.8405602262927703,4.846347375484577
3.4514791718164903,-0.4956693054675266,4.0273613150823815,2.742249328308088,2.945723184269503,4.984725507727592
3.446522478761815,-0.4662120736248315,4.054783808365462,2.792096583385364,3.0726903436936066,5.110504937780084
3.4418603580255667,-0.43548517018789545,4.082704774199316,2.8432016327631646,3.220873061437669,5.2252840566409295
3.4375055063236877,-0.4032764395735188,4.111136790526947,2.8954544733295737,3.3896679714204487,5.330665273558399
3.4334727419279525,-0.36937975985931426,4.140091335260243,2.9487611260651576,3.578481645322921,5.428214298458691
3.4297789443293594,-0.33359494340608503,4.169578946520894,3.0030432690497446,3.7867511628549,5.519424090008713
3.4264429948952984,-0.295727431777536,4.199609379211392,3.058237509949832,4.013960282746961,5.605683570670915
3.423485720577523,-0.25558782895006643,4.23019175431089,3.114294345656541,4.259651056028635,5.688250968752975
3.420929842288022,-0.21299131838978008,4.261334697767455,3.1711768553440707,4.523430860220846,5.768231427592842
3.4187999291041242,-0.16775700978757163,4.293046466320896,3.2288591696199993,4.804974945676342,5.846558339252156
3.4171223590062487,-0.11970726033080821,4.325335058017096,3.2873247530125207,5.104024666762102,5.923977723963111
3.4159252864029406,-0.06866701366318718,4.358208305547221,3.346564530252152,5.420381618743563,6.001034890695132
3.4152386162663086,-0.014463197475751553,4.391673950849742,3.4065748791591033,5.7538979179255785,6.078062577273787
3.415093984291551,0.043075781703504235,4.425739699641333,3.467355504931841,6.104462852705549,6.155169775777289
3.415524742108586,0.10412041023055972,4.460413254690652,3.528907202689614,6.471986103609515,6.232230493945621
3.4165659462108917,0.16884027126665485,4.495702326717548,3.5912295076290706,6.856377689129444,6.308871779228116
3.418254348923558,0.2374040481579493,4.531614621793839,3.6543182254213518,7.25752474966258,6.384460432856358
3.4206283894051377,0.3099792956545751,4.568157804048052,3.7181628297499154,7.675265242385604,6.458087962546394
3.4237281823616836,0.38673194807843114,4.605339432345551,3.7827437093753793,8.109358593450983,6.528553461684119
3.4275955018424678,0.46782553401294097,4.643166869439305,3.8480292439922206,8.559453348026812,6.5943442597661575
3.432273757182597,0.553420067493209,4.681647161879227,3.913972686589882,9.025051880572564,6.65361436494654
3.437807957857529,0.6436705862989347,4.720786888745126,3.9805088302393474,9.50547228414526,6.704160917699603
3.4442446637205184,0.7387253091403873,4.760591977047519,4.0475504394163435,9.999807654863607,6.743399098601318
3.4516319168119223,0.8387233856890233,4.801067481441683,4.114984430402357,10.506883131761105,6.76833618685716
3.4600191506688125,0.9437922170066343,4.842217325745707,4.182667792270928,11.025211248040144,6.775545752376235
3.4694570728388787,1.0540443294870356,4.884044003668416,4.25042324979469,11.552946400553603,6.761143283815979
3.479997516133749,1.1695737934925716,4.926548236166363,4.31803468263285,12.087839551083217,6.720764905713894
3.4916932540686747,1.2904521890034037,4.969728582992691,4.385242331689989,12.62719463290205,6.64955121247774
3.504597775958709,1.4167241353324243,5.013581006309591,4.451737843814766,13.167828541369852,6.542138632307505
3.518765017312033,1.5484024207461227,5.058098384747739,4.517159230137842,13.706037023447896,6.3926611091313825
3.534249041519494,1.6854627909806017,5.103269977049117,4.5810858412291555,14.237569225442497,6.194765225691756
3.5511036694293,1.8278384832350267,5.149080835461409,4.643033493486073,14.757614079150136,5.941642147157779
3.5693820542616503,1.975414624026528,5.19551117039627,4.7024499149576515,15.260802062418994,5.626079894580166
3.5891362005019154,2.1280226446507178,5.2425356695458465,4.7587107139034535,15.741226110744126,5.240539407039861
3.6104164269484227,2.285434905758159,5.290122776684881,4.811116107973852,16.19248552548236,4.777257563616116
3.6332707760060043,2.447359761012983,5.3382339377646195,4.858888683610013,16.607756563712442,4.228379757557694
3.657744373616134,2.613437326650107,5.38682282460072,4.90117248118559,16.97989295215624,3.58612370231559
3.6838787468826353,2.7832362561716697,5.435834549412576,4.937033718208745,17.301558804505756,2.842974878965567
3.711711109444352,2.956251844216727,5.485204886594663,4.9654634669984015,17.56539532323858,1.9919124115554565
3.7412736278865193,3.131905797449113,5.534859521264647,4.985382591113956,17.76422125119329,1.0266622195702528
3.7725926858610106,3.309548009961046,5.584713347175787,4.995649213309659,17.89126536024511,-0.05802788133809538
3.805688165960621,3.4884606635634974,5.634669839308883,4.995068934496278,17.940427417152122,-1.266098775088228
3.840572772596256,3.6678649377350188,5.684620528653846,4.982407946745396,17.90656217179447,-2.599886317708842
3.8772514219736065,3.8469305594529635,5.7344446081213,4.956409083568308,17.785779104548133,-4.059835509782562
3.9157207275681363,4.0247883504984445,5.784008698956983,4.915810728470482,17.575749070479606,-5.644236857904618
3.955968611073121,4.20054584120324,5.833166806241688,4.859368359891436,17.276007676770124,-7.349001065583266
3.9979740694851533,4.373305917970941,5.881760489840603,4.785878349235603,16.888244263991165,-9.16748984005682
4.0417071286648625,4.542188360610853,5.929619273332959,4.694203450835035,16.41656472069576,-11.090422074671162
4.087129012270971,4.7063540078178105,5.976561307841309,4.583299230088324,15.867716013119406,-13.10587596751898
4.134192552349149,4.865031167949005,6.022394300142192,4.452240470413134,15.251260262569001,-15.19940865656635
4.182842864028639,5.0175437705746955,6.0669167048463235,4.300246383847471,14.579686568924174,-17.354315388591225
4.233018301734385,5.163340636263937,6.109919168684798,4.126703229961558,13.868449860280428,-19.552049554375426
4.284651708097025,5.302025134866741,6.151186200984414,3.931182734417804,13.13592836683564,-21.772822370453788
4.337671959445692,5.4333844185350975,6.190498028328592,3.7134545107132664,12.40329557524251,-23.996395771159087
4.392005803631043,5.557417374287523,6.2276325734357245,3.4734905530016755,11.694309468831573,-26.203073632871746
4.447579977373918,5.674360468975839,6.262367478965741,3.211459816672958,11.035032067411946,-28.374884846628007
4.504323582063677,5.784710789649958,6.2944820771324705,2.927710968206678,10.453505852882909,-30.496938050948927
4.562170689960176,5.8892458481787875,6.323759186814537,2.622741587697189,9.979430002819003,-32.5589143221006
4.621063148441964,5.9890401482069775,6.349986602691509,2.297152444476183,9.6438970446774,-34.55665417954668
4.680953549924034,6.085479118653751,6.37295812713627,1.951585902680716,9.479267479528373,-36.493792767860995
4.741808341110572,6.180271793449035,6.392473986163077,1.586647975002106,9.519273576389653,-38.38340520316703
4.803611059045062,6.275464529212932,6.408340465913098,1.2028139229704358,9.799451170668041,-40.24964358132702
4.866365704337191,6.373459040919612,6.420368605142802,0.8003174871571656,10.35799658877627,-42.12937393619099
4.930100294746388,6.477039006807375,6.428371780014374,0.37902374779525566,11.237128851993187,-44.07384267062462
4.994870684814462,6.589410295327307,6.432162017492327,-0.061714678910990584,12.484990981038234,-46.150388460861556
5.060764787767734,6.7142602051376885,6.431544870703217,-0.5232185635196062,14.15801283295641,-48.44410453268585
5.127907389819112,6.855840333467253,6.42631268506802,-1.0076596088464647,16.323393427947263,-51.059010245271416
5.196465793153784,7.019074267746725,6.416236088979556,-1.5182497112991789,19.060732506222443,-54.117401933975486
5.266656535831252,7.209681592808949,6.401053591866564,-2.0594237306389336,22.46035515605819,-57.753918103750436
5.338753351759341,7.4342851443695315,6.380459354560174,-2.636962911676438,26.612393862136233,-62.09587421779224
5.413096203203037,7.700409082990894,6.354089725443409,-3.2579216538543605,31.572702421128305,-67.21007169775234
5.4901002940329455,8.016136107202177,6.321510508904866,-3.930022370831884,37.27411097048904,-72.97150119638255
5.570261655104967,8.388877216907067,6.282210285196547,-4.65973738279571,43.31691565696565,-78.7608356476621
5.654150427274038,8.822046373476724,6.23561291136859,-5.447345739272331,48.52422593504942,-82.8307797266459
5.742370891008806,9.307288632827218,6.181139453975867,-6.2756535365387895,50.1772357557534,-81.2266368388424
5.835443777337078,9.809060990384753,6.118382918610479,-7.0879199049272135,43.38000738817715,-66.90938149163748
5.933534387240925,10.242861064266524,6.047503719561207,-7.757013719843588,22.84224169034588,-32.33705742441432
6.0359629978835905,10.471283481169984,5.969933582362771,-8.08038429408773,-9.701794107349464,19.93527805654533
6.14067583269529,10.37426554009649,5.889129739421893,-7.881031513522277,-39.79930556049491,69.09748821298624
6.244418488096255,9.97627248449154,5.8103194242866705,-7.190056631392415,-53.53943547613406,94.89688901009916
6.344181212941171,9.4408781297302,5.738418857972746,-6.241087741291423,-52.30902195641005,98.82986607822085
6.438589994238473,8.9177879101661,5.676007980559832,-5.252789080509214,-44.58379202386876,92.76440001582718
6.527767873340134,8.471949989927412,5.6234800897547395,-4.325145080350943,-35.87653592078674,84.60001031873931
6.612487373239408,8.113184630719545,5.58022863895123,-3.47914497716355,-28.187418899390135,77.29930782374572
6.693619219546603,7.831310441725643,5.545437189179594,-2.706151898926093,-21.915311504906104,71.51383761286215
6.77193232396386,7.612157326676582,5.518375670190333,-1.9910135227974712,-16.95457106744571,67.1279060744859
6.848053897230626,7.442611616002124,5.498465534962358,-1.3197344620526121,-13.099324536930222,63.84177081116371
6.922480013390647,7.311618370632822,5.4852681903418326,-0.681316753940975,-10.162718737320922,61.352882979535806
6.995596197096975,7.209991183259613,5.4784550228024225,-0.06778792414561696,-8.000972782031155,59.400558590334455
7.067696108929571,7.129981455439302,5.477777143560966,0.5262176617577276,-6.509600177347643,57.769780002233304
7.1389959234839635,7.064885453665826,5.483039320178544,1.1039154617800606,-5.613369774489435,56.2853537643134
7.209644778020622,7.008751755920931,5.4940784747963445,1.6667689994231947,-5.256342548686328,54.80572857506118
7.279732295579832,6.956188330434068,5.510746164790576,2.2148262851738068,-5.393559101399679,53.218632288476705
7.349294178884173,6.902252739420071,5.532894427642314,2.747012608058574,-5.984587110078858,51.438463766501485
7.4183167062783735,6.842406868319282,5.5603645537229,3.2613972457235887,-6.988814255069282,49.40478219497157
7.486740774961566,6.772518725768589,5.592978526180136,3.755445067673304,-8.36232342396599,47.08119437489752
7.554465962219252,6.688895491528929,5.63053297685687,4.2262570114222795,-10.056177431035382,44.45409325789464
7.621354917134542,6.588333717218576,5.672795546971092,4.670797944001226,-12.015915924543261,41.53091795427227
7.6872382543067275,6.468174557973143,5.7195035264111045,5.086107123543949,-14.182034650288717,38.33782134059412
7.751919999886459,6.326354211470256,5.770364597646544,5.46948533694989,-16.491198161310237,34.91680304048636
7.8151835420011615,6.161442229857154,5.825059451016043,5.818653367354753,-18.877945903145665,31.32246778366015
7.876797964299733,5.972662770825697,5.88324598468959,6.131878045191355,-21.276687812068083,27.61859897552925
7.9365245920079905,5.759895892705016,5.944564765141504,6.408064034946648,-23.623834998437204,23.87471318377066
7.994123550935041,5.523657542720644,6.00864540549097,6.646811166784355,-25.85995403937387,20.162714383352768
8.049360126362247,5.265058002326905,6.0751135171588135,6.848438310617882,-27.931854636284523,16.55372792710611
8.102010706385515,4.985739455964059,6.143597900264992,7.013975589888943,-29.794516390732962,13.115181730168382
8.151868100945157,4.687794292056729,6.2137376561638815,7.1451274071906274,-31.412740844199735,9.90821666987728
8.198746043865723,4.373666883614732,6.285188930235788,7.244209573889401,-32.76239784973009,6.985535000600885
8.24248271270187,4.046042905117431,6.3576310259746815,7.314064923895409,-33.8311391803747,4.3898132077199135
8.282943141753044,3.707731513313684,6.430771675213635,7.357963055972609,-34.61848754870479,2.1527963432700297
8.320020456886182,3.361546637826636,6.504351305773361,7.379491019405309,-35.13527405761901,0.2951479984227771
8.353635923264449,3.010193897250446,6.578146215967414,7.382442499389537,-35.40247807960978,-1.1729393176252438
8.383737862236954,2.656169116454348,6.651970640961309,7.370713106213285,-35.44960098898172,-2.250447578745572
8.410299553401497,2.301673106564531,6.725677772023442,7.348208630425829,-35.312760411055535,-2.9436934107717296
8.433316284467143,1.9485455024539757,6.7991598583277,7.318771696318112,-35.03271310923203,-3.264131443614538
8.452801739491683,1.5982183713616553,6.872347575290881,7.286130381881967,-34.653000239727085,-3.2259992787199967
8.468783923205299,1.2516883689643845,6.945208879109701,7.253870389094767,-34.21836445876546,-2.8439872409771905
8.481300806894943,0.9095047243767299,7.017747583000649,7.2254305166849955,-33.77352402994656,-2.1310859801578106
8.49039585413871,0.5717694840772644,7.090001888167499,7.204119656883417,-33.36231280564262,-1.0967381420245332
8.496113548979482,0.23814635602083817,7.162043084736333,7.193152275463172,-33.02710807246489,0.2545805688538474
8.49849501253969,-0.09212472470381072,7.233974607490965,7.19569808115171,-32.80836021215233,1.924170665256277
8.497573765292652,-0.42020832682533404,7.3059315883024825,7.214939787804274,-32.743880295033115,3.918972012865962
8.493371682024398,-0.7476471297756653,7.378080986180525,7.254129507932933,-32.86727751682616,6.249809703523133
8.48589521072664,-1.076319904943927,7.450622281259855,7.316627604968164,-33.2044675807086,8.92670355755485
8.475132011677202,-1.408364580751013,7.523788557309536,7.405894640543712,-33.76633300981581,11.948736874750008
8.461048365869692,-1.7460279108491712,7.5978475037149735,7.525382009291213,-34.53418559028893,15.283943227215953
8.4435880867612,-2.0913697667520603,7.673101323807885,7.678221441563372,-35.43251354375828,18.83155367941704
8.422674389093679,-2.445694902189643,7.749883538223519,7.8665369783575425,-36.28113671221435,22.355453025018043
8.398217440071782,-2.8085062693117866,7.828548908007094,8.090091508607722,-36.71960053591594,25.378261462851896
8.370132377378665,-3.175702274670946,7.909449823093171,8.343874123236242,-36.11133982502542,27.045199761236777
8.338375354631955,-3.5368156729212,7.992888564325534,8.61432612084861,-33.4886970068285,26.040522158405167
8.303007197902742,-3.8717026429894847,8.07903182553402,8.87473134243266,-27.71518184785245,20.799453637586137
8.264290171472847,-4.14885446146801,8.167779138958347,9.082725878808523,-18.127125327895463,10.379986633016827
8.222801626858168,-4.3301257147469645,8.258606397746432,9.186525745138692,-5.580172951812297,-4.103250913076875
8.179500369710698,-4.3859274442650875,8.350471655197818,9.145493236007923,7.168526289334048,-18.953621911218843
8.135641095268047,-4.314242181371747,8.441926587557898,8.955957016895734,16.942419519608798,-29.920407964940566
8.09249867345433,-4.144817986175659,8.531486157726855,8.65675293724633,22.298666016691747,-35.12162046731099
8.051050493592573,-3.921831326008742,8.618053687099318,8.30553673257322,23.878426121908888,-35.47874580567734
8.011832180332485,-3.683047064789653,8.70110905442505,7.950749274516446,23.14879395787426,-32.97997816071044
7.975001709684588,-3.45155912521091,8.780616547170215,7.620949492909341,21.35319191922847,-29.2683647055411
