th1 (rad),w1 (rad/s),th2 (rad),w2 (rad/s)
1.9315070303287885,2.3652468277562915,4.273705204279679,-1.2274441171748491
1.9551594986063514,2.2736378516132443,4.2614307631079305,-1.2426960655619523
1.977895877122484,2.185378565379734,4.249003802452311,-1.2520417148545568
1.9997496627762812,2.1001668834684897,4.236483385303766,-1.2558098818384176
2.020751331610966,2.0177036887551343,4.223925286485382,-1.2543283111158772
2.040928368498517,1.9376985126742883,4.211382003374223,-1.247915853934641
2.06030535362526,1.8598734784730295,4.198902844834877,-1.2368773612461719
2.07890408840999,1.7839658991734573,4.1865340712224155,-1.2215006618197097
2.0967437474017245,1.7097298571304016,4.1743190646042185,-1.2020551042898182
2.1138410459730284,1.636937030361773,4.16229851356132,-1.1787912426248484
2.130210416276646,1.5653769755442914,4.150510601135072,-1.1519413329065076
2.145864186032089,1.4948570301288155,4.138991187806007,-1.1217203838888372
2.160812756333377,1.4252019565962035,4.127773983967119,-1.0883275648253583
2.1750647758993393,1.3562534198975837,4.1168907083188655,-1.0519478227914825
2.1886273100983153,1.2878693637154024,4.106371230090951,-1.0127535998985235
2.2015060037354695,1.2199233313505773,4.0962436940919655,-0.9709065701990699
2.213705237048975,1.1523037618202976,4.086534628389975,-0.9265593384211825
2.2252282746671783,1.08491328026928,4.077269035005763,-0.8798570594441467
2.236077407469871,1.0176679933056485,4.068470464411321,-0.8309389499151615
2.2462540874029275,0.9504967937474676,4.06016107491217,-0.7799396726507513
2.2557590553404023,0.8833406749994295,4.052361678185663,-0.7269905813073874
2.2645924620903966,0.8161520524634872,4.045091772372588,-0.6722208179005947
2.2727539826150314,0.7488940876976272,4.038369564193582,-0.6157582596061417
2.2802429234920076,0.681540010215428,4.032211981597521,-0.5577303142707662
2.2870583235941617,0.6140724316599004,4.026634678454813,-0.49826456647171496
2.2931990479107607,0.5464826474230873,4.0216520327900955,-0.4374892779916186
2.2986638743849914,0.4787699214836991,4.017277140010179,-0.3755337483517785
2.3034515735998284,0.4109407511880583,4.013521802526662,-0.31252854265762675
2.307560981111709,0.34300810981252816,4.0103965171000855,-0.24860559550278605
2.310991062209834,0.27499066594067445,4.007910461145058,-0.1838982010735916
2.313740968869241,0.2069119798997563,4.006071479134322,-0.11854090089598716
2.3158100886682385,0.1387996786729535,4.004886070125362,-0.05266928186077699
2.317198085454968,0.070684611788946,4.004359377306755,0.013580301766602465
2.3179049315728575,0.0025999916498675862,4.004495180324421,0.08007106772062435
2.3179309314893564,-0.06541947743979241,4.0052958910016265,0.14666619110530815
2.3172767367149585,-0.13333847666253734,4.006762552912679,0.21322921979876935
2.315943351948333,-0.20112195119904736,4.008894845110667,0.279624503565661
2.3139321324363427,-0.2687359843651923,4.011691090146324,0.3457176204006628
2.3112447725926906,-0.33614866190289494,4.015148266350331,0.41137578370136996
2.3078832859736615,-0.4033309212022261,4.019262024187345,0.47646821417172847
2.303849976761639,-0.4702573807023403,4.024026706329062,0.5408664608843452
2.299147402954616,-0.5369071453988733,4.029435370937906,0.6044446566724361
2.293778331500627,-0.603264585256991,4.03547981750463,0.6670796939650113
2.287745685648057,-0.669320084366457,4.04215061444428,0.7286513083022881
2.2810524848043925,-0.7350707598436538,4.049437127527303,0.789042058048841
2.273701777205956,-0.8005211507424742,4.057327548107791,0.8481371902349706
2.2656965656985313,-0.8656838785291259,4.065808920010141,0.905824383979669
2.25703972691324,-0.9305802819430222,4.074867163849937,0.9619933645656545
2.2477339240938097,-0.9952410302340668,4.084487097495594,1.0165353829453276
2.237781513791469,-1.0597067197504204,4.0946524513250475,1.0693425572735675
2.2271844465939648,-1.1240284595499883,4.1053458768977835,1.1203070750359372
2.215944161998465,-1.1882684520042615,4.116548947648143,1.1693202565564813
2.204061477478422,-1.2525005741109845,4.128242150213707,1.21627148326895
2.191536471737312,-1.3168109642557488,4.140404865046397,1.2610469973294114
2.1783683620947545,-1.381298617241472,4.153015335019692,1.3035285832354353
2.16455537592234,-1.4460759872603348,4.1660506208520465,1.3435921475063397
2.1500946160497367,-1.5112695937613039,4.17948654232711,1.3811062197158335
2.1349819201121236,-1.5770206184187179,4.193297604524268,1.4159304079642074
2.1192117139279363,-1.6434854720673424,4.20745690860391,1.4479138551412998
2.1027768592072626,-1.7108362978328646,4.221936047155323,1.4768937602016468
2.085668496228934,-1.7792613598975995,4.236704984757339,1.5026940525390133
2.067875882629958,-1.8489652453899474,4.251731925282729,1.5251243390532443
2.0493862301760584,-1.9201687786388493,4.266983168673262,1.5439792845103102
2.03018454238967,-1.9931085113108005,4.282422961518365,1.5590386382764865
2.010253457276562,-2.0680356076823627,4.298013347901129,1.5700681863042432
1.9895731011997384,-2.145213890839553,4.313714029764172,1.576821987650852
1.968120962291343,-2.2249167531762146,4.32948224964068,1.579046349834778
1.9458717947595807,-2.3074225650779847,4.345272713139028,1.5764861045797405
1.9227975691088008,-2.3930081437772293,4.3610375741848255,1.5688938584661816
1.8988674876710285,-2.481939778966052,4.376726512769487,1.5560429987886417
1.874048089881368,-2.57446126792862,4.392286942757373,1.5377453112211577
1.8483034772020819,-2.6707784139669144,4.407664395869585,1.513874077781785
1.8215956930624126,-2.7710395208834226,4.422803136647403,1.4843934206121925
1.7938852978535784,-2.875311616524932,4.437647070853525,1.449394372414293
1.7651321816883292,-2.983552510464051,4.452141014577668,1.4091376084718303
1.7352966565836887,-3.095579384462675,4.466232390662387,1.3641018876162736
1.704340862739062,-3.2110354621298405,4.479873409538549,1.3150359629464767
1.6722305081177635,-3.3293573967420036,4.493023769168014,1.2630100419504184
1.6389369341503435,-3.4497472697322626,4.505653869587518,1.2094609169490602
1.6044394614530209,-3.5711543173728892,4.517748478757008,1.1562229320553588
1.568727918279292,-3.6922723900793737,4.529310708077562,1.1055354768704728
1.5318051943784983,-3.811559292335248,4.5403660628462665,1.0600173386324712
1.4936896014551457,-3.9272831333420104,4.5509662362325916,1.0225996857231876
1.4544167701217257,-4.037598350647116,4.561192233089823,0.9964132018792781
1.4140407866152545,-4.140650163045088,4.571156365108616,0.9846309932295901
1.3726342849848037,-4.234701308496104,4.581002675040912,0.9902767125862478
1.3302872718998426,-4.318269914131066,4.5909054421667745,1.0160155063473348
1.287104572758532,-4.390263400023992,4.601065597230248,1.0639519817897731
1.243201938758292,-4.450091587719337,4.611705117048145,1.1354624655676382
1.1987010228810986,-4.497743444246983,4.6230597417038215,1.2310869934864699
1.1537235884386288,-4.533816261950481,4.635370611638686,1.350499444948358
1.108385425819124,-4.559492907703173,4.64887560608817,1.492563058587739
1.0627904967420922,-4.576470760118111,4.663801236674048,1.6554654786977039
1.0170257891409111,-4.586853408045656,4.680355891461025,1.8369153892163186
0.9711572550604546,-4.593021490769754,4.6987250453531875,2.034374462002558
0.925227040152757,-4.597501133776352,4.719068789973213,2.2452955789905977
0.8792520288149935,-4.6028470556129175,4.741521745763119,2.4673413574649303
0.8332235582588644,-4.6115532948327465,4.7661951593377685,2.6985646331346698
0.7871080253105369,-4.625998982102558,4.793180805669115,2.937542435944949
0.7408480354895113,-4.648431173066847,4.822556230028565,3.1834646648096934
0.6943637237588428,-4.680982660745561,4.8543908766766615,3.436186291631822
0.6475538971513872,-4.725720518223986,4.88875273959298,3.69625669965079
0.6002966919691474,-4.784720915851068,4.925715306589487,3.9649418758593296
0.5524494828106367,-4.860167149306198,4.96536472534808,4.244255460028574
0.5038478113175747,-4.954470281569946,5.007807279948366,4.537014126349146
0.4543031085018753,-5.070414805938758,5.053177421211858,4.846932266342746
0.40359896044248766,-5.21133469029107,5.1016467438752855,5.178770742441584
0.35148561353957697,-5.381327067204565,5.1534344512997015,5.538553814430145
0.2976723428675313,-5.585509272550566,5.208819989444003,5.933864084750621
0.24181725014202565,-5.830313477484618,5.268158630291509,6.3742085656074865
0.18351411536717946,-6.123774703522406,5.331900715947584,6.871395941842902
0.1222763683319554,-6.475657646056596,5.400614675366013,7.439713267626752
0.05751979187138945,-6.8969699573902865,5.4750118080422805,8.095278596100247
-0.011449907702513418,-7.397643007463345,5.555964594003283,8.852880665808337
-0.08542633777714687,-7.979344301723274,5.644493400661367,9.716081136707302
-0.1652197807943796,-8.616973724035804,5.74165421202844,10.651572288009065
-0.25138951803473764,-9.220879013563804,5.8481699349085305,11.536605516057595
-0.3435983081703757,-9.59588968176628,5.963535990069106,12.101862374476248
-0.43955720498803846,-9.503585517988896,6.084554613813869,12.018329192771406
-0.5345930601679274,-8.918361841027428,6.204737905741583,11.253845084267322
-0.6237766785782017,-8.109861065334595,6.317276356584256,10.18533363387121
-0.7048752892315477,-7.331286700375352,6.419129692922968,9.163771984322628
-0.7781881562353012,-6.669865566807116,6.510767412766194,8.308897317151315
-0.8448868119033724,-6.1249057816207095,6.593856385937707,7.6192673908124675
-0.9061358697195796,-5.674045863736675,6.670049059845832,7.064163499515247
-0.9628763283569464,-5.295192704231939,6.740690694840985,6.613688627813388
-1.0158282553992657,-4.970860152293906,6.806827581119118,6.244575523293141
-1.0655368569222048,-4.687916418697236,6.86927333635205,5.939736564235516
-1.1124160211091771,-4.436547139348414,6.928670701994405,5.686779759283648
-1.1567814925026614,-4.209327811355163,6.985538499587242,5.4766963668017175
-1.198874770616213,-4.0005397132089096,7.040305463255259,5.302887893510246
-1.2388801677483021,-3.8056951574704407,7.093334342190362,5.160474124953853
-1.2769371193230066,-3.6212175386710856,7.1449390834399,5.045798285758474
-1.3131492947097174,-3.444232602767602,7.195397066297485,4.956061469919594
-1.3475916207373935,-3.2724409060668953,7.244957680996681,4.889037805921281
-1.3803160297980623,-3.104051500416635,7.293848059055893,4.842837275825022
-1.4113565448022287,-2.9377628466970034,7.342276431814144,4.815695096740766
-1.4407341732691987,-2.772779150985008,7.390433382781551,4.805776933940998
-1.468461964779049,-2.6088491019481936,7.438491152120961,4.810999589590725
-1.4945504557985307,-2.4463099056312565,7.486601148016868,4.828877977573413
-1.5190135548548434,-2.286113829666918,7.5348899277926025,4.856420416969865
-1.5418746931515126,-2.1298097795267745,7.583454131962301,4.890102671475289
-1.5631727909467803,-1.9794528096673871,7.632355158677054,4.925951692302977
-1.5829673190434541,-1.837424404810154,7.681614675600084,4.959757106972359
-1.6013415630915557,-1.7061679916810673,7.731212246669807,4.987399807175469
-1.6184032430083664,-1.5878737334221562,7.781086244741562,5.005248125278192
-1.6342819803425879,-1.4841732103659353,7.831138725994344,5.010538208192611
-1.6491237124462472,-1.3959137668482855,7.88124410807627,5.001645353638835
-1.6630828501147301,-1.3230654224286247,7.931260561612659,4.978178067549691
-1.6763135043390163,-1.2647750639364703,7.981042342288156,4.940878964079167
-1.688961254978381,-1.219540246612114,8.030451131928947,4.891372863075042
-1.701156657444502,-1.1854471530644295,8.079364860559698,4.831837714825249
-1.7130111289751464,-1.1604130520580074,8.12768323770795,4.764677369958372
-1.7246152594957265,-1.1423887894297597,8.175330011407533,4.69225333624849
-1.736039147390024,-1.1294999106863257,8.222252544770019,4.616701363532262
-1.7473341464968872,-1.120125342753822,8.268419558405341,4.539831965973752
-1.7585353999244255,-1.1129249585603593,8.313817878065079,4.463098276384924
-1.7696646495100292,-1.1068317872617535,8.358448860828927,4.387609530573962
-1.7807329673826469,-1.1010237072143234,8.402324956134667,4.314170313238427
-1.79174320445479,-1.094886053678636,8.445466659267051,4.243330569077047
-1.8026920649915765,-1.087972731296612,8.487899964957823,4.175436626925739
-1.8135717923045427,-1.0799701820545928,8.52965433122708,4.110677797634414
-1.8243714941250886,-1.070666239625079,8.570761109203424,4.0491261343883505
-1.8350781565213394,-1.059924434701949,8.611252370547307,3.9907688191132333
-1.845677400868359,-1.0476634976688208,8.651160058738439,3.935533656929262
-1.8561540358450472,-1.0338414201664223,8.690515395307731,3.8833086166123736
-1.8664924500467115,-1.0184433140495697,8.729348481473854,3.833956478438777
-1.8766768831872072,-1.0014723251250806,8.767688046258241,3.7873255987089927
-1.886691606438458,-0.9829429442553713,8.805561302245332,3.743257670185104
-1.8965210358810116,-0.9628761659522597,8.842993878947183,3.7015932050936615
-1.9061497975405342,-0.941296051233764,8.88000981099812,3.6621753207408867
-1.9155627580528718,-0.9182273465532772,8.91663156420553,3.6248522796310456
-1.9247450315184045,-0.8936938903565027,8.952880087001839,3.5894791299210995
-1.9336819704219694,-0.8677176032379058,8.98877487830105,3.555918707303119
-1.9423591464543486,-0.8403179083696699,9.024334065374083,3.5240421932910757
-1.9507623255380453,-0.811511468040948,9.059574487306993,3.4937293741579474
-1.9588774402184548,-0.7813121519638411,9.094511781048572,3.4648687062920733
-1.9666905617380932,-0.7497311754296894,9.129160468111493,3.437357264780856
-1.97418787349239,-0.716777362070904,9.163534040759302,3.4111006303194245
-1.981355647113099,-0.6824574982160395,9.197645047062496,3.386012753269801
-1.9881802220952596,-0.6467767546512362,9.231505174595194,3.362015821446083
-1.994647989641772,-0.6097391578151709,9.265125332809655,3.3390401488846972
-2.000745381219924,-0.5713480966645079,9.298515734298501,3.3170240956509307
-2.006458862186569,-0.5316068541149043,9.331685975255011,3.295914023017891
-2.011774930727718,-0.49051915344341096,9.36464511548519,3.275664283681328
-2.016680122262152,-0.4480897106089546,9.397401758322005,3.256237242724823
-2.0211610193682414,-0.40432478333334193,9.429964130749253,3.237603321613041
-2.0252042672015746,-0.3592327071779535,9.462340163965383,3.219741054442737
-2.0287965942733543,-0.31282440792508914,9.49453757450981,3.202637142973038
-2.031924838352605,-0.2651138784946562,9.52656394593954,3.18628649460229
-2.0345759771375516,-0.21611860756254575,9.558426810885562,3.1706922255246894
-2.036737163213177,-0.16585994616392682,9.590133733140808,3.155865609893228
-2.0383957626748166,-0.11436339802931711,9.62169238923974,3.1418259550705026
-2.0395393966551096,-0.06165881937307549,9.653110648790445,3.128600383111028
-2.04015598484884,-0.007780514475172279,9.684396652621556,3.116223499624815
-2.040233789993592,0.04723278522006375,9.715558887617805,3.1047369332294332
-2.0397614621413913,0.10333806855222727,9.746606256950098,3.0941887319620136
-2.038728081455869,0.16048832565274163,9.77754814426972,3.084632607277293
-2.0371231981993416,0.21863296569372992,9.808394470342492,3.076127021499045
-2.0349368685424043,0.27771837008170125,9.839155740557482,3.0687341206216545
-2.0321596848415875,0.3376885748818753,9.8698430817637,3.062518520886159
-2.028782799092769,0.39848607116716384,9.900468266972561,3.0575459642147678
-2.0247979383810972,0.4600527070279389,9.931043726614709,3.053881863965225
-2.020197411310818,0.5223306704758809,9.96158254525436,3.0515897681358894
-2.014974104606059,0.585263528729815,9.99209844293572,3.0507297717209867
-2.0091214693187607,0.6487972966347246,10.02260574065293,3.0513569130655993
-2.0026334963524133,0.7128815054088097,10.053119309783586,3.05351959059664
-1.9955046812983253,0.7774702426101596,10.083654505689552,3.057258036141869
-1.9877299788722236,0.8425231351300071,10.11422708605097,3.062602879272373
-1.9793047475209236,0.9080062490176377,10.144853114843695,3.0695738339299625
-1.9702246850307472,0.9738928828029206,10.175548853182995,3.078178534355348
-1.960485756202718,1.0401642344296587,10.206330638526548,3.088411542413442
-1.9500841138584215,1.1068099256465203,10.237214753950683,3.100253543242754
-1.9390160146019564,1.173828371432414,10.268217289383111,3.113670741141294
-1.9272777308876323,1.2412269855102434,10.299353996794524,3.1286144630867394
-1.91486546103253,1.3090222160404916,10.330640141425391,3.1450209735296917
-1.901775238872125,1.3772394080738797,10.362090351160688,3.1628115012457236
-1.8880028447913861,1.4459124912500494,10.393718466173146,3.1818924771256043
-1.8735437198788856,1.5150834926005234,10.425537390944402,3.2021559807649704
-1.8583928849528804,1.584801875253668,10.457558950752052,3.22348039344463
-1.8425448662003436,1.65512370449441,10.489793754686499,3.245731255373847
-1.8259936291553995,1.7261106431715108,10.522251067240237,3.268762325674674
-1.8087325227236843,1.797828779040976,10.554938690496984,3.2924168442857495
-1.7907542349332746,1.8703472874383902,10.587862858939841,3.316528995548868
-1.7720507620588906,1.9437369338042665,10.62102814889533,3.340925573539127
-1.7526133927208478,2.0180684221179086,10.654437404630722,3.3654278490875074
-1.7324327084996687,2.093410597247514,10.688091683121597,3.3898536378559454
-1.7114986025271934,2.1698285115648397,10.721990219500157,3.4140195677437712
-1.689800317411545,2.2473813688208795,10.756130415177594,3.437743542357246
-1.6673265037233362,2.3261203611162182,10.790507850601166,3.4608473953123617
-1.644065300112174,2.4060864176855845,10.82511632455429,3.4831597278196216
-1.6200044359353183,2.4873078870084266,10.859947921832486,3.5045189193497093
-1.5951313570652341,2.5697981763346722,10.894993111025983,3.5247762981821076
-1.5694333753018874,2.653553374999985,10.930240874007804,3.5437994552006153
-1.5428978415518875,2.738549889886155,10.965678868559811,3.561475680230845
-1.515512342653026,2.8247421231305703,11.00129362536212,3.577715495219833
-1.4872649214217202,2.9120602238664968,11.037070780314318,3.592456252238718
-1.4581443191830552,3.000407947636567,11.072995342836705,3.605665756164684
-1.4281402397066896,3.0896606594961913,11.109052000398352,3.617345861443252
-1.3972436331117277,3.179663520091485,11.145225459012785,3.627535979040504
-1.3654469979108128,3.270229898542291,11.18150081880319,3.6363164131659405
-1.33274469892539,3.361140062112194,11.21786398293485,3.643811427394979
-1.299133298304268,3.4521402005949016,11.254302097208798,3.6501919166094523
-1.264611896298319,3.542941853049375,11.290804016374892,3.65567753536976
-1.2291824777678253,3.6332218155973477,11.327360791728589,3.660538106259117
-1.1928502596118518,3.7226226206355273,11.36396617279118,3.665094105534757
-1.1556240334054966,3.81075368865609,11.400617113846527,3.669716001139317
-1.1175164965189357,3.897193261974869,11.43731427385792,3.674822203772293
-1.078544563899187,3.9814912325423806,11.474062495895643,3.680875390137274
-1.0387296515737632,4.063172970750809,11.510871249797015,3.6883769740300236
-0.9980979218662551,4.141744245728607,11.547755019537314,3.6978595409294894
-0.956680479408969,4.216697297374674,11.58473361494661,3.7098771295986466
-0.9145135064352223,4.287518074673479,11.621832386242595,3.7249933422560093
-0.8716383256884875,4.353694593744422,11.659082319665155,3.74376739219798
-0.8281013797510434,4.414726295150806,11.696519993587135,3.7667383489149335
-0.7839541167995353,4.47013419865809,11.734187377076283,3.7944080051075204
-0.7392527748129544,4.519471573178032,11.772131457127358,3.8272229517905334
-0.694058059081174,4.562334770489064,11.810403686645264,3.865556587180342
-0.6484347113762834,4.598373824553176,11.849059252517067,3.9096918812222596
-0.6024509731307517,4.627302403460793,11.88815617132929,3.9598057515547307
-0.5561779490961437,4.648906724029892,11.927754228844838,4.015955865802388
-0.5096888818558448,4.663053099890372,11.967913787502862,4.078070566503392
-0.4630583508569411,4.66969388577875,12.008694493167896,4.145942427663572
-0.41636141199915355,4.668871690769467,12.050153917444531,4.219225716317253
