th1 (rad),w1 (rad/s),th2 (rad),w2 (rad/s),a1 (rad/s^2),a2 (rad/s^2)
3.191800093354159,0.7308147501917467,6.150971225713448,-1.477527726708536,2.4734940519107456,3.627488369524585
3.1991082408560763,0.7555496907108541,6.136195948446363,-1.4412528430132903,2.72791267841743,3.990450879322874
3.2066637377631846,0.7828288174950284,6.12178342001623,-1.4013483342200614,2.9664521446292977,4.327977951338059
3.2144920259381347,0.8124933389413214,6.10776993667403,-1.3580685547066809,3.188779749774157,4.638997077379195
3.222616959327548,0.844381136439063,6.094189251126964,-1.3116785839328888,3.39486396818903,4.922819255207452
3.2310607706919385,0.8783297761209533,6.081072465287635,-1.2624503913808143,3.584948310662416,5.179107919498874
3.239844068453148,0.9141792592275775,6.068447961373827,-1.2106593121858256,3.759519042138313,5.407840136991173
3.248985861045424,0.9517744496489606,6.056341368251968,-1.1565809108159137,3.9192688686617805,5.609262629610615
3.2585036055419137,0.9909671383355785,6.044775559143809,-1.1004882845198076,4.065058595498986,5.783845062394166
3.2684132769252696,1.0316177242905684,6.0337706762986105,-1.042649833895866,4.1978785386943684,5.932232774679859
3.2787294541681753,1.0735965096775122,6.023344177959652,-0.9833275061490675,4.318811182054175,6.055200788887557
3.2894654192649506,1.116784621498054,6.013510902898162,-0.9227754982601919,4.428996246968016,6.153610544595833
3.3006332654799313,1.161074583967734,6.00428314791556,-0.8612393928142336,4.5295990147367835,6.228370413718768
3.3122440113196085,1.2063705741151018,5.995670753987418,-0.7989556886770459,4.621782434277001,6.280400684219745
3.32430771706076,1.2525883984578718,5.987681197100647,-0.7361516818348485,4.706683278738696,6.310603374771606
3.3368336010453383,1.2996552312452587,5.980319680282299,-0.6730456480871324,4.785392392080056,6.319836972408623
3.3498301533577908,1.3475091551660592,5.973589223801428,-0.6098472783630462,4.85893889430235,6.308895973646447
3.3633052449094514,1.3960985441090827,5.967490751017797,-0.5467583186265818,4.9282780905223555,6.27849495536703
3.3772662303505423,1.4453813250143064,5.962023167831531,-0.48397336907291144,4.99428274980508,6.229256799749081
3.3917200436006856,1.4953241525123573,5.957183434140802,-0.4216808010754206,5.057737378271584,6.161704640170467
3.4066732851258092,1.545901526295073,5.952966626130048,-0.36006375467371593,5.1193351002116225,6.076257073820353
3.42213230038876,1.5970948772971894,5.9493659885833114,-0.2993011839355124,5.1796767735549025,5.973226193192502
3.438103249161732,1.6488916450327384,5.946372976743956,-0.2395689220035874,5.239271995428567,5.852818014739299
3.4545921656120595,1.7012843649870242,5.9439772875239205,-0.1810407418561944,5.298541693860997,5.715134921767159
3.4716050092619297,1.754269781925634,5.942166880105359,-0.1238893926385228,5.3578220481946195,5.560179784294686
3.489147707081186,1.8078480024075803,5.940927986178973,-0.06828759479557595,5.417369529660051,5.387861466356259
3.5072261871052617,1.8620216977041808,5.940245110231018,-0.014408980132013353,5.477366901984322,5.198001477443619
3.5258464040823037,1.916795366724024,5.940101020429698,0.03757103464242284,5.537930067798538,4.990341566662629
3.545014357749544,1.9721746674020095,5.940476730776123,0.08747445030904913,5.599115688572049,4.76455209370258
3.564736104423564,2.02816582428773,5.941351475279213,0.13511997124607494,5.660929542938433,4.520241038399864
3.5850177626664412,2.0847751197171145,5.942702674991674,0.18032238163007358,5.723335620085392,4.256963529475949
3.605865513863612,2.1420084759179683,5.944505898807974,0.22289201692483307,5.78626597112736,3.974231782189709
3.627285598622792,2.199871135629242,5.946734818977222,0.26263433474673015,5.84963136203846,3.6715253336212528
3.6492843099790844,2.2583674492496266,5.949361162324689,0.29934958808294265,5.913332786918926,3.3483014526989865
3.6718679844715805,2.317500777118816,5.952354658205519,0.3328326026099325,5.977273910352169,3.0040055796064546
3.6950429922427688,2.3772735162223375,5.955682984231618,0.3628726584059971,6.041374512768498,2.6380816156812457
3.718815727404992,2.4376872613500224,5.959311710815678,0.38925347456280956,6.105585013612979,2.249981840286162
3.7431926000184923,2.498743111486152,5.963204245561306,0.4117532929656712,6.169902144481275,1.839176175486519
3.7681800311333538,2.5604421329309646,5.9673217784909625,0.4301450547205364,6.234385839288625,1.4051604529901967
3.7937844524626634,2.622785991323851,5.971623229038168,0.44419665925043833,6.299177402401495,0.9474632612050611
3.8200123123759018,2.685777765347866,5.976065195630673,0.45367129186248895,6.3645190103986655,0.46565086419083884
3.8468700900293804,2.7494229554518523,5.980601908549297,0.4583278005043973,6.430774601245515,-0.04067041029242939
3.874364319583899,2.8137307014643076,5.985185186554341,0.457921096401473,6.498452209379971,-0.5718550183642839
3.902501626598542,2.8787152235581073,5.989764397518356,0.4522025462178302,6.568227820567068,-1.128223096056102
3.931288778834123,2.944397501763778,5.994286422980535,0.44092031525726916,6.640970851356451,-1.7100703298984796
3.9607327538517607,3.0108072102773424,5.998695626133108,0.4238196119582844,6.717771410570547,-2.3176838461510205
3.990840825954534,3.0779849243830477,6.0029338222526905,0.4006427734967742,6.799969581546235,-2.9513652859485875
4.021620675198364,3.14598462019851,6.006940249987658,0.3711291206372883,6.889187082076262,-3.611462364067822
4.053080521400349,3.2148764910192726,6.010651541194031,0.33501449699661007,6.98736182354112,-4.298410350950871
4.0852292863105415,3.284750109254684,6.014001686163997,0.29203039348710136,7.096786112151355,-5.012785078270434
4.118076787403088,3.3557179703761975,6.016921990098868,0.241902542704397,7.220149525232929,-5.755369258521526
4.15163396710685,3.4279194656285266,6.019341015525912,0.18434885011918176,7.360587866792623,-6.527234143802379
4.1859131617631355,3.5015253442964527,6.0211845040271035,0.11907650868115796,7.521740072578634,-7.329838846997937
4.2209284152061,3.576742745022239,6.022375269113915,0.045778120211178594,7.70781550872199,-8.165150031649619
4.256695842656323,3.6538209001094586,6.022833050316027,-0.0358733801053176,7.923674800932511,-9.035785165894989
4.293234051657418,3.7330576481187836,6.022474316514974,-0.12623123176426748,8.174928147932619,-9.945183143946762
4.330564628138606,3.81480692959811,6.021212004197332,-0.2256830632037351,8.46805600294381,-10.897806795611231
4.368712697434587,3.899487489627548,6.018955173565295,-0.3346611311598474,8.810558006900054,-11.899382568221045
4.407707572330862,3.9875930696965485,6.015608562253696,-0.45365495684205787,9.211137013588164,-12.957183306230721
4.447583503027827,4.0797044398324305,6.0110720126852755,-0.583226789904365,9.67992570673052,-14.080360187708933
4.488380547426152,4.1765036968997356,6.005239744786232,-0.7240303917814543,10.228763139960243,-15.280328703001828
4.530145584395149,4.278791328299338,5.997999440868417,-0.8768336788114726,10.871526452252228,-16.57120947105335
4.572933497678143,4.38750659282186,5.989231104080303,-1.042545773522006,11.624516870521644,-17.970314517524933
4.616808563606361,4.503751761527076,5.978805646345083,-1.2222489186972554,12.506884659622289,-19.49864720808381
4.661846081221632,4.628820608123299,5.9665831571581105,-1.4172353907780935,13.541046578727746,-21.181337324273358
4.708134287302864,4.764231073910577,5.95241080325033,-1.629048764020827,14.75298532811279,-23.047838442754248
4.755776598041971,4.911760927191705,5.936120315610122,-1.8595271484483695,16.17219156585095,-25.13152754616913
4.804894207313888,5.073482842850215,5.917525044125639,-2.1108424239100607,17.830753588182017,-27.46797930004855
4.85562903574239,5.251790378732035,5.896416619886538,-2.3855222169105463,19.76059985040078,-30.09047366169752
4.90814693952971,5.4493963772360425,5.8725613977174325,-2.6864269535275214,21.986937943868806,-33.01993069803066
4.962640903302071,5.66926575667473,5.845697128182157,-3.0166262605078282,24.514140288824446,-36.24393393597352
5.0193335608688185,5.914407159562975,5.815530865577078,-3.3790655998675634,27.297186783960612,-39.6750914042427
5.078477632464448,6.1873790274025815,5.781740209578403,-3.7758165139099904,30.18702659702885,-43.072357995690936
5.140351422738474,6.48924929337287,5.743982044439303,-4.2065400938668995,32.83378848074843,-45.90289477365493
5.205243915672203,6.8175871781803545,5.701916643500634,-4.665569041603449,34.53825532193134,-47.131683215271735
5.2734197874540065,7.162969731399668,5.655260953084599,-5.1368858737561665,34.09370322292602,-45.00004280643019
5.345049484768003,7.503906763628929,5.603892094347037,-5.586886301820468,29.823111028746673,-37.08568565377521
5.420088552404292,7.802137873916395,5.548023231328832,-5.95774315835822,20.275716977061414,-21.30366799561501
5.498109931143456,8.004895043687009,5.48844579974525,-6.1707798383143695,5.873308166138527,1.7402933901382194
5.578158881580326,8.063628125348394,5.426738001362106,-6.153376904412987,-9.80190745175496,26.901968633474496
5.65879516283381,7.965609050830845,5.365204232317977,-5.884357218078242,-21.767426010956985,46.983060536091514
5.738451253342118,7.747934790721275,5.306360660137194,-5.414526612717327,-27.50131083910917,58.23420680483957
5.815930601249331,7.472921682330183,5.252215394010022,-4.832184544668931,-27.986076386774485,61.90180978151953
5.890659818072633,7.193060918462438,5.203893548563332,-4.2131664468537355,-25.539712992864498,61.19508411111458
5.962590427257258,6.937663788533793,5.161761884094795,-3.6012156057425897,-21.995684916896455,58.69348185098184
6.031967065142595,6.717706939364828,5.125749728037369,-3.0142807872327713,-18.351586751427167,55.815914099348454
6.099144134536243,6.5341910718505565,5.095606920165041,-2.4561216462392865,-15.037140511553003,53.17748917210392
6.1644860452547485,6.383819666735026,5.071045703702648,-1.9243467545182473,-12.194124025577787,50.97626433317624
6.228324241922099,6.261878426479249,5.0518022361574655,-1.414584111186485,-9.840763045931961,49.22379601488088
6.290943026186891,6.163470796019929,5.037656395045601,-0.9223461510376761,-7.950790854836044,47.857945817336436
6.352577734147091,6.083962887471569,5.028432933535224,-0.44376669286431175,-6.487427181615235,46.79296106790623
6.413417363021806,6.019088615655416,5.023995266606581,0.024162917814750606,-5.416336935814204,45.94020834061057
6.47360824917836,5.964925246297274,5.024236895784728,0.48356500122085627,-4.709386046039282,45.21611815391792
6.533257501641333,5.917831385836881,5.029072545796937,0.9357261827600354,-4.3445675345777355,44.544925541536195
6.592435815499702,5.8743857104911035,5.038429807624537,1.3811754381753973,-4.30445767438049,43.85952830099661
6.651179672604613,5.831341133747299,5.052241562006291,1.8197707211853635,-4.5742248234606135,43.10184274430295
6.709493083942085,5.785598885512693,5.070439269218144,2.250789148628393,-5.139638840915533,42.22316351902743
6.767349072797212,5.734202497103538,5.092947160704428,2.673020783818667,-5.9852888273608285,41.18464385835272
6.824691097768247,5.674349608829929,5.1196773685426145,3.0848672224021945,-7.0931180344348705,39.95784345188656
6.881434593856547,5.60341842848558,5.1505260407666364,3.4844456569210602,-8.441341373227266,38.525227537082
6.937468778141403,5.519005014753307,5.185370497335847,3.86969793229188,-10.003786123309608,36.88049103768362
6.992658828288936,5.418967153520211,5.224067476658766,4.238502842668717,-11.749675825984857,35.028600467276895
7.046848499824137,5.301470395260362,5.266452505085453,4.588788847341485,-13.643856844074032,32.98547951730227
7.099863203776741,5.165031826819622,5.312340393558868,4.918643642514508,-15.647446727812786,30.777302287701318
7.1515135220449375,5.008557359541494,5.361526829984013,5.226416665391521,-17.718864250258427,28.43939484241409
7.201599095640352,4.8313687170389095,5.413790996637928,5.510810613815662,-19.81518304516847,26.014778178192433
7.249912782810742,4.633216886587225,5.468899102776085,5.770958395597586,-21.893733719185903,23.552413548209795
7.296244951676614,4.414279549395366,5.526608686732061,6.006482531079684,-23.913862719112295,21.10523571995207
7.340387747170567,4.1751409222042435,5.586673512042858,6.217534888279205,-25.8387409388412,18.728082308181527
7.3821391563926095,3.9167535128158315,5.64884886092565,6.404815711361021,-27.637103794118723,16.47564715551435
7.421306691520768,3.6403824748746443,5.71289701803926,6.569572182916164,-29.28480161412619,14.40059979932506
7.457710516269515,3.3475344587333824,5.778592739868421,6.713578180909415,-30.76604919084832,12.552016744862877
7.491185860856849,3.0398739668248993,5.845728521677516,6.839098348358044,-32.07428879016289,10.974259251612294
7.521584600525098,2.7191310789232706,5.914119505161096,6.948840940874167,-33.21262076785464,9.706404720748722
7.548775911314331,2.387004871244724,5.983607914569838,7.045904988081654,-34.19380461053024,8.782296200531677
7.572645960026778,2.0450668251394215,6.054066964450654,7.13372795008697,-35.03988133682374,8.231221650520533
7.593096628278172,1.694668011771184,6.1254042439515235,7.216040166592176,-35.78150392022238,8.079176479486904
7.610043308395884,1.3368529725689604,6.197564645617446,7.296831931387045,-36.45707254593136,8.3506005177889
7.623411838121574,0.9722822471096468,6.270532964931316,7.380337936564934,-37.111740557623655,9.070404646943773
7.63313466059267,0.6011648415334103,6.344336344296965,7.471041983034372,-37.796261822150065,10.26598354415434
7.639146309008004,0.22320222331190964,6.419046764127309,7.573701818475915,-38.5654479500596,11.968683772518899
7.641378331241123,-0.16245225618868636,6.4947837823120675,7.693388656201105,-39.47560670621484,14.21372707706207
7.639753808679236,-0.5572083232508347,6.571717668874078,7.835525926971726,-40.57956297939299,17.036614557289457
7.634181725446728,-0.9630039530447646,6.650072928143795,8.00589207254462,-41.916375402265814,20.462059252306346
7.6245516859162805,-1.3821677070674228,6.730131848869242,8.210512665067684,-43.49004417182666,24.47763274690025
7.610730008845606,-1.8170681487856895,6.812236975519919,8.455288992536687,-45.226500815935474,28.97730782863936
7.592559327357749,-2.269333156945044,6.896789865445285,8.74506207082308,-46.89068263500423,33.649374066389
7.569865995788299,-2.7382399832950863,6.984240486153516,9.08155581148697,-47.93984748971966,37.774502080770034
7.542483595955348,-3.217638458192283,7.075056044268386,9.45930083229467,-47.30824631073281,39.92421465066681
7.5103072113734255,-3.690720921299611,7.169649052591333,9.858542978801337,-43.23250638833876,37.70572510216141
7.473400002160429,-4.123045985182999,7.268234482379346,10.235600229822952,-33.54508811494704,28.138519747404462
7.432169542308599,-4.458496866332469,7.370590484677575,10.516985427296996,-17.18400343276856,9.697586167831906
7.387584573645274,-4.630336900660155,7.475760338950545,10.613961288975315,3.3408520045782804,-14.323278928344411
7.341281204638673,-4.596928380614372,7.581899951840298,10.470728499691871,21.863446525665317,-35.70884114205508
7.295311920832529,-4.378293915357719,7.686607236837217,10.113640088271321,33.24561463912338,-47.70678829527105
7.251528981678952,-4.045837768966485,7.78774363771993,9.636572205318611,37.18324146488763,-50.10562069335042
7.211070603989287,-3.6740053543176083,7.884109359773116,9.135515998385108,36.42311380397291,-46.69029220870725
7.174330550446111,-3.309774216277879,7.975464519756967,8.668613076298035,33.62353247219148,-40.9931509078474
7.141232808283332,-2.973538891555964,8.062150650519948,8.258681567219561,30.317823666288362,-34.9729994023747
7.1114974193677725,-2.6703606548930807,8.144737466192144,7.908951573195814,27.17890475376449,-29.430426023674027
7.084793812818842,-2.3985716073554357,8.223826981924102,7.614647312959074,24.434438740253803,-24.587679726866952
7.060808096745288,-2.154227219952898,8.299973455053692,7.368770515690405,22.120614233519802,-20.431384232049297
7.039265824545759,-1.9330210776176997,8.373661160210597,7.164456673369911,20.20295098574632,-16.870470951521817
7.019935613769582,-1.7309915677602365,8.445305726944296,6.995751963854693,18.62741441362529,-13.800071404283813
7.00262569809198,-1.5447174236239836,8.515263246582844,6.857751249811855,17.340077422905306,-11.124243724519713
6.98717852385574,-1.3713166493949305,8.583840759080962,6.746508812566658,16.293556827834497,-8.762109392551599
6.973465357361791,-1.2083810811165856,8.651305847206629,6.658887718641142,15.448185986596425,-6.647857474296492
6.961381546550625,-1.0538992212506213,8.717894724393041,6.592409143898177,14.77125379067658,-4.7288520712263615
6.950842554338118,-0.9061866833438554,8.783818815832023,6.545120623185913,14.235649067387703,-2.9634749876418858
6.9417806875046795,-0.7638301926699784,8.849270022063882,6.515485873309495,13.818412019398933,-1.319280058707871
6.93414238557798,-0.6256460724759891,8.914424880796977,6.502293072722416,13.499348481162992,0.22837594209139545
6.92788592485322,-0.4906525876643592,8.979447811524201,6.50457683214333,13.259724730990436,1.6972096298926307
6.922979398976576,-0.35805534035445485,9.044493579845634,6.5215489284422565,13.081010700854016,3.098423713516873
6.919398845573031,-0.2272452333459147,9.109709069130057,6.552533165577425,12.943628454615908,4.436694558513028
6.917126393239572,-0.09780894879975563,9.17523440078583,6.596900111162555,12.825672298916865,5.709776625149221
6.916148303751575,0.030447774189413024,9.241203401897456,6.653997877414048,12.701592542803288,6.907779658503549
6.916452781493469,0.1574636996174459,9.307743380671596,6.723075673999083,12.540879523286286,8.012210491147474
6.918027418489643,0.28287249485030874,9.374974137411586,6.803197778910557,12.306854354638347,8.994940375193686
6.920856143438146,0.4059410383966922,9.443006115200692,6.893147182662494,11.955774334313114,9.817370274799675
6.924915553822113,0.5254987817398233,9.511937587027317,6.991320885410491,11.43659498827093,10.430223049947786
6.930170541639511,0.6398647316225327,9.581850795881422,7.0956231159099685,10.691883189904903,10.774577339700508
6.936569188955737,0.7467835635215817,9.652807027040522,7.203368889306974,9.660503123152616,10.784921893256893
6.944037024590953,0.8433885947531079,9.724840715933592,7.311218108239543,8.282711402419975,10.395045085288299
6.9524709105384845,0.9262157087773076,9.797952897015987,7.415168559092426,6.508065240167954,9.547317370568297
6.961733067626257,0.9912963611789871,9.872104582606912,7.510641732798109,4.305922431812582,8.205191698537458
6.9716460312380475,1.034355585497113,9.947210999934894,7.592693649783484,1.6772358490157533,6.367458593758883
6.981989587093018,1.0511279439872705,10.023137936432729,7.6563682357210725,-1.3349950287174344,4.081166167618207
6.9925008665328905,1.0377779937000962,10.09970161878994,7.6971798973972545,-4.640299986167478,1.4488214251099438
7.002878646469892,0.9913749938384214,10.176673417763912,7.711668111648354,-8.103946656942844,-1.3744623515937044
7.012792396408276,0.910335527268993,10.253790098880396,7.6979234881324174,-11.560538889509326,-4.1960361222314475
7.021895751680966,0.7947301383738997,10.33076933376172,7.655963126910103,-14.836368261771849,-6.811143772812139
7.029843053064705,0.6463664557561812,10.407328965030821,7.587851689181981,-17.775337291332555,-9.032650984745404
7.036306717622267,0.4686130828428557,10.48320748192264,7.497525179334527,-20.26150880834639,-10.716945358134872
7.040992848450696,0.2659979947593918,10.558182733715986,7.390355725753179,-22.232485371302666,-11.77925083555364
7.043652828398289,0.04367314104636513,10.632086290973518,7.272563217397643,-23.68129987629568,-12.195677055747252
7.044089559808753,-0.19313985771659167,10.704811923147496,7.15060644684017,-24.648409480330425,-11.993855308855766
7.042158161231587,-0.43962395251989594,10.776317987615897,7.0306678937516125,-25.20789730634093,-11.236872263016386
7.037761921706388,-0.6917029255833053,10.846624666553414,6.918299171121449,-25.452417444348455,-10.005652500996085
