th1 (rad),w1 (rad/s),th2 (rad),w2 (rad/s),a1 (rad/s^2),a2 (rad/s^2)
2.3286775139648137,1.9623206217576707,2.5526728375455927,-3.068938880357731,-5.719558992829764,-0.7222115827364306
2.3483007201823902,1.905125031829373,2.521983448742015,-3.076160996185095,-5.932637131231362,-0.4748635209734474
2.367351970500684,1.8457986605170595,2.4912218387801643,-3.0809096313948294,-6.131458194855741,-0.2701836326761702
2.3858099571058546,1.784484078568502,2.460412742466216,-3.083611467721591,-6.308389835773077,-0.11765902284299311
2.4036547978915395,1.7214001802107712,2.429576627789,-3.084788057950021,-6.457619484872157,-0.024294370252053502
2.4208687996936473,1.6568239853620497,2.3987287472095,-3.0850310016525415,-6.575738694732338,0.006177566950425504
2.4374370395472678,1.5910665984147263,2.3678784371929744,-3.0849692259830372,-6.6620008794046095,-0.026373868191229954
2.453347705531415,1.5244465896206802,2.337028744933144,-3.0852329646649497,-6.718220522460968,-0.11864601572431982
2.468592171427622,1.4572643843960706,2.3061764152864948,-3.086419424822193,-6.748364601175783,-0.26449518782988674
2.4831648152715826,1.3897807383843128,2.275312221038273,-3.0890643767004917,-6.757946039466455,-0.45579585396061795
2.4970626226554256,1.3222012779896484,2.244421577271268,-3.0936223352400978,-6.753349364563607,-0.6833835626348606
2.510284635435322,1.2546677843440124,2.213485353918867,-3.100456170866446,-6.741202620550621,-0.9379228166352057
2.522831313278762,1.1872557581385061,2.1824807922102027,-3.1098353990327983,-6.727871332700495,-1.2105959224804184
2.534703870860147,1.1199770448115012,2.151382438219875,-3.1219413582576023,-6.719107115769753,-1.49356984276903
2.545903641308262,1.0527859736538037,2.120163024637299,-3.1368770566852926,-6.719848080438799,-1.780247594250468
2.5564315010448,0.9855874928494157,2.088794254070446,-3.154679532627797,-6.7341460684348515,-2.065341198857685
2.5662873759732943,0.9182460321650672,2.0572474587441683,-3.175332944616374,-6.765186560661254,-2.34481537494643
2.575469836294945,0.8505941665584547,2.0254941292980044,-3.1987810983658385,-6.815367336794106,-2.6157501578559406
2.5839757779605295,0.7824404931905136,1.993506318314346,-3.224938599944398,-6.886407457432446,-2.8761623940273986
2.5918001828924346,0.7135764186161891,1.961256932314902,-3.253700223884672,-6.9794655175853455,-3.1248153214260843
2.5989359470785964,0.6437817634403357,1.9287199300760554,-3.284948377098933,-7.095253246631939,-3.3610352152598533
2.6053737647129998,0.5728292309740163,1.895870446305066,-3.3185587292515315,-7.234136369566263,-3.584545763665443
2.61110205702274,0.5004878672783537,1.8626848590125507,-3.354404186888186,-7.396218914693603,-3.7953248061257527
2.6161069356955235,0.4265256781314177,1.8291408171436687,-3.3923574349494436,-7.5814099845540035,-3.9934841063555444
2.6203721924768377,0.3507115782858776,1.7952172427941744,-3.432292276012999,-7.789473698656249,-4.179170501530598
2.6238793082596965,0.27281684129931516,1.7608943200340443,-3.474083981028305,-8.020063892007446,-4.352485604973498
2.6266074766726897,0.1926162023792407,1.7261534802237612,-3.51760883707804,-8.27274549216051,-4.5134208415793395
2.628533638696482,0.1098887474576356,1.690977391852981,-3.5627430454938334,-8.547004514096725,-4.661804662780768
2.6296325261710582,0.024418702316668345,1.6553499613980425,-3.6093610921216412,-8.84224845827691,-4.7972591111360146
2.629876713194225,-0.06400378226610075,1.619256350476826,-3.6573336832330012,-9.157798672996153,-4.919163348522028
2.6292366753715637,-0.15558176899606227,1.582683013644496,-3.7065253167182215,-9.492876010462972,-5.02662224588683
2.627680857681603,-0.250510529100692,1.5456177604773138,-3.75679153917709,-9.846580903710102,-5.11843861332237
2.625175752390596,-0.348976338137793,1.5080498450855429,-3.8079759253103136,-10.217868838802966,-5.193088107526209
2.6216859890092183,-0.4511550265258227,1.4699700858324398,-3.8599068063855757,-10.605522103912037,-5.248696284425793
2.61717443874396,-0.5572102475649431,1.431371017768584,-3.912393769229834,-11.008118667721703,-5.283017670312043
2.611602336268311,-0.6672914342421601,1.3922470800762858,-3.965223945932954,-11.423999074911675,-5.29341711080818
2.604929421925889,-0.7815314249912768,1.3525948406169563,-4.018158117041036,-11.851232344348526,-5.276854028952887
2.5971141076759765,-0.9000437484347621,1.312413259446546,-4.070926657330565,-12.287582012536504,-5.229870585074414
2.5881136701916287,-1.0229195685601271,1.2717039928732403,-4.12322536318131,-12.730473675006257,-5.148585081775902
2.5778844745060274,-1.1502243053101897,1.2304717392414273,-4.1747112139990685,-13.176965633045583,-5.028692292142242
2.5663822314529257,-1.2819939616406455,1.1887246271014367,-4.224998136920491,-13.623724540148446,-4.86547269722788
2.5535622918365193,-1.41823120704213,1.1464746457322317,-4.27365286389277,-14.067008244736412,-4.653812882407622
2.539379979766098,-1.558901289489494,1.103738117093304,-4.320190992716846,-14.502658320533493,-4.388239536738789
2.523790966871203,-1.703927872694829,1.0605362071661355,-4.3640733880842335,-14.926105034904118,-4.062969593826679
2.506751688144255,-1.8531889230438703,1.016895473285293,-4.4047030840225005,-15.33238769409828,-3.671979009756994
2.488219798913816,-2.006512799984853,0.9728484424450681,-4.441422874120071,-15.716193383453975,-3.209092452544308
2.4681546709139672,-2.1636747338193927,0.9284342137038674,-4.473513798645514,-16.071917048216594,-2.6680957364725613
2.4465179235757732,-2.3243939043015587,0.8836990757174122,-4.50019475601024,-16.393745595371712,-2.0428721351632584
2.4232739845327576,-2.488331360255276,0.8386971281573099,-4.520623477361872,-16.675768202460166,-1.327562718977329
2.3983906709302047,-2.6550890422798776,0.7934908933836912,-4.5338991045516455,-16.912114269911793,-0.5167495689928827
2.371839780507406,-2.8242101849789956,0.7481519023381747,-4.539066600241575,-17.097119439265647,0.3943408761026235
2.343597678657616,-2.995181379371652,0.702761236335759,-4.535123191480548,-17.225518832237732,1.4096189565067228
2.3136458648638993,-3.1674365676940295,0.6574100044209535,-4.521027001915481,-17.292665181301672,2.531904125571477
2.281971499186959,-3.3403632195070463,0.6121997344017988,-4.495707960659766,-17.294767883754343,3.762697443147262
2.2485678669918885,-3.5133108983445895,0.5672426547952011,-4.4580809862282935,-17.229147305352466,5.101965485495694
2.2134347580084426,-3.6856023713981143,0.5226618449329181,-4.407061331373336,-17.094496994670024,6.547949156064484
2.1765787342944614,-3.8565473413448146,0.47859123161918476,-4.341581839812692,-16.891144969617162,8.097012904373692
2.138013260881013,-4.025458791040986,0.43517541322105785,-4.260611710768955,-16.621304039713483,9.743551530278038
2.0977586729706035,-4.1916718314381205,0.3925692961133683,-4.163176195466175,-16.28930038015838,11.479972901925088
2.055841954656222,-4.354564835239704,0.3509375341587066,-4.048376466446924,-15.901769440536684,13.296775360517044
2.012296306303825,-4.5135825296450705,0.31045376949423736,-3.9154087128417534,-15.467808938791677,15.182738113198733
1.9671604810073744,-4.668260619032988,0.2712996823658198,-3.763581331709766,-14.999080374712518,17.12524130337041
1.9204778748170446,-4.818251422780113,0.23366386904872213,-3.592328918676062,-14.509853435828354,19.110729490258873
1.8722953605892434,-4.963349957138397,0.1977405798619615,-3.4012216237734734,-14.016992103176259,21.12532784264482
1.8226618610178593,-5.103519878170159,0.16372836362422677,-3.189968345347025,-13.539887388289188,23.155614505619706
1.7716266622361578,-5.238918752053051,0.13182868017075652,-2.958412200290828,-13.100349514660646,25.18954566532854
1.7192374747156274,-5.369922247199657,0.10224455816784825,-2.7065167436375424,-12.72248184335005,27.21752250550642
1.6655382522436308,-5.497147065633158,0.07517939073147283,-2.434341518582478,-12.43256945258593,29.23358255516283
1.6105667815872993,-5.621472760159017,0.050835975545648046,-2.1420056930308498,-12.259026100538412,31.236693042449566
1.5543520539857092,-5.7440630211644015,0.02941591861533955,-1.8296387626063542,-12.23245283985274,33.23212159478708
1.4969114237740653,-5.866387549562929,0.011119530989276007,-1.4973175466584834,-12.385867452372938,35.23285937806711
1.438247548278436,-5.9902462240866585,-0.003853644477308826,-1.1449889528778123,-12.755162142622794,37.26106974092604
1.3783450860375694,-6.117797845512887,-0.01530353400608695,-0.7723782554685519,-13.379830051614205,39.349521142508415
1.3171671075824405,-6.251596146029029,-0.02302731656077247,-0.37888304404346773,-14.303953629854032,41.54291261880738
1.2546511461221501,-6.39463568232757,-0.026816147001207147,0.036546082144606085,-15.577336248520016,43.89886160010381
1.1907047892988745,-6.55040904481277,-0.026450686179761086,0.47553469814564414,-17.25640916697907,46.48798761977647
1.1252006988507468,-6.72297313648256,-0.021695339198304645,0.9404145743434089,-19.403998130641433,49.39175731167616
1.0579709674859212,-6.917013117788974,-0.012291193454870555,1.4343321474601705,-22.085838268268645,52.695058092879904
0.9888008363080315,-7.13787150047166,0.0020521280197311493,1.9612827283889696,-25.359142865648153,56.46679729935743
0.9174221213033149,-7.391462929128142,0.021664955303620843,2.525950701382544,-29.243077936710794,60.71410629414099
0.8435074920120335,-7.68389370849525,0.046924462317446285,3.1330917643239538,-33.650092205220645,65.28039308572764
0.766668554927081,-8.020394630547457,0.07825537996068582,3.78589569518123,-38.238067006897104,69.63100148976893
0.6864646086216064,-8.402775300616428,0.11611433691249812,4.48220571007892,-42.122639245072506,72.44218276362577
0.6024368556154421,-8.824001693067153,0.1609363940132873,5.206627537715177,-43.422328974782765,70.95884373848173
0.5141968386847706,-9.25822498281498,0.21300266939043908,5.916215975099995,-38.90475354275859,60.509899994629784
0.42161458885662084,-9.647272518242566,0.272164829141439,6.521314975046293,-24.899127301752685,35.844721209682326
0.3251418636741952,-9.896263791260093,0.33737797889190196,6.8797621871431165,-1.2398351714934028,-3.202521827321228
0.22617922576159424,-9.908662142975027,0.40617560076333314,6.847736968869905,24.32235156645783,-45.37843522904354
0.12709260433184397,-9.665438627310449,0.4746529704520322,6.393952616579469,40.83161105929083,-74.6886014814077
0.030438218058739475,-9.25712251671754,0.5385924966178269,5.647066601765392,45.06882499836852,-86.09671273444037
-0.06213300710843593,-8.806434266733856,0.5950631626354809,4.786099474420988,41.55915561961167,-85.77348080012517
-0.15019734977577448,-8.39084271053774,0.6429241573796908,3.9283646664197365,35.31826976933622,-80.82338637401527
-0.23410577688115186,-8.037660012844377,0.6822078040438881,3.1201308026795838,28.987375431702933,-75.07941553231242
-0.31448237700959564,-7.747786258527348,0.713409112070684,2.3693366473564597,23.504427171791956,-69.95308564253737
-0.39196023959486914,-7.512741986809428,0.7371024785442486,1.669805790931086,19.060133536676478,-65.75897018707411
-0.46708765946296343,-7.3221406514426635,0.7538005364535595,1.0122160890603449,15.592810392816421,-62.41763489936938
-0.54030906597739,-7.166212547514499,0.763922697344163,0.3880397400666511,12.982054559182483,-59.73979820650276
-0.611971191452535,-7.036392001922675,0.7678030947448294,-0.2093582419983765,11.112525301694596,-57.52674914843382
-0.6823351114717617,-6.925266748905729,0.7657095123248456,-0.7846257334827147,9.889460425073212,-55.60122655946074
-0.7515877789608191,-6.826372144654997,0.7578632549900185,-1.3406379990773223,9.237993006618654,-53.81429038639891
-0.8198515004073691,-6.7339922145888105,0.7444568749992453,-1.8787809029413114,9.097939228458593,-52.04493348834954
-0.8871914225532572,-6.643012822304224,0.7256690659698322,-2.3992302378248067,9.418095437481915,-50.1981699857262
-0.9536215507762995,-6.5488318679294055,0.701676763591584,-2.901211937682069,10.151349619906503,-48.20327391306182
-1.0191098694555936,-6.447318371730341,0.6726646442147634,-3.383244676812687,11.250967463923432,-46.01240226906233
-1.083583053172897,-6.334808697091106,0.6388321974466364,-3.8433686995033103,12.668095500779796,-43.59938560856947
-1.146931140143808,-6.208127742083309,0.6003985104516033,-4.279362555589005,14.350412842614077,-40.958394856850234
-1.209012417564641,-6.064623613657168,0.5576048848957132,-4.688946504157507,16.24181374522341,-38.10225895084169
-1.2696586537012127,-5.902205476204934,0.5107154198541382,-5.069969093665924,18.28297195723626,-35.06031609534337
-1.328680708463262,-5.719375756632571,0.4600157289174789,-5.420572254619358,20.41261557595224,-31.87578712585014
-1.3858744660295876,-5.515249600873049,0.4058100063712853,-5.73933012587786,22.56932754467628,-28.6027428513513
-1.441026962038318,-5.289556325426286,0.34841670511250666,-6.025357554391373,24.69368116810227,-25.30279331918075
-1.493922525292581,-5.042619513745263,0.2881631295685929,-6.278385487583181,26.73051964606765,-22.041659727493368
-1.5443487204300337,-4.775314317284587,0.2253792746927611,-6.498802084858115,28.631191754050455,-18.88580652743694
-1.5921018636028796,-4.489002399744082,0.16039125384417996,-6.687660150132484,30.355563436451423,-15.899317551092905
-1.6369918876003204,-4.185446765379568,0.09351465234285511,-6.8466533256434134,31.873641486218325,-13.141196537990764
-1.6788463552541162,-3.866710350517385,0.025048119086420975,-6.978065291023321,33.16667608806737,-10.663255875038766
-1.71751345875929,-3.5350435896367114,-0.04473253382381223,-7.0846978497737085,34.22765690054412,-8.508723561142675
-1.7528638946556572,-3.1927670206312704,-0.11557951232154932,-7.1697850853851355,35.061180334544666,-6.711646350056897
-1.7847915648619699,-2.8421552172858235,-0.18727736317540067,-7.2369015488857045,35.68273543329493,-5.297101184493762
-1.813213117034828,-2.4853278629528743,-0.2596463786642577,-7.289872560730642,36.117519693726145,-4.282156756306891
-1.8380663956643568,-2.124152666015613,-0.33254510427156414,-7.332694128293711,36.398941001887025,-3.6774631735463887
-1.859307922324513,-1.7601632559967426,-0.40587204555450124,-7.369468760029175,36.56697695452759,-3.4892979125822072
-1.8769095548844805,-1.3944934864514666,-0.479566733154793,-7.404361739154997,36.6665415522371,-3.721860240783937
-1.8908544897489952,-1.0278280709290957,-0.553610350546343,-7.441580341562837,36.7459469591591,-4.37957205740278
-1.901132770458286,-0.6603686013375047,-0.6280261539619714,-7.485376062136864,36.85543642030451,-5.469082401794111
-1.9077364564716612,-0.2918142371344597,-0.70287991458334,-7.540066886154805,37.04558147057605,-7.00053356130468
-1.910654598843006,0.07864157757130086,-0.778280583444888,-7.610072221767852,37.36503062441735,-8.98733646534862
-1.909868183067293,0.45229188381547436,-0.8543813056625665,-7.699945586421338,37.85656194162079,-11.443058370280458
-1.9053452642291382,0.8308575032316823,-0.93138076152678,-7.8143761701241425,38.54943329444234,-14.372762602901433
-1.8970366891968213,1.2163518361761056,-1.0095245232280214,-7.958103796153157,39.44432843758658,-17.75380625946642
-1.8848731708350603,1.6107951205519715,-1.089105561189553,-8.135641858747821,40.48440118612433,-21.49715871193628
-1.8687652196295406,2.015639132413215,-1.1704619797770313,-8.350613445867184,41.50214254203601,-25.374839833362163
-1.8486088283054085,2.430660557833575,-1.253968114235703,-8.604361844200806,42.129761866703085,-28.89573255623054
-1.8243022227270727,2.851958176500606,-1.3400117326777112,-8.893319169763112,41.672093930227526,-31.126734241617026
-1.7957826409620665,3.268679115802881,-1.4289449243753423,-9.204586512179283,38.99802332609429,-30.533843770403923
-1.7630958498040377,3.658659349063824,-1.520990789497135,-9.509924949883322,32.65723058684963,-25.12614957210055
-1.7265092563133995,3.9852316549323206,-1.6160900389959683,-9.761186445604327,21.609065279782268,-13.437641031242137
-1.6866569397640763,4.201322307730143,-1.7137019034520116,-9.895562855916749,6.642063476686065,3.5377832552449577
-1.644643716686775,4.267742942497003,-1.812657532011179,-9.8601850233643,-8.847763788355115,21.283701588952407
-1.6019662872618048,4.179265304613452,-1.911259382244822,-9.647348007474775,-20.685867872446572,34.25825693436047
-1.5601736342156702,3.9724066258889863,-2.00773286231957,-9.30476543813117,-26.97801332243297,40.02921588399247
-1.5204495679567804,3.7026264926646566,-2.1007805167008815,-8.904473279291246,-28.645187161417688,39.92791776536695
-1.4834233030301338,3.4161746210504798,-2.189825249493794,-8.505194101637576,-27.62455306484809,36.570764996911116
-1.449261556819629,3.1399290904019987,-2.27487719051017,-8.139486451668464,-25.461907407225375,31.981601838020307
-1.417862265915609,2.885310016329745,-2.3562720550268543,-7.819670433288261,-23.031154124441507,27.25728296130351
-1.3890091657523116,2.65499847508533,-2.4344687593597367,-7.547097603675225,-20.733475247911212,22.862990773109814
-1.3624591810014584,2.447663722606218,-2.509939735396489,-7.318467695944127,-18.71779829731738,18.937943730174908
-1.3379825437753963,2.2604857396330442,-2.5831244123559305,-7.129088258642378,-17.01670342292827,15.478268587404838
-1.3153776863790658,2.0903187054037615,-2.6544152949423543,-6.97430557276833,-15.615347409970283,12.427001773206849
-1.2944744993250281,1.9341652313040587,-2.7241583506700375,-6.8500355550362615,-14.483150249159277,9.713868101201605
-1.2751328470119876,1.789333728812466,-2.7926587062204002,-6.752896874024246,-13.587274729533979,7.271214327369793
-1.257239509723863,1.6534609815171262,-2.8601876749606427,-6.680184730750548,-12.897726400638502,5.03942132672397
-1.2407048999086916,1.524483717510741,-2.926989522268148,-6.629790517483308,-12.388735525507473,2.9679985102455224
-1.225460062733584,1.4005963622556663,-2.993287427442981,-6.600110532380852,-12.038532659583472,1.015138037995104
-1.2114540991110274,1.2802110356598315,-3.0592885327667894,-6.589959152000901,-11.828429567836448,-0.8530517237799358
-1.1986519887544291,1.161926739981467,-3.1251881242867983,-6.598489669238701,-11.741560073137599,-2.663095342212617
-1.1870327213546146,1.044511139250091,-3.191173020979185,-6.625120622660827,-11.761374603882722,-4.434225684024052
-1.1765876099621138,0.9268973932112637,-3.257424227205793,-6.669462879501068,-11.86985728574774,-6.177832627683986
-1.1673186360300012,0.8081988203537863,-3.324118856000804,-6.731241205777907,-12.045375672105523,-7.896161985980904
-1.1592366478264633,0.6877450636327311,-3.391431268058583,-6.810202825637717,-12.260056986131156,-9.580154370363257
-1.152359197190136,0.5651444937714196,-3.4595332963149605,-6.906004369341349,-12.476615545360483,-11.206354043953052
-1.1467077522524216,0.4403783383178148,-3.528593340008374,-7.018067909780879,-12.644661505199933,-12.7329375819546
-1.1423039688692436,0.3139317232658155,-3.598774019106183,-7.145397285600425,-12.696751394882195,-14.095182805423832
-1.1391646516365854,0.18696420931699353,-3.670227991962187,-7.286349113654663,-12.544863029133097,-15.20120987053623
-1.1372950095434156,0.06151557902566257,-3.7430914830987336,-7.438361212360025,-12.07864744321413,-15.929656229417368
-1.1366798537531588,-0.059270895406478744,-3.817475095222334,-7.5976577746541984,-11.167699310657298,-16.132068904545438
-1.1372725627072235,-0.1709478885130517,-3.893451672968876,-7.758978463699653,-9.670934406532716,-15.6438963502351
-1.1389820415923542,-0.26765723257837887,-3.9710414576058723,-7.915417427202004,-7.45628501038065,-14.308189622926571
-1.141658613918138,-0.3422200826821854,-4.050195631877893,-8.05849932343127,-4.432155350183546,-12.0140116886298
-1.1450808147449598,-0.3865416361840209,-4.130780625112205,-8.178639440317568,-0.5872473170514384,-8.745613016170601
-1.1489462311068,-0.39241410935453525,-4.212567019515381,-8.266095570479274,3.972279667199049,-4.628940005385477
-1.1528703722003453,-0.3526913126825448,-4.295227975220174,-8.31238497053313,9.00625734635769,0.0465792473887908
-1.1563972853271707,-0.2626287392189679,-4.378351824925505,-8.311919178059242,14.161873835051795,4.852313643284255
