th1 (rad),w1 (rad/s),th2 (rad),w2 (rad/s),a1 (rad/s^2),a2 (rad/s^2)
2.230596799339454,-2.9686138012965873,3.645577084409486,2.4754499732937902,-4.461739457168691,-3.2809032830682496
2.200910661326488,-3.0132311958682743,3.6703315841424238,2.4426409404631078,-4.767565757885535,-3.606900657501086
2.1707783493678052,-3.0609068534471295,3.694757993547055,2.406571933888097,-5.102839143053028,-3.9713195080253767
2.140169280833334,-3.11193524487766,3.718823712885936,2.3668587388078435,-5.470225131146516,-4.378911045878906
2.1090499283845574,-3.166637496189125,3.7424923002740145,2.3230696283490544,-5.872640187632403,-4.834809177421978
2.077383553422666,-3.225363898065449,3.765722996557505,2.274721536574835,-6.313229530166075,-5.344518738629796
2.0451299144420116,-3.2884961933671097,3.7884702119232534,2.221276349188537,-6.795325666027892,-5.913874566949056
2.0122449525083406,-3.3564494500273887,3.810682975415139,2.1621376035190463,-7.3223797014955645,-6.548958638042235
1.9786804580080666,-3.4296732470423446,3.8323043514503294,2.096648017138624,-7.897855035496722,-7.255958455546497
1.944383725537643,-3.5086517973973117,3.8532708316217157,2.024088432583159,-8.52507022608314,-8.040945030961847
1.9092972075636698,-3.5939024996581432,3.873511715947547,1.9436789822735405,-9.20697473475211,-8.909543292102946
1.8733581825670884,-3.6859722470056644,3.8929485057702826,1.8545835493525111,-9.945838239062702,-9.866462065871826
1.8364984600970318,-3.7854306293962914,3.9114943412638077,1.7559189286937928,-10.742831891518325,-10.914845824583658
1.7986441538030689,-3.8928589483114746,3.9290535305507457,1.6467704704479562,-11.597479372598908,-12.055407817165781
1.759715564319954,-4.008833742037464,3.9455212352552254,1.5262163922762984,-12.506958517309199,-13.285306681941462
1.7196272268995794,-4.133903327210556,3.960783399177988,1.3933633254568838,-13.465243070224444,-14.59674004822279
1.6782881936274738,-4.2685557579128,3.974717032432557,1.247395924974656,-14.462091772614304,-15.975254127042597
1.6356026360483458,-4.413176675638943,3.987190991682304,1.08764338370423,-15.481921772650947,-17.397813771589217
1.5914708692919564,-4.5679958933654525,3.9980674255193462,0.9136652459883379,-16.50264775968475,-18.830748169948986
1.5457909103583019,-4.7330223709623,4.00720407797923,0.725357764288848,-17.49462708691375,-20.22778488945314
1.498460686648679,-4.907968641831437,4.0144576556221185,0.5230799153943166,-18.41991890815823,-21.528503126465356
1.4493810002303646,-5.092167830913019,4.019688454776062,0.30779488412966305,-19.2321280745591,-22.657656160553746
1.3984593219212345,-5.28448911165861,4.022766403617358,0.08121832252412559,-19.87713826727614,-23.525896476517648
1.3456144308046483,-5.483260494331372,4.023578586842599,-0.1540406422410509,-20.295012142902028,-24.032432870811373
1.2907818258613346,-5.686210615760392,4.022038180420188,-0.3943649709491647,-20.423219832026373,-24.07000269067825
1.2339197197037306,-5.8904428140806555,4.018094530710696,-0.6350649978559472,-20.201141101549183,-23.5322232258954
1.175015291562924,-6.092454225096147,4.011743880732137,-0.8703872301149012,-19.57550011881227,-22.322919631398374
1.1140907493119625,-6.28820922628427,4.003040008430988,-1.093616426428885,-18.50611249344545,-20.36651590487395
1.05120865704912,-6.473270351218725,3.992103844166699,-1.2972815854776245,-16.971160791915697,-17.618186482729016
0.9864759535369326,-6.642981959137882,3.979131028311923,-1.4734634503049147,-14.971258646375,-14.072363029740622
0.9200461339455538,-6.792694545601631,3.9643963938088738,-1.6141870806023209,-12.531828317183816,-9.76844195785858
0.8521191884895375,-6.9180128287734695,3.9482545230028507,-1.7118715001809066,-9.703703178995926,-4.793048612360106
0.7829390602018028,-7.015049860563429,3.9311358080010415,-1.7598019863045078,-6.56219294058978,0.7212515470854727
0.7127885615961685,-7.080671789969327,3.9135377881379965,-1.7525894708336531,-3.2049417541156995,6.600601177969316
0.6419818436964753,-7.112721207510484,3.89601189342966,-1.68658345905396,0.2512903602602271,12.63770683091221
0.5708546316213704,-7.110208303907882,3.8791460588391207,-1.5602063907448378,3.675168027436942,18.603008253640635
0.49975254858229157,-7.073456623633513,3.863543994931672,-1.3741763082084315,6.927179500180405,24.25940154355491
0.42901798234595645,-7.0041848286317085,3.849802231849588,-1.1315822927728825,9.868348239284003,29.38038924811287
0.35897613405963935,-6.905501346238869,3.838486408921859,-0.8377784002917538,12.371098938404039,33.77049548834932
0.28992112059725067,-6.781790356854828,3.8301086249189416,-0.5000734454082606,14.331097285510504,37.28533513402963
0.2221032170287024,-6.638479383999723,3.8251078904648588,-0.1272200940679643,15.677877621177037,39.84754938836441
0.15571842318870516,-6.481700607787952,3.823835689524179,0.2712553998156798,16.38166230306146,41.454743032445286
0.09090141711082564,-6.317883984757338,3.826548243522336,0.6858028301401327,16.454359843509476,42.177029381949225
0.02772257726325225,-6.153340386322244,3.8334062718237374,1.107573123959625,15.94421608104424,42.144457069998424
-0.03381082659997019,-5.993898225511801,3.8444820030633338,1.5290176946596092,14.925373985631378,41.52737161959185
-0.0937498088550882,-5.844644485655487,3.85977218000993,1.9442914108555276,13.484878743824613,40.51443919649363
-0.15219625371164308,-5.709795698217241,3.8792150941184853,2.349435802820464,11.709943997626391,39.293016930860475
-0.20929421069381549,-5.592696258240977,3.90270945214669,2.7423659721290687,9.677620261448789,38.03507954762944
-0.26522117327622524,-5.495920055626489,3.9301331118679808,3.122716767605363,7.447847330124565,36.889878869568
-0.32018037383249015,-5.421441582325244,3.9613602795440346,3.491615556301043,5.0597728205123875,35.98279135726966
-0.3743947896557426,-5.37084385412012,3.996276435107045,3.8514434698737396,2.5305152039493137,35.418854268814925
-0.4281032281969438,-5.345538702080627,4.034790869805782,4.205632012561889,-0.14469628439054585,35.289294475549404
-0.48155861521775006,-5.346985664924532,4.076847189931401,4.558524957317383,-2.99197203010478,35.67963282545738
-0.5350284718669954,-5.37690538522558,4.122432439504575,4.915321285571957,-6.058461436348957,36.67835205940606
-0.5887975257192513,-5.4374899995890695,4.171585652360294,5.282104806166018,-9.412492409860858,38.38531827528325
-0.643172425715142,-5.531614923687678,4.224406700421954,5.6659579889188505,-13.143576887895934,40.91875886599133
-0.6984885749520188,-5.663050692566637,4.281066280311143,6.0751455775787635,-17.36015689163287,44.4179054625946
-0.7551190818776852,-5.836652261482966,4.341817736086931,6.519324632204709,-22.179390438720073,49.03372886430019
-0.8134856044925148,-6.0584461658701665,4.407010982408978,7.009661920847711,-27.6947522748778,54.88850853724493
-0.8740700661512165,-6.335393688618945,4.477107601617455,7.55854700622016,-33.88727871048163,61.957286810901905
-0.9374240030374059,-6.674266475723761,4.5526930716796565,8.178119874329179,-40.40313834543505,69.76399643206426
-1.0041666677946435,-7.078297859178112,4.634474270422948,8.87575983864982,-46.04708064018144,76.68226939562773
-1.0749496463864245,-7.538768665579926,4.723231868809446,9.642582532606097,-47.82372703090005,78.6040183831363
-1.1503373330422237,-8.017005935888927,4.819657694135507,10.42862271643746,-39.93235895335257,67.5355600587532
-1.230507392401113,-8.416329525422451,4.923943921299881,11.10397831702499,-15.616047203245214,34.16199786258084
-1.3146706876553376,-8.572489997454904,5.0349837044701315,11.445598295650798,23.155947337490762,-18.691392630952908
-1.4003955876298866,-8.340930524079996,5.149439687426639,11.25868436934127,57.821461097404566,-65.23123667132704
-1.4838048928706866,-7.76271591310595,5.262026531120052,10.606372002628,71.98467571644966,-82.95565450768238
-1.5614320520017462,-7.042869155941453,5.368090251146332,9.776815457551177,69.5771514879281,-77.64904468744048
-1.6318607435611607,-6.347097641062172,5.465858405721844,9.000325010676772,61.27166332870342,-64.20176059511988
-1.6953317199717826,-5.734381007775138,5.555861655828611,8.358307404725572,52.81861557681687,-50.51705101915612
-1.752675530049534,-5.206194852006969,5.6394447298758665,7.8531368945340105,45.89605583269803,-38.83468749983858
-1.8047374785696038,-4.7472342936799885,5.7179760988212065,7.4647900195356245,40.64140594523145,-29.28045573830845
-1.8522098215064036,-4.3408202342276745,5.792623999016563,7.17198546215254,36.800131379035456,-21.45579440658001
-1.8956180238486804,-3.97281892043732,5.864343853638088,6.95742751808674,34.08425855834637,-14.927773378837523
-1.9353462130530537,-3.631976334853856,5.933918128818956,6.808149784298364,32.25734067433438,-9.34309995631947
-1.9716659764015922,-3.3094029281105124,6.00199962666194,6.71471878473517,31.140693636957696,-4.436199731939173
-2.0047600056826975,-2.9979959917409356,6.069146814509291,6.670356787415778,30.6010540321305,-0.014073167813171764
-2.034739965600107,-2.6919854514196304,6.135850382383449,6.670216055737646,30.536222700822194,4.059386714882331
-2.0616598201143033,-2.3866232244114083,6.2025525429408255,6.71080992288647,30.862319682055134,7.874514874831972
-2.0855260523584174,-2.078000027590857,6.26966064216969,6.78955507163479,31.50273895145631,11.482081849245589
-2.106306052634326,-1.762972638076294,6.337556192886038,6.904375890127246,32.37815968515136,14.895331334064519
-2.123935779015089,-1.4391910412247804,6.40659995178731,7.053329203467891,33.39710253538342,18.088817372405003
-2.1383276894273364,-1.1052200158709462,6.4771332438219895,7.234217377191941,34.44700473405637,20.995244376299173
-2.149379889586046,-0.7607499685303825,6.549475417593909,7.444169820954933,35.38655022713002,23.502056762963424
-2.15698738927135,-0.4068844662590822,6.623917115803458,7.679190388584567,36.041039317545426,25.45046150036989
-2.1610562339339405,-0.04647407308362794,6.700709019689303,7.933695003588266,36.20381055289256,26.640752646106144
-2.1615209746647768,0.3155640324452977,6.780045969725186,8.200102530049326,35.64771174332108,26.848703120714966
-2.1583653343403237,0.6720411498785085,6.862046995025679,8.468589561256476,34.150440577593095,25.857290518266424
-2.151644922841539,1.0135455556544395,6.946732890638244,8.72716246643914,31.53492149263575,23.504610436264088
-2.1415094672849944,1.328894770580797,7.034004515302636,8.962208570801781,27.71979945879751,19.741520273671398
-2.1282205195791866,1.6060927651687722,7.1236266010106535,9.159623773538495,22.766611752986815,14.682791260767983
-2.1121595919274987,1.8337588826986404,7.215222838746039,9.306451686146175,16.903646708525816,8.628748817110543
-2.093822003100512,2.0027953497838986,7.308287355607501,9.392739174317281,10.508582784127197,2.038244484930533
-2.073794049602673,2.1078811776251705,7.402214747350674,9.413121619166587,4.0463039640783975,-4.5483136278718215
-2.0527152378264213,2.1483442172659544,7.496345963542339,9.367638482887868,-2.0207676183239136,-10.612967381735563
-2.0312317956537616,2.128136541082715,7.5900223483712175,9.261508809070513,-7.318348496230508,-15.754000413055381
-2.0099504302429345,2.05495305612041,7.682637436461922,9.103968804939958,-11.613545922121592,-19.738602261990906
-1.9894008996817305,1.938817596899194,7.773677124511322,8.906582782320049,-14.824753714998058,-22.50535112659195
-1.9700127237127385,1.7905700597492136,7.862742952334523,8.68152927105413,-16.996364944476017,-24.128964199013613
-1.9521070231152464,1.6206064103044535,7.949558245045065,8.440239629063994,-18.25624370671741,-24.769087574382354
-1.9359009590122018,1.4380439732372794,8.033960641335705,8.192548753320171,-18.772741141312643,-24.621753039600712
-1.921520519279829,1.250316561824153,8.115886128868906,7.946331222924164,-18.72113400093276,-23.883377881538564
-1.9090173536615875,1.0631052218148254,8.195349441098148,7.707497444108778,-18.262353892272277,-22.729249436705558
-1.8983863014434392,0.8804816828921026,8.272424415539236,7.480204949741722,-17.53249652113621,-21.303942265629665
-1.8895814846145182,0.7051567176807405,8.347226465036654,7.267165527085425,-16.639942691422693,-19.719731951450072
-1.8825299174377108,0.5387572907665136,8.419898120307508,7.069968207570924,-15.666974440757995,-18.059455695162157
-1.8771423445300457,0.3820875463589336,8.490597802383217,6.889373650619302,-14.67352730818122,-16.38127832747934
-1.8733214690664564,0.2353522732771214,8.55949153888941,6.725560867344509,-13.701568533238959,-14.723816584141959
-1.8709679463336852,0.09833658794473182,8.626747147562856,6.578322701503089,-12.779269984846374,-13.110820320156833
-1.8699845804542379,-0.02945611190373193,8.692530374577887,6.447214498301521,-11.924600942981746,-11.555086724029982
-1.8702791415732751,-0.14870212133354938,8.757002519560901,6.331663631061221,-11.148235101857564,-10.061552120659426
-1.8717661627866107,-0.260184472352125,8.820319155871513,6.231048109854626,-10.45580524622032,-8.629636494129997
-1.8743680075101319,-0.36474252481432823,8.882629636970059,6.144751744913326,-9.849597966366513,-7.254965305470672
-1.8780154327582752,-0.46323850447799336,8.944077154419192,6.072202091858619,-9.329795152702106,-5.930600060583418
-1.8826478178030552,-0.5565364560050144,9.004799175337778,6.012896091252785,-8.89536128211957,-4.647896870853817
-1.8882131823631054,-0.6454900688262102,9.064928136250305,5.9664171225442475,-8.544658449562801,-3.3970941220913384
-1.8946680830513676,-0.7309366533218382,9.124592307475748,5.932446181323334,-8.275851177773898,-2.1677132547917664
-1.901977449584586,-0.8136951650995772,9.183916769288981,5.910769048775416,-8.087142872112285,-0.9488441080246061
-1.9101144012355817,-0.8945665938207,9.243024459776736,5.90128060769517,-7.976865680032213,0.27061965406627325
-1.9190600671737887,-0.9743352506210221,9.302037265853688,5.903986804235832,-7.943424296780187,1.5017270343857598
-1.928803419679999,-1.053769493588824,9.361077133896046,5.91900407457969,-7.9850696367384,2.7551168311449654
-1.9393411146158872,-1.133620189956208,9.420267174641843,5.94655524289114,-8.099446904212366,4.040456407153719
-1.9506773165154492,-1.2146146589983315,9.479732727070754,5.986959806962678,-8.282820018140717,5.365515708876706
-1.9628234631054324,-1.2974428591797387,9.53960232514038,6.040614964051445,-8.528815431565917,6.734646429184143
-1.9757978916972299,-1.3827310134953978,9.600008474780894,6.107961428343286,-8.826448997092728,8.146330285851853
-1.9896252018321838,-1.4709955034663251,9.661088089064327,6.189424731201804,-9.157101851268168,9.589324175629825
-2.0043351568668473,-1.5625665219790068,9.722982336376345,6.285317972958102,-9.490017673053751,11.036791891878288
-2.019960822086637,-1.6574666987095443,9.785835516105927,6.395685891876885,-9.775878183403094,12.437770326395517
-2.036535489073733,-1.7552254805435752,9.849792375024695,6.52006359514084,-9.938264715738775,13.70562703484817
-2.0540877438791685,-1.854608127700963,9.914993010976103,6.657119865489322,-9.863731659606465,14.70437368318035
-2.0726338251561782,-1.9532454442970275,9.981564209630996,6.804163602321125,-9.393488705350501,15.236755030967222
-2.0921662795991485,-2.0471803313505323,10.049605845654208,6.956531152630798,-8.32405570867312,15.043981444845548
-2.1126380829126536,-2.1304208884372637,10.119171157180515,7.106970967079254,-6.4302651697030715,13.835246328239895
-2.1339422917970263,-2.1947235401342944,10.190240866851308,7.245323430361653,-3.5268756904055474,11.369281182674957
-2.155889527198369,-2.2299922970383497,10.262694101154924,7.359016242188402,0.4274325645843908,7.593335151646772
-2.1781894501687526,-2.225717971392506,10.336284263576808,7.43494959370487,5.220390298321336,2.789798515148087
-2.200446629882678,-2.1735140684092924,10.410633759513857,7.46284757885635,10.358324769421662,-2.3884191931037533
-2.222181770566771,-2.0699308207150757,10.48526223530242,7.4389633869253124,15.197226666876528,-7.0972911620782035
-2.2428810787739217,-1.9179585540463104,10.559651869171674,7.367990475304531,19.188674541457214,-10.633227800926534
-2.262060664314385,-1.7260718086317384,10.63333177392472,7.261658197295265,22.073191196973358,-12.687807707111018
-2.279321382400702,-1.5053398966620049,10.705948355897673,7.134780120224155,23.897092133501328,-13.360773432852506
-2.2943747813673223,-1.2663689753269916,10.777296157099915,7.0011723858956305,24.89128732885612,-12.98943715365406
-2.3070384711205922,-1.0174561020384303,10.847307880958871,6.87127801435909,25.331643258028503,-11.959309774593526
-2.3172130321409767,-0.7641396694581453,10.916020661102461,6.751684916613155,25.45407824604013,-10.593100661480532
-2.3248544288355584,-0.5095988869977439,10.983537510268594,6.64575390999835,25.427400072893356,-9.11884447113544
-2.3299504177055357,-0.25532488626881034,11.049995049368578,6.554565465286995,25.35844447684874,-7.680723150875777
-2.3325036665682237,-0.0017404415003229312,11.115540704021448,6.477758233778237,25.30768943371093,-6.362591367619087
-2.332521070983227,0.25133645283678635,11.180318286359231,6.414132320102047,25.304480146818616,-5.209797292270742
-2.330007706454859,0.5043812543049725,11.244459609560252,6.362034347179339,25.358501040561745,-4.245176416019064
-2.3249638939118094,0.7579662647105899,11.308079953032045,6.319582583019148,25.467455664482753,-3.4794886293559455
-2.3173842312647035,1.0126408213554174,11.371275778862238,6.284787696725589,25.621885476766007,-2.917744094917298
-2.3072578230511493,1.2688596761230775,11.434123655829493,6.255610255776416,25.808086766069085,-2.5628000595673823
-2.2945692262899184,1.5269405437837684,11.496679758387257,6.229982255180742,26.009855789664595,-2.417239485978828
-2.279299820852081,1.7870391016804144,11.558979580939065,6.2058098603209535,26.20955676174858,-2.484192131376862
-2.261429429835277,2.0491346692979002,11.621037679542274,6.180967939007185,26.388829656831035,-2.7675055640670667
-2.240938083142298,2.3130229658662107,11.682847358932346,6.153292883366514,26.529134768560297,-3.2715106156335327
-2.217807853483636,2.5783143135518136,11.744380287766012,6.120577777210178,26.612253108120683,-4.000528243906139
-2.1920247103481176,2.8444368446330204,11.805586065538114,6.080572494771117,26.620811080320053,-4.9582104931738415
-2.1635803419017874,3.110644955436221,11.866391790485824,6.030990389839379,26.538863613956703,-6.1467812101397925
-2.1324738923474253,3.376033591575788,11.926701694384219,5.969522577737981,26.352545180699547,-7.566231761221935
-2.0987135564316675,3.6395590433827834,11.9863969201616,5.893860260125761,26.05077902597391,-9.213526163734079
-2.0623179659978397,3.9000668336425224,12.045335522762857,5.80172499848842,25.62601961778746,-11.08187398032322
-2.0233172976614147,4.156327029820397,12.10335277274774,5.690906258685188,25.074991285938033,-13.160134564003686
-1.9817540273632106,4.407076942679777,12.160261835334593,5.5593049130451515,24.399377551033155,-15.432420171723676
-1.937683257936413,4.651070718190108,12.215854884465044,5.404980711327915,23.606411377202004,-17.877966117527315
-1.8911725507545118,4.887134831962128,12.269904691578322,5.226201050152642,22.709317235882914,-20.47133209073918
-1.8423012024348906,5.114228004320958,12.322166702079848,5.0214877292452496,21.727562019111517,-23.18298910633793
-1.791158922391681,5.331503624512073,12.3723815793723,4.789657838181871,20.686883837437748,-25.980330857327488
-1.7378438861465604,5.53837246288645,12.420278157754119,4.5298545296085955,19.61908566207387,-28.82912659493738
-1.682460161517696,5.734563319507188,12.465576703050205,4.241563263659222,18.561604390844472,-31.69540582378999
-1.625114528322624,5.920179363415633,12.507992335686797,3.924609205421322,17.556894540263457,-34.547734744649425
-1.5659127346884678,6.095748308818267,12.54723842774101,3.5791318579748275,16.651697945717274,-37.359813399542865
-1.504955251600285,6.26226528827544,12.58302974632076,3.2055337239793986,15.896303971079723,-40.113294981589725
-1.4423325987175306,6.421228327986237,12.615085083560553,2.8044007741635015,15.343934515958363,-42.80070929693491
