th1 (rad),w1 (rad/s),th2 (rad),w2 (rad/s),a1 (rad/s^2),a2 (rad/s^2)
2.6949826678621287,-1.2630995382389478,1.4960099874815178,-0.05192295766703075,-2.9215457390174304,-7.224765986870691
2.682351672479739,-1.2923149956291222,1.4954907579048475,-0.12417061753573766,-3.023055769731923,-7.091380165839783
2.669428522523448,-1.3225455533264414,1.4942490517294902,-0.1950844191941355,-3.135783886283397,-6.948819600657599
2.6562030669901837,-1.3539033921892754,1.4922982075375488,-0.2645726152007115,-3.2594889375897598,-6.7964624185465485
2.642664033068291,-1.386498281565173,1.4896524813855416,-0.332537239386177,-3.393924265915506,-6.633680928612609
2.6287990502526393,-1.4204375242243281,1.4863271089916799,-0.39887404867230314,-3.538838050657947,-6.459837832374937
2.614594675010396,-1.4558259047309077,1.482338368504957,-0.4634724269960525,-3.6939739856048126,-6.274282314481256
2.600036415963087,-1.4927656445869557,1.4777036442349964,-0.526215250140865,-3.8590723141807084,-6.076346071200057
2.5851087595172175,-1.5313563677287627,1.4724414917335877,-0.5869787108528656,-4.033871255721696,-5.865339334929261
2.56979519583993,-1.5716950802859797,1.466571704625059,-0.6456321042021582,-4.218108865579446,-5.640546952689606
2.5540782450370703,-1.6138761689417742,1.4601153835830374,-0.7020375737290543,-4.411525382642331,-5.401224575443864
2.5379394833476527,-1.6579914227681976,1.4530950078457467,-0.7560498194834929,-4.6138661294082866,-5.146595013192128
2.5213595691199706,-1.7041300840622804,1.4455345096509118,-0.8075157696154142,-4.824885041733827,-4.875844808272877
2.5043182682793477,-1.7523789344796186,1.4374593519547576,-0.8562742176981429,-5.044348917420024,-4.588121076347385
2.4867944789345513,-1.8028224236538188,1.4288966097777762,-0.9021554284616168,-5.27204248437731,-4.282528661470467
2.468766254698013,-1.855542848497592,1.41987505549316,-0.9449807150763214,-5.507774399583656,-3.9581276489436363
2.450210826213037,-1.9106205924934285,1.410425248342397,-0.9845619915657577,-5.751384298542387,-3.6139312780878012
2.4311046202881026,-1.9681344354788524,1.4005796284267393,-1.0207013043466358,-6.00275102027106,-3.248904297892545
2.411423275933314,-2.028161945681563,1.390372615383273,-1.0531903473255613,-6.261802133370694,-2.8619618136127354
2.3911416564764982,-2.09077996701527,1.3798407119100173,-1.0818099654616886,-6.528524882140124,-2.451968684726767
2.3702338568063457,-2.156065215836671,1.3690226122554003,-1.1063296523089563,-6.802978654768706,-2.017739558684563
2.348673204647979,-2.224095002384358,1.3579593157323109,-1.126507047895802,-7.08530904373997,-1.5580396671987402
2.326432254624135,-2.294948092821758,1.3466942452533528,-1.1420874445677893,-7.3757635150795515,-1.071586582310537
2.303482773695918,-2.3687057279725536,1.335273370807675,-1.1528033103908948,-7.674708618420078,-0.5570532425743844
2.279795716416192,-2.4454528141567544,1.323745337703766,-1.1583738428166386,-7.982648540173003,-0.013072736651351008
2.255341188274625,-2.5252792995584845,1.3121615992755997,-1.158504570183152,-8.300244607224394,0.561754396703825
2.23008839527904,-2.6082817456307286,1.3005765535737681,-1.1528870262161137,-8.628335059079479,1.1688491818795566
2.2040055778227328,-2.6945650962215235,1.289047683311607,-1.141198534397318,-8.967953979254206,1.8096377461655382
2.1770599268605175,-2.7842446360140656,1.2776356979676338,-1.1231021569356627,-9.320347649066543,2.4855266837014605
2.149217480500377,-2.877448112504731,1.266404676398277,-1.0982468900986482,-9.686985667018957,3.1978661901765175
2.1204429993753298,-2.974317969174921,1.2554222074972905,-1.066268228196883,-10.069562831196569,3.9478949327183237
2.0906998196835804,-3.0750135974868864,1.2447595252153216,-1.0267892788696997,-10.469985817740625,4.736657727578771
2.0599496837087115,-3.1797134556642925,1.2344916324266246,-0.979422701593912,-10.890335830189116,5.5648829041066294
2.0281525491520687,-3.2886168139661835,1.2246974054106856,-0.9237738725528457,-11.332794256190967,6.432800194459718
1.9952663810124067,-3.4019447565280934,1.2154596666851571,-0.8594458706082485,-11.799512423717776,7.339871377352572
1.9612469334471259,-3.5199398807652713,1.2068652079790747,-0.7860471568347228,-12.292398115498294,8.284393796724158
1.9260475346394732,-3.6428638619202545,1.1990047364107275,-0.7032032188674813,-12.812779766640004,9.262920210890792
1.8896188960202707,-3.7709916595866546,1.1919727042220527,-0.6105740167585734,-13.360893444659565,10.269416246368015
1.8519089794244041,-3.9046005940332504,1.185866964054467,-0.5078798542948932,-13.935117445651233,11.294048828380879
1.8128629734840715,-4.043951768489762,1.180788165511518,-0.3949393660110845,-14.530855737609118,12.32146738579685
1.7724234557991738,-4.189260325865853,1.176838771851407,-0.27172469215311595,-15.138949237835913,13.328411824154223
1.7305308525405152,-4.340649818244213,1.174121524929876,-0.13844057391157372,-15.743485480164644,14.280476091670174
1.6871243543580732,-4.4980846730458595,1.1727371191907603,0.0043641870051280285,-16.31891010220182,15.12791434320713
1.6421435076276145,-4.661273774067878,1.1727807610608116,0.15564333043719933,-16.826471072175735,15.800576038270039
1.5955307698869357,-4.829538484789635,1.1743371943651837,0.3136490908198997,-17.210338641035374,16.20252656205617
1.5472353850390392,-5.001641871199989,1.1774736852733827,0.4756743564404614,-17.394363197432824,16.207825592218708
1.4972189663270394,-5.175585503174317,1.1822304288377874,0.6377526123626485,-17.281455759025345,15.6604286003361
1.4454631112952963,-5.348400060764571,1.188607954961414,0.7943568983660094,-16.75888477552234,14.38306606967765
1.3919791106876505,-5.515988908519795,1.196551523945074,0.938187559062786,-15.713673973665582,12.201206254480812
1.3368192216024526,-5.67312564825645,1.2059333995357018,1.0601996216075942,-14.061072358643017,8.986369746385158
1.280087965119888,-5.8137363718428805,1.2165353957517777,1.1500633190714458,-11.783450333363843,4.714812783940907
1.2219506014014592,-5.931570875176519,1.228036028942492,1.1972114469108548,-8.966526163251762,-0.4776847861428549
1.1626348926496939,-6.021236136809036,1.2400081434116006,1.1924345990494263,-5.810294281569184,-6.278189302178165
1.1024225312816036,-6.079339079624728,1.251932489402095,1.1296527060276447,-2.5956246046885636,-12.244415692656638
1.0416291404853564,-6.105295325671614,1.2632290164623714,1.0072085491010783,0.3889211927806342,-17.912140673007105
0.9805761872286403,-6.101406113743808,1.2733011019533822,0.8280871423710072,2.9264944049594317,-22.913880576003187
0.9195621260912021,-6.072141169694214,1.2815819733770923,0.5989483366109754,4.917730341509518,-27.050308888057884
0.85884071439426,-6.0229638662791185,1.2875714567432022,0.3284452477303965,6.377451608949706,-30.290395274056458
0.7986110757314688,-5.959189350189622,1.290855909220506,0.02554129498983193,7.397631038895909,-32.72097893071225
0.7390191822295726,-5.885213039800663,1.2911113221704045,-0.3016684943172906,8.103258799895883,-34.48393815591034
0.680167051831566,-5.804180451801704,1.2880946372272315,-0.646507875876394,8.619154435722745,-35.72766763852001
0.622125247313549,-5.717988907444477,1.2816295584684676,-1.0037845522615942,9.052271947043078,-36.58038977944657
0.5649453582391042,-5.627466187974046,1.2715917129458516,-1.36958845005606,9.486000209412824,-37.14097452644418
0.5086706963593637,-5.532606185879918,1.257895828445291,-1.7409981953205018,9.981147968121327,-37.47994140102417
0.4533446345005645,-5.432794706198705,1.240485846492086,-2.1157976093307433,10.579563887311412,-37.644844794380354
0.39901668743857743,-5.326999067325591,1.2193278703987787,-2.492246057274547,11.308132161479318,-37.666671762120615
0.34574669676532155,-5.213917745710798,1.1944054098260333,-2.8689127748957532,12.182192563499543,-37.565711768394294
0.29360751930821355,-5.092095820075803,1.1657162820770757,-3.244569892579696,13.208156946388717,-37.356392538158374
0.2426865611074555,-4.960014250611916,1.1332705831512788,-3.61813381796128,14.385413654158079,-37.051047795422285
0.19308641860133635,-4.816160114070335,1.097089244971666,-3.9886442959155026,15.70771087851312,-36.66274446362423
0.144924817460633,-4.659083005285204,1.057202802012511,-4.3552717405517445,17.164207369847926,-36.207316525475925
0.09833398740778095,-4.4874409315867245,1.0136500846069936,-4.717344905806503,18.740334613808436,-35.70471921236215
0.0534595780919137,-4.30003758544864,0.9664766355489285,-5.074392097930125,20.418554363778778,-35.17976957775593
0.010459202237427294,-4.095852041810852,0.9157327145696272,-5.426189793707684,22.179026732956324,-34.662288992589346
-0.03049931818068123,-3.874061774481289,0.8614708166325504,-5.772812683633578,24.000124892967293,-34.1866050861465
-0.06923993592549413,-3.6340605255516163,0.8037426897962147,-6.114678734495043,25.858634586787524,-33.79028946946825
-0.10558054118101029,-3.375474179683741,0.7425959024512643,-6.4525816291897256,27.729345472597746,-33.511876529769225
-0.1393352829778477,-3.0981807249577633,0.678070086159367,-6.787700394487418,29.58355355233237,-33.387087479837305
-0.17031709022742533,-2.8023451894344396,0.6101930822144929,-7.121571269285791,31.38571642338259,-33.442716999610376
-0.19834054212176971,-2.4884880252006134,0.538977369521635,-7.455998439281895,33.087098728161855,-33.68676311637345
-0.22322542237377585,-2.1576170379189947,0.46441738512881603,-7.79286607044563,34.614705726174506,-34.09256353061711
-0.2448015927529658,-1.8114699806572496,0.3864887244243597,-8.1337917057518,35.853258822145634,-34.573790292832385
-0.2629162925595383,-1.4529373924357933,0.3051508073668417,-8.479529608680124,36.61798793282879,-34.946879928832686
-0.27744566648389624,-1.0867575131075053,0.22035551128004044,-8.82899840796845,36.61829365663098,-34.8800916973062
-0.2883132416149713,-0.7205745765411955,0.13206552720035591,-9.177799324941512,35.42080070419278,-33.83925175008447
-0.29551898738038324,-0.3663665694992677,0.040287533950940785,-9.516191842442357,32.44144032462709,-31.06836071257295
-0.2991826530753759,-0.0419521662529968,-0.05487438447348278,-9.826875449568087,27.03238554658386,-25.69258211803797
-0.29960217473790585,0.2283716892128418,-0.15314313896916365,-10.083801270748467,18.75316285970264,-17.065059916714063
-0.29731845784577743,0.4159033178098682,-0.2539811516766483,-10.254451869915608,7.830379617806972,-5.3681796305957485
-0.29315942466767875,0.49420711398793793,-0.3565256703758044,-10.308133666221565,-4.475691260212417,7.9025758427333
-0.28821735352779937,0.44945020138581376,-0.45960700703802004,-10.229107907794232,-16.12296608748539,20.26843636134277
-0.2837228515139412,0.28822054051095986,-0.5618980861159624,-10.026423544180805,-25.25687160238519,29.53013682505253
-0.28084064610883164,0.035651824487107964,-0.6621623215577704,-9.73112217593028,-31.09454568733474,34.886880679390714
-0.28048412786396054,-0.27529363238623944,-0.7594735433170732,-9.382253369136372,-33.951789020177195,36.91351158818224
-0.28323706418782296,-0.6148115225880114,-0.8532960770084369,-9.013118253254548,-34.65786038845512,36.76520516899382
-0.28938517941370306,-0.9613901264725626,-0.9434272595409824,-8.64546620156461,-34.02836103566529,35.50212321974934
-0.2989990806784287,-1.3016737368292155,-1.0298819215566284,-8.290444969367115,-32.65376530771208,33.845478103867904
-0.31201581804672085,-1.6282113899063364,-1.1127863712502994,-7.951990188328437,-30.898488159142225,32.203238836751396
-0.3282979319457842,-1.9371962714977586,-1.1923062731335838,-7.6299577999609225,-28.966750696546622,30.771010878607154
-0.3476698946607618,-2.226863778463225,-1.268605851133193,-7.322247691174851,-26.965743424713594,29.620371750183985
-0.36993853244539404,-2.496521212710361,-1.3418283280449415,-7.026043973673011,-24.94912475407226,28.75688911010433
-0.39490374457249766,-2.7460124602510834,-1.4120887677816716,-6.738475082571968,-22.94317521613491,28.153757035006507
-0.4223638691750085,-2.9754442124124325,-1.4794735186073913,-6.456937512221903,-20.96140344740218,27.77007261472595
-0.4521183112991328,-3.185058246886454,-1.5440428937296102,-6.179236786074643,-19.01225655719466,27.560409812071153
-0.48396889376799734,-3.375180812458401,-1.6058352615903566,-5.903632687953932,-17.10291456996022,27.47973047805235
-0.5177207018925813,-3.546209958158003,-1.664871588469896,-5.628835383173408,-15.240919787540324,27.485876695994683
-0.5531828014741613,-3.698619156033406,-1.72115994230163,-5.353976616213461,-13.434636597693716,27.540828267221826
-0.5901689930344953,-3.832965522010343,-1.7746997084637646,-5.078568333541242,-11.693104825773306,27.611324773106098
-0.6284986482545988,-3.949896570268076,-1.825485391799177,-4.802455085810181,-10.0256085477541,27.66914276456711
-0.6679976139572795,-4.050152655745618,-1.8735099426572788,-4.52576365816451,-8.441147475963293,27.69116165269204
-0.7084991405147357,-4.13456413050525,-1.9187675792389238,-4.24885204163759,-6.947920607271517,27.65927661796361
-0.7498447818197882,-4.204043336577965,-1.9612560996552997,-3.9722592754579535,-5.552885074045294,27.560184639375997
-0.7918852151855679,-4.259572187318418,-2.000978692409879,-3.6966574290641936,-4.261423054828813,27.385059356580964
-0.834480937058752,-4.302186417866706,-2.037945266700521,-3.422806835498384,-3.077129099711245,27.129130223378066
-0.8775028012374191,-4.332957708863819,-2.072173335055505,-3.151515533264603,-2.0017158397447545,26.791184836012526
-0.9208323783260572,-4.352974867261266,-2.103688490388151,-2.883603684904478,-1.0350261060804962,26.373016952149236
-0.9643621269986699,-4.363325128322071,-2.1325245272371958,-2.6198735153829857,-0.17513311227976724,25.878844851554376
-1.0079953782818905,-4.365076459444868,-2.1587232623910255,-2.361085066867442,0.5814930196495155,25.314724708017234
-1.051646142876339,-4.359261529248373,-2.1823341130597,-2.10793781978727,1.2397749893489305,24.6879815913559
-1.0952387581688228,-4.346863779354884,-2.2034134912575727,-1.8610580038737108,1.805795813961288,24.006677032240457
-1.1387073959623717,-4.328805821215271,-2.22202407129631,-1.6209912335513061,2.2865630758609092,23.279127380862384
-1.1819954541745243,-4.305940190456662,-2.2382339836318232,-1.3881999597426824,2.6897854693524756,22.5134821356569
-1.225054856079091,-4.279042335763137,-2.25211598322925,-1.1630651383861135,3.0236732930145065,21.717366619522572
-1.2678452794367223,-4.2488056028329915,-2.263746634613111,-0.9458914721908878,3.2967705256241997,20.897589340309224
-1.3103333354650522,-4.215837897576749,-2.27320554933502,-0.7369155787877955,3.5178222346469554,20.059911466737336
-1.3524917144408197,-4.18065967523028,-2.280574705122898,-0.5363164641204221,3.6956773922804076,19.208874341494646
-1.3942983111931224,-4.143702901307476,-2.285937869764102,-0.34422772070547564,3.839223684912899,18.34768100972134
-1.4357353402061972,-4.105310664458347,-2.289380146971157,-0.16075091060826222,3.9573474656715457,17.4781294663334
-1.4767884468507806,-4.065737189801632,-2.2909876560772395,0.014030384055071787,4.058908425004327,16.60059876209823
-1.517445818748797,-4.0251481055515885,-2.290847352236689,0.18003637167605407,4.15271465906543,15.714094203458117
-1.5576972998043128,-3.9836209589609344,-2.2890469885199285,0.33717731371063525,4.247479537787619,14.816364384648814
-1.5975335093939222,-3.941146163583058,-2.285675215382822,0.48534095755712336,4.35173733928347,13.904110057639027
-1.6369449710297528,-3.897628790190223,-2.2808218058072507,0.6243820581335137,4.473690773512545,12.973311530293524
-1.675921258931655,-3.8528918824550975,-2.2745779852259154,0.7541151734364488,4.620961821772694,12.019704958476932
-1.714450177756206,-3.8066822642373705,-2.267036833491551,0.8743122230212181,4.800220370714987,11.039434732050006
-1.7525170003985797,-3.758680060530221,-2.258293711261339,0.9847065703417182,5.016676542590402,10.029893961905271
-1.790103801003882,-3.708513295104317,-2.2484466455579217,1.085005509960771,5.273446398024858,8.99073226901994
-1.827188933954925,-3.6557788311240684,-2.237596590458314,1.1749128326509704,5.570839392990094,7.924956172403252
-1.8637467222661657,-3.6000704371941676,-2.2258474621318043,1.2541623943750029,5.905667702299627,6.83997534370632
-1.8997474266381074,-3.5410137601711713,-2.213305838188054,1.3225621478120662,6.270732121474689,5.7483725524958
-1.935157564239819,-3.4783064389564244,-2.2000802167099334,1.3800458733370242,6.6546760944530305,4.668125749315714
-1.9699406286293835,-3.411759678011894,-2.186279757976563,1.4267271308301814,7.042390448915317,3.6220271474784953
-2.0040582254095023,-3.341335773522741,-2.1720124866682613,1.4629474023049664,7.41607278078629,2.6361597651039905
-2.03747158314473,-3.267175045714878,-2.157383012645212,1.4893089999560063,7.756895757748886,1.7375076765468036
-2.070143333601879,-3.1896060881373893,-2.1424899226456517,1.5066840767214744,8.047053991958084,0.9510398306329105
-2.1020393944832527,-3.1091355482178087,-2.127423081878437,1.5161944750278036,8.271809187238876,0.2968189725979137
-2.1331307499654306,-3.02641745634542,-2.112261137128159,1.5191626647537828,8.4211107828587,-0.21225655090172554
-2.163394924528885,-2.942206348516833,-2.097069510480621,1.5170400992447655,8.490466845910131,-0.5716149021100179
-2.1928169880140533,-2.8573016800577316,-2.0818991094881736,1.5113239502236653,8.480944213961843,-0.7849100654051129
-2.2213900048146304,-2.772492237918113,-2.066785869985937,1.5034748495696142,8.398403914778116,-0.8628190440549617
-2.2491149271938116,-2.688508198770332,-2.051751121490241,1.4948466591290646,8.252240522689315,-0.821130885296878
-2.276000009181515,-2.6059857935434385,-2.0368026548989504,1.4866353502760958,8.053947016083532,-0.6785959795462165
-2.302059867116949,-2.525446323382603,-2.0219363013961895,1.4798493904806336,7.815779570396191,-0.45493427204823095
-2.327314330350775,-2.447288527678641,-2.0071378074913833,1.4753000477601512,7.5496945842829195,-0.16925204855689707
-2.3517872156275614,-2.371791581835812,-1.9923848070137817,1.4736075272745823,7.266622291828565,0.1610401577585519
-2.3755051314459195,-2.2991253589175265,-1.9776487317410358,1.4752179288521678,6.97605958538015,0.5208349920934184
-2.3984963850350947,-2.229364763063725,-1.9628965524525142,1.480426278773102,6.685919351934097,0.8975536215983205
-2.420790032665732,-2.162505569544384,-1.9480922896647832,1.489401814989085,6.402559594036398,1.2811022029416097
-2.442415088361176,-2.09847997360402,-1.9331982715148923,1.5022128370185013,6.130921621537892,1.663664045057721
-2.4633998880972166,-2.037170757388641,-1.9181761431447073,1.5188494774690784,5.874721871498007,2.0394097988880975
-2.483771595671103,-1.9784235386736608,-1.9029876483700165,1.5392435754579594,5.636658941483321,2.404183080799074
-2.50355583105784,-1.9220569492588275,-1.887595212615437,1.5632854062659503,5.418612215457779,2.7551971749624196
-2.5227764005504283,-1.8678708271042497,-1.8719623585527774,1.5908373780155745,5.221819598985238,3.090761981877315
-2.541455108821471,-1.8156526311143972,-1.8560539847726216,1.6217449978343477,5.04702940761915,3.4100491591467064
-2.559611635132615,-1.7651823370382058,-1.8398365347942782,1.6558454894258148,4.894626049947705,3.7128964717948887
-2.5772634585029968,-1.7162360765387288,-1.82327807990002,1.6929744541437637,4.7647316342046535,3.99964855240661
-2.594425819268384,-1.6685887601966822,-1.8063483353585825,1.73297093966783,4.657286727546293,4.271029516088351
-2.611111706870351,-1.6220158929212194,-1.7890186259619043,1.7756812348287134,4.572113760150677,4.528042377023468
-2.627331865799563,-1.5762947553197126,-1.7712618136136171,1.820961658598948,4.50896637247784,4.771890411932651
-2.6430948133527603,-1.5312050915949342,-1.7530521970276276,1.8686805627182745,4.467567596874273,5.0039161490793935
-2.6584068642687098,-1.4865294156261915,-1.7343653914004449,1.9187197242090686,4.4476392891842425,5.225554311526765
-2.6732721584249717,-1.442053022734349,-1.7151781941583542,1.9709752673243361,4.448924761297771,5.438295688894447
-2.6876926886523154,-1.3975637751213714,-1.6954684414851109,2.0253582242132806,4.471206149495293,5.643659492797651
