th1 (rad),w1 (rad/s),th2 (rad),w2 (rad/s),a1 (rad/s^2),a2 (rad/s^2)
3.817267965115422,0.42784771613881284,3.161315074815361,2.540189613817648,5.89008375098785,-4.362783312595396
3.82154644227681,0.48674855364869135,3.1867169709535377,2.496561780691694,6.035564793068895,-4.277099033454307
3.826413927813297,0.5471042015793803,3.2116825887604548,2.453790790357151,6.1707993193358925,-4.182150981417518
3.831884969829091,0.6088121947727393,3.2362204966640262,2.411969280542976,6.2959967993629515,-4.077746981160435
3.8379730917768184,0.6717721627663689,3.260340189469456,2.3711918107313714,6.4114512352678785,-3.9638318855289914
3.844690813404482,0.7358866751190476,3.2840521075767697,2.3315534918760816,6.517528055548956,-3.8404656008263554
3.8520496801556723,0.8010619556745372,3.3073676424955307,2.293148835867818,6.614647689152722,-3.707797185921228
3.860060299712418,0.8672084325660644,3.330299130854209,2.256070864008606,6.70326674413036,-3.5660362813675124
3.8687323840380783,0.934241100007368,3.352859839494295,2.2204105011949307,6.783857773861465,-3.415423202664462
3.878074795038152,1.0020796777459826,3.3750639445062443,2.186256269168286,6.856888600860729,-3.256199013371494
3.888095591815612,1.07064856375459,3.3969265071979273,2.1536942790345712,6.92280209424082,-3.088576794099664
3.898802077453158,1.139876584696998,3.418463449988273,2.1228085110935746,6.981997177431612,-2.912715163915248
3.910200843300128,1.2096965564713142,3.4396915350992088,2.093681359454422,7.034811695302013,-2.728694915510751
3.9222978088648413,1.2800446734243343,3.460628348693753,2.0663944102993144,7.081507611485576,-2.5364994178282143
3.9350982555990845,1.35085974953919,3.481292292796746,2.0410294161210323,7.122258852091701,-2.3359992392286726
3.9486068530944762,1.422082338060107,3.5017025869579563,2.0176694237287456,7.157141971966146,-2.126941265024831
3.962827676475077,1.4936537577797686,3.5218792811952437,1.9964000110784972,7.186129700880428,-1.908942433487671
3.977764214052875,1.5655150547885728,3.5418432813060288,1.9773105867436205,7.209087332022201,-1.6814880968355321
3.993419364600761,1.637605928108795,3.561616387173465,1.9604957057752652,7.22577184301399,-1.4439349259335699
4.009795423881849,1.7098636465389347,3.581221344231218,1.9460563565159295,7.235833586944728,-1.195518213655071
4.026894060347239,1.782221982408382,3.6006819077963774,1.9341011743793788,7.238820352567334,-0.9353633841536236
4.044716280171323,1.8546101859340554,3.620022919540171,1.9247475405378425,7.234183563364479,-0.6625014750025304
4.063262382030663,1.9269520215677,3.63927039494555,1.9181225257878172,7.221286359421519,-0.375888318110243
4.08253190224634,1.9991648851619153,3.658451620203428,1.9143636426067148,7.199413279839025,-0.07442709687317793
4.102523551097959,2.0711590179603054,3.677595256629495,1.913619371637983,7.167781234246989,0.2430061031561742
4.123235141277562,2.1428368303027754,3.696731450345875,1.9160494326695447,7.125551419299758,0.5775342062141696
4.14466350958059,2.214092344495773,3.7158919446725704,1.9218247747316863,7.071841801428934,0.9302490619992642
4.166804433025548,2.2848107625100624,3.7351101924198873,1.931127265351679,7.00573975430501,1.3021799979978619
4.189652540650648,2.3548681600531127,3.754421465073404,1.9441490653316575,6.926314413940306,1.6942617324615412
4.21320122225118,2.4241313041925157,3.7738629557267207,1.961091682656273,6.832628303027172,2.1073024526872373
4.237442535293105,2.492457587222787,3.7934738725532835,1.9821647071831454,6.72374778643203,2.541952922649523
4.262367111165332,2.5596950650871073,3.813295519625115,2.007584236409641,6.5987519589482435,2.998677511469411
4.287964061816203,2.6256825846765897,3.8333713619892116,2.037571011524335,6.456739640324806,3.4777280205256744
4.3142208876629695,2.690249981079838,3.853747072104455,2.072348291729592,6.2968342647917535,3.979121126055001
4.341123387473768,2.7532183237277557,3.874470555021751,2.112139502990142,6.118186603197186,4.502620143850627
4.368655570711046,2.8144001897597275,3.8955919500516525,2.1571657044286483,5.919975442179733,5.047721666054909
4.396799572608643,2.873599944181525,3.917163607095939,2.2076429210891972,5.701406559518383,5.613647424880053
4.425535572050458,2.9306140097767086,3.9392400363068307,2.263779395337998,5.461710567680055,6.199341516366291
4.454841712148225,2.985231115453509,3.9618778302602107,2.3257728105016606,5.200140436160877,6.803472883533015
4.48469402330276,3.037232519815118,3.9851355583652275,2.393807539336991,4.915969734296568,7.424442727277701
4.515066348500911,3.0863922171580835,4.0090736337585975,2.4680519666097678,4.608492847627215,8.060396297430758
4.545930270672492,3.132477145634356,4.033754153424695,2.548655929584075,4.2770286032916704,8.70923832248183
4.577255042128836,3.1752474316672727,4.059240712720536,2.6357483128088934,3.920928888376725,9.368651163834846
4.609007516445509,3.21445672055104,4.0855981958486245,2.729434824447242,3.539593960402264,10.036114618477365
4.641152083651019,3.2498526601550624,4.112892544093097,2.8297959706320155,3.1324962383481387,10.708926121306664
4.67365061025257,3.281177622538544,4.141190503799417,2.936885231845082,2.699214439662316,11.384219882683418
4.706462386477955,3.308169766935167,4.170559356117868,3.050727430671916,2.239480013891224,12.05898319536562
4.739544084147306,3.330564567074079,4.201066630424587,3.171317262625572,1.753237943311018,12.730067706086775
4.772849729818047,3.3480969465071895,4.232779803050843,3.29861793968644,1.2407241667463362,13.39419281195381
4.8063306992831185,3.360504188174653,4.265765982447707,3.432559867805978,0.702562169910331,14.047937447648438
4.839935741164865,3.3675298098737563,4.300091581125767,3.5730392422824626,0.1398817104702562,14.68771531332032
4.8736110392636025,3.368928626978459,4.335821973548592,3.719916395415666,-0.44553675901229184,15.309726999559652
4.907300325533387,3.364473259388336,4.373021137502748,3.8730136654112624,-1.0510876237366025,15.909880459537037
4.94094505812727,3.3539623831509697,4.411751274156861,4.032112470006632,-1.6731302908544254,16.483668867215904
4.97448468195878,3.3372310802424257,4.452072398856927,4.196949158678791,-2.306737669787523,17.025992177052007
5.007856992761204,3.3141637035445504,4.494041890443715,4.367209080449311,-2.945395651639256,17.530905913557085
5.04099862979665,3.284709747028158,4.537713981248208,4.542518139584882,-3.580645879097918,17.991278392632537
5.0738457272669315,3.248903288237179,4.5831391626440565,4.722430923511207,-4.201664999097028,18.398336699432807
5.106334760149303,3.2068866382462087,4.630363471879169,4.906414290505535,-4.794777159321924,18.741084055574262
5.138403626531765,3.1589388666529894,4.679427614784224,5.093825131061278,-5.34290495174445,19.005579568174117
5.169993015198295,3.105509817135545,4.730365866094837,5.283880926743019,-5.824980674396374,19.174090199313568
5.201048113369651,3.0472600103915815,4.783204675362267,5.475621828736155,-6.21536934347661,19.224160439426853
5.231520713473566,2.9851063169568155,4.837960893649629,5.667863433130424,-6.483402991286001,19.1277055137997
5.261371776643134,2.9202722870439555,4.894639527980933,5.85914048826842,-6.593197498732532,18.850326639693616
5.290574499513574,2.85434031205663,4.953230932863618,6.047643754665357,-6.504019009100366,18.351174222455615
5.31911790263414,2.7893001219656264,5.0137073704102715,6.2311554968899125,-6.171574812423423,17.5838336922035
5.347010903853796,2.7275843738413923,5.076018925379171,6.406993833811947,-5.550686560160841,16.498833687161873
5.37428674759221,2.672077508239784,5.14008886371729,6.571982170683566,-4.599786682570134,15.048381956149031
5.4010075226746075,2.6260796414140826,5.205808685424126,6.722465990245056,-3.287447152556995,13.19367126657127
5.427268319088748,2.593205169888513,5.273033345326576,6.854402702910769,-1.6005842779411925,10.91440699813379
5.453200370787633,2.577199327109101,5.341577372355684,6.963546772892107,0.4469392172369957,8.21905159585898
5.478972364058724,2.581668719281471,5.411212840084605,7.045737288850696,2.8076469132571793,5.15294230861577
5.504789051251539,2.609745188414043,5.481670212973112,7.097266711936854,5.398661888459928,1.8006501163649455
5.5308865031356795,2.663731807298642,5.552642880092481,7.115273213100504,8.10717845476364,-1.720336635834644
5.557523821208666,2.7448035918462783,5.6237956122234865,7.098069846742157,10.80346650214032,-5.27485469499588
5.584971857127129,2.8528382568676816,5.694776310690908,7.045321299792199,13.358694615015027,-8.730736491454225
5.613500239695806,2.986425203017832,5.76522952368883,6.958013934877656,15.662599935587256,-11.978672253818651
5.6433644917259835,3.1430512023737047,5.834809663037606,6.83822721233947,17.636002824726095,-14.945186639418818
5.674795003749721,3.3194112306209655,5.903191935161001,6.688775345945282,19.235455123632423,-17.595728554284033
5.707989116055931,3.5117657818572896,5.970079688620453,6.5128180604024415,20.45046522569818,-19.92890007644163
5.743106773874503,3.7162704341142714,6.035207869224478,6.313529059638025,21.295977660529886,-21.965539081745426
5.780269478215646,3.9292302107195702,6.098343159820859,6.093873668820571,21.803295436404888,-23.736784799810422
5.819561780322842,4.147263165083619,6.159281896509064,5.856505820822466,22.011813989366367,-25.27401507303033
5.861034411973678,4.367381304977283,6.217846954717289,5.603765670092163,21.96267979211625,-26.601849679645824
5.904708225023451,4.587008102898446,6.273884611418211,5.337747173295705,21.69447200092046,-27.73412053808705
5.950578306052435,4.803952822907651,6.327262083151168,5.060405967914835,21.240463700220708,-28.672068037580377
5.998617834281512,5.016357459909858,6.3778661428303165,4.773685287539031,20.626876670196218,-29.4038985393627
6.04878140888061,5.22262622661182,6.425602995705707,4.4796463021454045,19.871633505060643,-29.904998733882703
6.1010076711467285,5.421342561662426,6.470399458727161,4.180596314806578,18.98329979504778,-30.13837617328785
6.155221096763353,5.611175559612904,6.512205421875226,3.879212553073699,17.960129608840244,-30.05520396024716
6.211332852359482,5.790776855701306,6.550997547405963,3.5786605134712275,16.789363799019267,-29.59568018293344
6.269240620916495,5.958670493691499,6.586784152540675,3.282703711641893,15.447188962972616,-28.690781857465925
6.3288273258534105,6.113142383321225,6.6196111896570935,2.9957958930672337,13.90003941133755,-27.265886681432793
6.389958749686623,6.252142777434601,6.649569148587766,2.723137026252906,12.108155402617584,-25.247557804883833
6.452480177460969,6.3732243314607775,6.676800518850294,2.4706614482040674,10.032337319015749,-22.57479203665602
6.5162124207755765,6.473547704650935,6.701507133332335,2.2449135278375074,7.644375295986997,-19.215302553017413
6.580947897822086,6.549991457610805,6.72395626861071,2.052760502307333,4.94037329095611,-15.185490949833316
6.646447812398194,6.599395190520366,6.744483873633783,1.900905592809,1.954084413025701,-10.569624542099591
6.712441764303398,6.618936034650623,6.763492929561873,1.795209347388004,-1.234854153444499,-5.530460597958933
6.778631124649904,6.606587493116178,6.7814450230357535,1.7399047414084146,-4.503559334044791,-0.302672741176617
6.844696999581066,6.56155189977573,6.798844070449838,1.7368780139966484,-7.702440848716161,4.835344762388597
6.910312518578823,6.484527491288569,6.816212850589804,1.7852314616205345,-10.682555420966429,9.606460435276738
6.975157793491708,6.377701937078904,6.83406516520601,1.8812960659733018,-13.324517388952751,13.78235911794246
7.038934812862498,6.244456763189377,6.852878125865742,2.0191196571527263,-15.558161562218444,17.216956893233323
7.101379380494391,6.088875147567193,6.87306932243727,2.1912892260850594,-17.36687428535336,19.85592944129594
7.162268131970063,5.915206404713659,6.89498221469812,2.3898485204980187,-18.778062086167726,21.72403676957034
7.2214201960172,5.727425783851982,6.9188806999031005,2.607088888193722,-19.84639763410071,22.90002934244011
7.27869445385572,5.528961807510974,6.944951588785038,2.8360891816181235,-20.636948838922404,23.49003194079657
7.333984071930829,5.322592319121751,6.973312480601219,3.070989501026089,-21.212548307150207,23.60643744765293
7.3872099951220465,5.110466836050248,7.0040223756114806,3.307053875502618,-21.62654141119858,23.35454194918199
7.438314663482549,4.894201421938263,7.037092914366506,3.540599294994438,-21.920010966857884,22.825960721296827
7.487256677701931,4.675001312269684,7.072498907316451,3.7688589022074064,-22.121896064484623,22.09667010853471
7.534006690824628,4.453782351624838,7.110187496338525,3.9898256032927533,-22.250575191375585,21.22761019515764
7.5785445143408765,4.231276599711082,7.150085752371452,4.2021017052443295,-22.315927026567206,20.26636629031865
7.6208572803379875,4.00811732944541,7.192106769423895,4.404765368147516,-22.321307749359747,19.24905034571516
7.660938453632442,3.7849042519518123,7.23615442310537,4.597255871604668,-22.265187238364245,18.201950636048466
7.69878749615196,3.5622523795681698,7.282126981821417,4.779275377965153,-22.142370260804938,17.142796393587492
7.734410019947641,3.3408286769601205,7.329919735601068,4.950703341901027,-21.944829096382872,16.081638726529583
7.767818306717243,3.1213803859962916,7.379426769020078,5.111519729166323,-21.66222782334364,15.02143117762495
7.799032110577206,2.9047581077628553,7.430541966311742,5.261734040942573,-21.282252552467728,13.958442170674028
7.8280796916548345,2.691935582238178,7.483159306721167,5.4013184626493125,-20.79089236525958,12.88267256521382
7.854999047477216,2.484026658585582,7.53717249134766,5.530145188301451,-20.172849092761552,11.778496393584554
7.879839314063072,2.2822981676579666,7.592473943230675,5.647930152237296,-19.412286730194726,10.62578916022175
7.902662295739652,2.0881753003560193,7.648953244753048,5.754188043839513,-18.494146881886667,9.401835591641259
7.923544048743212,1.9032338315371526,7.706495125191442,5.848206399755926,-17.406223418260943,8.084275421258049
7.942576387058583,1.7291715973545432,7.764977189189001,5.929049153968507,-16.142062893098263,6.655190789773235
7.959868103032129,1.5677509684235607,7.824267680728687,5.99560106186624,-14.70449653991788,5.106104393093568
7.975545612716364,1.4207060030243819,7.884223691347349,6.046662105797176,-13.109216945843578,3.4431411884711522
7.989752672746608,1.2896138335659462,7.944690312405321,6.081093517681888,-11.38738644578392,1.6910345975338053
8.002648811082267,1.175739969108107,8.00550124758214,6.098003863657226,-9.586028588355964,-0.10567342293989661
8.014406210773348,1.0798796832245474,8.066481286218712,6.096947129427827,-7.7651912613900365,-1.885601095635592
8.025205007605594,1.002227770610647,8.12745075751299,6.0780911184714705,-5.991724976721848,-3.577919830889304
8.0352272853117,0.9423105208434286,8.188231668697705,6.042311920162578,-4.3307721706518105,-5.1127868516366135
8.044650390520134,0.8990027991369105,8.248654787899332,5.991184051646211,-2.83711011883418,-6.432057293178948
8.053640418511504,0.8706316979485687,8.308566628415793,5.926863478714422,-1.5486907701365173,-7.497252380954531
8.06234673549099,0.8551447902472035,8.367835263202938,5.851890954904877,-0.4838958828739975,-8.292841760649988
8.070898183393462,0.8503058314184635,8.426354172751987,5.7689625372983775,0.3573633247026225,-8.824707112095757
8.079401241707647,0.8538794646654897,8.48404379812497,5.6807154661774195,0.9897721454952877,-9.115195469215674
8.087940036354302,0.8637771861204425,8.540850952786744,5.589563511485263,1.4375405416721414,-9.196793715426645
8.096577808215507,0.878152591537164,8.596746587901597,5.4975955743309965,1.7295196830870605,-9.106173871917576
8.10535933413088,0.8954477883680345,8.651722543644906,5.406533835611821,1.8953370449616296,-8.879619197035165
8.11431381201456,0.9144011588176508,8.705787882001024,5.317737643641469,1.9628140485483372,-8.550109724146337
8.123457823602736,0.9340292993031342,8.758965258437438,5.232236546400006,1.9565483189142177,-8.14586820217792
8.132798116595767,0.9535947824922764,8.811287623901439,5.1507778643782265,1.8973720754731762,-7.689968191136904
8.14233406442069,0.9725685032470082,8.86279540254522,5.073878182466857,1.802378074612708,-7.200598650177686
8.152059749453159,0.9905922839931353,8.913534184369889,5.00187219596508,1.6852595518051445,-6.691662892241867
8.16196567229309,1.0074448795111868,8.96355290632954,4.934955567042661,1.5567862478459746,-6.173493808574702
8.172040121088202,1.0230127419896464,9.012902461999966,4.873220628956914,1.4253064580674557,-5.65355671327427
8.182270248508098,1.037265806570321,9.061634668289535,4.816685061824171,1.2972154223201615,-5.1370753588169835
8.192642906573802,1.0502379607935226,9.109801518907776,4.765314308236001,1.1773634223396485,-4.627557276575173
8.203145286181737,1.062011595016919,9.157454661990137,4.719038735470249,1.069396497307024,-4.127217468228011
8.213765402131907,1.0727055599899893,9.204645049344839,4.677766560787969,0.9760330186045502,-3.6373106401985735
8.224492457731806,1.082465890176035,9.251422714952719,4.641393454385983,0.899283981442745,-3.158386347479273
8.235317116633567,1.0914587299904623,9.29783664949658,4.6098095909111905,0.8406262354875833,-2.690481804146653
8.246231703933471,1.099864992345338,9.343934745405692,4.582904772869724,0.8011375623943086,-2.2332657117863075
8.257230353856924,1.1078763679692811,9.389763793134389,4.560572115751861,0.7816014486229681,-1.7861443879635246
8.268309117536617,1.1156923824555107,9.435369514291907,4.542710671872226,0.7825881120181309,-1.3483393383415996
8.279466041361172,1.123518263575692,9.48079662101063,4.5292272784888095,0.804517080440471,-0.9189434829154839
8.290701223996928,1.1315634343800967,9.526088893795517,4.520037843659654,0.8477055041181909,-0.4969616183454561
8.302016858340728,1.1400404894212786,9.571289272232114,4.5150682274762,0.9124054454876641,-0.08133938445835212
8.31341726323494,1.1491645438761553,9.616439954506877,4.514254833631616,0.99883262716914,0.32901602674422575
8.324908908673702,1.1591528701478466,9.661582502843194,4.517544993899059,1.1071885094874516,0.7352209711659472
8.33650043737518,1.1702247552427212,9.706757952782185,4.524897203610719,1.2376770874646723,1.1384044088793674
8.348202684927609,1.182601526117368,9.752006924818293,4.536281247699512,1.3905174178169024,1.539699505330646
8.360028700188781,1.196506700295537,9.797369737295288,4.551678242752819,1.5659525864272943,1.940236687999979
8.371993767191737,1.2121662261598098,9.842886519722816,4.571080609632818,1.7642555869493632,2.3411372981319856
8.384115429453336,1.2298087820293035,9.888597325819145,4.594491982614138,1.9857323861271081,2.743507134937734
8.39641351727363,1.2496661058905747,9.934542245645286,4.621927053963516,2.230722288825298,3.148429292641333
8.408910178332535,1.2719733287788277,9.980761516184922,4.653411346889929,2.499595576121879,3.5569557516102654
8.421629911620323,1.2969692845400465,10.027295629653821,4.688980904406032,2.79274826594248,3.9700972134722954
8.434599604465724,1.3248967671994714,10.074185438697882,4.728681876540755,3.1105937324637347,4.388810674545172
8.447848572137719,1.3560027045241088,10.121472257463289,4.772569983286206,3.4535508145826004,4.81398421887709
8.46140859918296,1.3905382126699348,10.16919795729615,4.820709825474977,3.822027943668263,5.246418488043865
8.47531398130966,1.4287584921066174,10.2174050555509,4.873174010355416,4.216402727038231,5.686804256110779
8.489601566230725,1.4709225193769997,10.266136795654454,4.930042052916524,4.636996338783066,6.135695512272844
8.504310791424494,1.5172924827648304,10.31543721618362,4.991399008039252,5.084041998960264,6.5934774396573035
8.519483716252143,1.568132902754433,10.365351206264013,5.057333782435825,5.5576467742037545,7.060328687951177
8.535165045279687,1.6237093704964707,10.415924544088371,5.127937069315337,6.0577459196965835,7.5361773843217845
8.55140213898465,1.6842868296934366,10.467203914781525,5.203298843158555,6.584049021048057,8.020650429730265
8.568245007281584,1.7501273199039171,10.51923690321311,5.283505347455858,7.135977307000562,8.51301580876115
