th1 (rad),w1 (rad/s),th2 (rad),w2 (rad/s),a1 (rad/s^2),a2 (rad/s^2)
5.744938605846582,1.7633470423790534,4.717564975116124,-1.3567986618839762,1.1707568823959158,11.855972928445793
5.762572076270373,1.7750546112030126,4.703996988497284,-1.2382389325995182,1.286404972322343,11.915605507088234
5.7803226223824025,1.787918660926236,4.691614599171289,-1.1190828775286359,1.389641989695861,11.985931251665216
5.7982018089916645,1.8018150808231947,4.680423770396002,-0.9992235650119837,1.479156829626965,12.066654192172773
5.816219959799897,1.8166066491194643,4.670431534745883,-0.878557023090256,1.553780672281411,12.157179397076082
5.834386026291091,1.8321444558422784,4.66164596451498,-0.7569852291194952,1.6124410896961843,12.256669232528473
5.852707470849515,1.8482688667392402,4.654076112223785,-0.6344185367942105,1.6541278843000853,12.364086773623674
5.871190159516907,1.864810145582241,4.647731926855843,-0.5107776690579737,1.6778684801550325,12.478229704588673
5.889838260972729,1.8815888303837913,4.642624150165263,-0.385995372012087,1.6827111387665374,12.59775742740322
5.9086541492765665,1.8984159417714568,4.638764196445142,-0.2600177977380548,1.6677146455913738,12.721213580257716
5.927638308694281,1.9150930882273705,4.6361640184677615,-0.1328056619354776,1.6319434124424146,12.847045741362008
5.946789239576554,1.9314125223517946,4.634835961848407,-0.004335204521857511,1.5744671716001575,12.973623746294784
5.966103364800072,1.947157194067796,4.634792609803188,0.12540103294109034,1.4943646081833748,13.099257763033933
5.9855749367407505,1.9621008401496298,4.636046620132599,0.2563936105714297,1.3907303968688711,13.222217033432294
6.005195945142247,1.9760081441183186,4.638610556238313,0.3886157809057526,1.262685185332324,13.340749990411759
6.02495602658343,1.9886349959716418,4.642496714047371,0.5220232808098701,1.109388106818106,13.453106285970788
6.044842376543147,1.999728877039823,4.6477169468554695,0.656554343669578,0.9300514141576284,13.557561107944617
6.064839665313545,2.0090293911813992,4.654282490292165,0.7921299547490241,0.7239568127545957,13.652442017207049
6.0849299592253585,2.0162689593089453,4.662203789839656,0.9286543749210947,0.4904730354603316,13.73615839755812
6.105092648818448,2.0211736896635486,4.671490333588867,1.066015958896676,0.22907415250923702,13.8072334756444
6.125304385715084,2.023464431188641,4.682150493177834,1.20408829365312,-0.06064195068955691,13.864338737324934
6.1455390300269706,2.022858011681745,4.6941913761143645,1.3427316810263694,-0.3789355615246774,13.906330440859065
6.165767610143788,2.0190686560664983,4.707618692924628,1.4817949854349601,-0.7259082952796525,13.932287808451832
6.185958296704452,2.011809573113702,4.722436642778978,1.6211178635194785,-1.1014881828699428,13.941552369561283
6.206076392435589,2.0007946912850025,4.7386478214141725,1.7605333872150912,-1.5054175122016709,13.93376783651277
6.226084339348439,1.9857405161629857,4.756253155286323,1.899871065580219,-1.9372442856660066,13.908919820801534
6.245941744510069,1.9663680733063256,4.775251865942126,2.0389602637882343,-2.396318178595103,13.867374653046504
6.265605425243132,1.9424048915203744,4.795641468580008,2.177634010318699,-2.8817918814342853,13.809916557260179
6.2850294741583355,1.9135869727060315,4.817417808683196,2.315733175891301,-3.3926286771056615,13.737782457217925
6.304165343885396,1.879660685934975,4.840575140442109,2.45311100046348,-3.9276170403162927,13.652693764924859
6.322961950744745,1.840384515531812,4.865106250446743,2.5896379381127286,-4.485392944010913,13.556884622834573
6.341365795900064,1.7955305860917028,4.89100262982787,2.7252067843410743,-5.064470417425981,13.45312624463137
6.3593211017609805,1.744885881917443,4.918254697671281,2.859738046787388,-5.663280718939364,13.34474722257473
6.376769960580155,1.6882530747280495,4.9468520781391545,2.993185519013135,-6.28022026445937,13.235649935973678
6.393652491327436,1.6254508720834557,4.976783933329286,3.125542018372872,-6.913707187441617,13.130323491275204
6.40990700004827,1.5563138002090395,5.0080393535130145,3.256845253285624,-7.562246096359789,13.033853925010128
6.42547013805036,1.4806913392454417,5.0406078060458706,3.387183792535725,-8.224500230150216,12.951932666963007
6.4402770514428145,1.3984463369439395,5.074479643971228,3.516703119205355,-8.899369770223258,12.890864431044431
6.454261514812254,1.309452639241707,5.109646675163281,3.645611763515799,-9.586074505489284,12.857575681129811
6.467356041204671,1.213591894186814,5.146102792798439,3.7741875203270974,-10.284238283142262,12.859624463224783
6.4794919601465395,1.1107495113553914,5.1838446680017105,3.902783764959345,-10.993971568676113,12.905211477258792
6.490599455260093,1.0008097956686302,5.222872505651304,4.031835879731933,-11.715946737517148,13.003190423922343
6.5006075532167795,0.8836503282934587,5.263190864448623,4.161867783971156,-12.451458015981695,13.16307233203287
6.5094440564997145,0.7591357481336417,5.304809542288334,4.293498507291485,-13.202453602379407,13.395012825360345
6.517035413981051,0.6271112121098477,5.3477445273612485,4.427448635545089,-13.97152032213926,13.70976162205557
6.523306526102149,0.487396008888455,5.392019013716699,4.564546251765644,-14.761789409233051,14.11853753024659
6.528180486191034,0.3397781147961245,5.437664476234356,4.7057316270681095,-15.576712779026504,14.632765851379544
6.531578267338995,0.18401098700585947,5.484721792505037,4.852059285581905,-16.41962790587294,15.26357209586244
6.5334183772090535,0.019814707947130056,5.5332423853608566,5.00469500654053,-17.292979107685778,16.02085636332094
6.533616524288525,-0.1531150831297277,5.583289335426262,5.164903570173739,-18.196983316777136,16.911661875910355
6.532085373457227,-0.33508491629749904,5.634938371127999,5.3340201889328425,-19.12740543919899,17.93737881708281
6.5287345242942525,-0.5263589706894889,5.688278573017327,5.513393977103671,-20.071927608968192,19.0890686024104
6.523470934587357,-0.7270782467791708,5.743412512788364,5.704284663127774,-21.00435463694115,20.3398453821017
6.516200152119565,-0.9371217931485822,5.800455359419642,5.907683116948792,-21.87563864805709,21.6328648353066
6.506828934188079,-1.155878179629153,5.85953219058913,6.124011765301858,-22.60061311721384,22.86328872948406
6.495270152391788,-1.3818843108012915,5.920772308242149,6.352644652596698,-23.03992675438253,23.853332021370743
6.481451309283774,-1.6122835783451168,5.9842987547681155,6.591177972810406,-22.979176854095435,24.322830617754065
6.465328473500323,-1.842075346886071,6.05021053449622,6.834406278987946,-22.11383832566496,23.86672459850647
6.446907720031462,-2.0632137301427207,6.118554597286099,7.073073524973011,-20.061429807232233,21.96851388314688
6.426275582730035,-2.263828028215043,6.189285332535829,7.29275866380448,-16.438208356048797,18.100830244991684
6.403637302447885,-2.428210111775531,6.262212919173874,7.473766966254397,-11.035421736752284,11.961851114162418
6.37935520133013,-2.5385643291430537,6.336950588836418,7.593385477396021,-4.065783869715277,3.8086695562772226
6.353969558038699,-2.5792221678402063,6.412884443610378,7.6314721729587935,3.6864973800821743,-5.3392902694200295
6.328177336360297,-2.5423571940393845,6.489199165339966,7.578079270264594,11.043358604557357,-13.941472078170161
6.302753764419903,-2.431923607993811,6.564979958042612,7.438664549482892,16.93541484742742,-20.614825189235205
6.278434528339965,-2.262569459519537,6.63936660353744,7.23251629759054,20.853655241236424,-24.735086409640694
6.25580883374477,-2.054032907107173,6.711691766513345,6.985165433494133,22.902528571503392,-26.493038778101983
6.235268504673698,-1.825007621392139,6.781543420848287,6.720235045713114,23.530888405352837,-26.520879627933272
6.2170184284597765,-1.5896987373386104,6.848745771305418,6.455026249433781,23.24003302645297,-25.498998275294092
6.20112144108639,-1.3572984070740808,6.913296033799756,6.20003626668084,22.430375365690963,-23.956884184490523
6.18754845701565,-1.132994653417171,6.975296396466564,5.960467424835935,21.370369119526575,-22.239416995080592
6.176218510481478,-0.9192909622219053,7.034901070714923,5.738073254885129,20.22069349899022,-20.54499084444172
6.167025600859259,-0.7170840272320032,7.092281803263774,5.532623346440712,19.069033862174827,-18.975146175756983
6.159854760586939,-0.5263936886102549,7.147608036728181,5.342871884683142,17.958410414504055,-17.573679796393748
6.154590823700837,-0.34680958446521437,7.2010367555750125,5.167135086719204,16.906281370096444,-16.352382425193074
6.151122727856185,-0.17774677076424994,7.2527081064422045,5.003611262467274,15.916296460869077,-15.306487949142852
6.149345260148543,-0.018583806155559157,7.302744219066877,4.850546382975845,14.98516026773646,-14.423435007667205
6.149159422086988,0.13126779652180545,7.351249682896635,4.706312032899174,14.106500501258491,-13.687620857281145
6.150472100052205,0.2723328015343904,7.398312803225627,4.569435824326362,13.272980506871255,-13.082862543128826
6.15319542806755,0.4050626066031029,7.444007161468891,4.438607198895074,12.477408506823155,-12.593587909428908
6.157246054133581,0.5298366916713344,7.488393233457842,4.312671319800785,11.713283483546341,-12.20534333458164
6.162544421050295,0.6469695265067978,7.53151994665585,4.190617886454969,10.975029520427848,-11.90494725406223
6.1690141163153625,0.7567198217110763,7.5734261255204,4.071568413914346,10.258060903404923,-11.680470669687848
6.1765813145324735,0.8593004307451255,7.614141809659543,3.954763707217468,9.558757635373128,-11.521142488505168
6.185174318839925,0.9548880070988568,7.653689446731717,3.8395522823324164,8.874395545292703,-11.417231038156
6.194723198910913,1.0436319625517838,7.692084969555042,3.7253799719508565,8.203055252077192,-11.359927389433166
6.205159518536431,1.1256625150725557,7.72933876927455,3.611780698056525,7.543523150701654,-11.341242039384673
6.216416143687156,1.2010977465795722,7.765456576255115,3.4983682776626783,6.89519148342414,-11.353918929960535
6.228427121152952,1.2700496614138137,7.800440259031742,3.384829088363073,6.257961254785306,-11.391366822602098
6.24112761776709,1.3326292739616667,7.834288549915373,3.2709154201370523,5.632149999849953,-11.447606112726646
6.254453910506706,1.3889507739601663,7.866997704116743,3.1564393590097857,5.018405512633024,-11.517228352717105
6.268343418246308,1.4391348290864965,7.898562097706841,3.0412670754826148,4.417626184438564,-11.595365555268208
6.282734766537173,1.4833110909308822,7.928974768461667,2.9253134199299327,3.830888365078865,-11.67766648756973
6.297567877446482,1.5216199745816708,7.958227902660966,2.8085367550542353,3.259381020873723,-11.760277479451519
6.3127840771922985,1.554213784790408,7.986313270211508,2.69093398025972,2.704347858406328,-11.839825661681555
6.328326215040202,1.5812572633744713,8.013222610014106,2.5725357236429045,2.167036982824556,-11.913402968520748
6.344138787673947,1.602927633202717,8.038947967250534,2.453401693957697,1.648658053859978,-11.978549647610434
6.360168064005974,1.6194142137413168,8.063481984190112,2.3336161974815925,1.1503467917816899,-12.033236399533221
6.376362206143387,1.6309176816591338,8.086818146164928,2.21328383348626,0.6731365740865811,-12.075844606483999
6.392671382959978,1.6376490473999996,8.10895098449979,2.09252538742142,0.21793675822829534,-12.10514439765422
6.409047873433979,1.6398284149822826,8.129876238374004,1.9714739434448778,-0.21448272791414053,-12.120270535574011
6.425446157583801,1.6376835877031413,8.149590977808453,1.8502712380891377,-0.6235010632252476,-12.120696293300394
6.441822993460833,1.6314485770708889,8.168093690189345,1.7290642751561338,-1.0086510713352088,-12.10620562982636
6.458137479231541,1.6213620663575368,8.185384332940906,1.6080022188578702,-1.3696192497900381,-12.07686406486915
6.474351099895117,1.6076658738596363,8.201464355129485,1.4872335782091788,-1.7062419379661906,-12.032988709731583
6.490427758633713,1.5906034544799745,8.216336690911577,1.366903691111863,-2.0184982698801073,-11.975117934148745
6.506333793178513,1.5704184717811736,8.230005727822695,1.2471525117703757,-2.306500540381245,-11.903981145916045
6.522037977896325,1.5473534663773612,8.242477252940398,1.1281127003112152,-2.5704825820428017,-11.820469136361488
6.537511512560099,1.5216486405569332,8.25375837994351,1.0099080089476002,-2.8107867082728015,-11.725605405618213
6.552727998965668,1.4935407734742052,8.263857460032987,0.8926519548914181,-3.0278497285930754,-11.620518831822176
6.567663406700411,1.4632622761882745,8.272783979581902,0.7764467665731963,-3.222188487302635,-11.506417991814232
6.582296029462293,1.431040391315248,8.280548447247634,0.661382586655054,-3.394385319196465,-11.384567381043118
6.596606433375446,1.3970965381232834,8.287162273114184,0.5475369128446228,-3.5450737576659903,-11.2562657199291
6.610577398756679,1.3616458005466234,8.29263764224263,0.43497425564533176,-3.6749247730484886,-11.122826475197598
6.624193856762146,1.3248965528161385,8.296987384799083,0.32374599089335576,-3.7846337638873377,-10.985560669386322
6.637442822290307,1.2870502151772651,8.300224844708017,0.21389038419949252,-3.874908471887361,-10.84576200119423
6.65031332444208,1.2483011304583915,8.302363748550013,0.10543276418755022,-3.946457943608414,-10.704694254521113
6.6627963357466635,1.2088365510223074,8.303418076191889,-0.0016141783576609087,-3.9999826189068197,-10.563580935546717
6.674884701256887,1.1688367248332392,8.303401934408312,-0.10724998771312809,-4.036165588168666,-10.42359704531951
6.686573068505219,1.1284750689515526,8.302329434531181,-0.2114859581663232,-4.055665027658663,-10.285862870100804
6.697857819194735,1.087918418674966,8.300214574949518,-0.31434458686733124,-4.059107794852265,-10.151439652939546
6.708737003381485,1.0473273407264434,8.297071129080845,-0.4158589833967267,-4.047084143316183,-10.021326997236645
6.719210276788749,1.0068564992932816,8.292912539246878,-0.5160722533690931,-4.0201434993383325,-9.89646184582901
6.729278841781682,0.9666550642998982,8.287751816713186,-0.6150368718273832,-3.978791229795167,-9.777718876684476
6.7389453924246805,0.9268671520019466,8.281601447994912,-0.7128140605942279,-3.9234863223497363,-9.665912157847812
6.7482140639447,0.8876322887784492,8.27447330738897,-0.809473182172706,-3.8546398946540985,-9.561797908937576
6.757090386832485,0.8490858898319082,8.266378575567243,-0.9050911612620818,-3.772614448461771,-9.46607822332819
6.765581245730804,0.8113597453472905,8.257327663954623,-0.9997519434953637,-3.677723787171346,-9.379405613176313
6.773694843184277,0.774582507475577,8.247330144519669,-1.0935459996271268,-3.5702335211453295,-9.302388247630883
6.781440668259033,0.7388801722641237,8.236394684523397,-1.1865698821034356,-3.450362094133465,-9.235595761798715
6.788829469981674,0.7043765513227891,8.224528985702362,-1.2789258397214227,-3.3182822764113045,-9.17956551911683
6.795873235494902,0.6711937285586761,8.211739727305147,-1.370721494912591,-3.174123086188576,-9.134809211344397
6.802585172780489,0.6394524976967904,8.198032512356022,-1.462069587026035,-3.0179721211170527,-9.101819676823599
6.808979697757457,0.6092727764856198,8.183411816485762,-1.553087783794271,-2.8498783073936065,-9.08107780700105
6.815072425522313,0.5807739934116838,8.16788093864782,-1.6438985618642814,-2.669855106578901,-9.07305939095523
6.82088016545643,0.5540754423458948,8.151441953029176,-1.7346291557738338,-2.4778842620683355,-9.07824171459763
6.826420919879888,0.5292965997252115,8.134095661471438,-1.8254115729198102,-2.2739202212665406,-9.097109681012528
6.83171388587714,0.506557397512546,8.11584154574224,-1.9163826697299355,-2.0578954401935343,-9.130161145322788
6.8367794598522655,0.48597844311061067,8.09667771904494,-2.007684281183163,-1.8297268702870078,-9.17791105376582
6.841639244283372,0.4676811744077406,8.076600876233108,-2.0994633917208216,-1.5893240503913004,-9.240893831861046
6.846316056027449,0.4517879339038276,8.0556062423159,-2.1918723300394323,-1.3365993908587612,-9.319663266497898
6.850833935366487,0.43842193999524,8.033687519015505,-2.285068962704411,-1.07148145538162,-9.414788852411517
6.8552181547664395,0.4277071254414238,8.010836829388461,-2.3792168512285263,-0.7939323382499386,-9.526847199312442
6.8594952260208535,0.41976780205892444,7.987044660876176,-2.474485323221651,-0.5039706246510949,-9.656406587997282
6.863692904041443,0.4147280958124135,7.9622998076439595,-2.5710493891016237,-0.2017019410437534,-9.804002077664032
6.867840184999567,0.41271107640197596,7.936589313752943,-2.6690894098782643,0.11264020833891018,-9.970097645288941
6.871967295763587,0.41383747848536506,7.90989841965416,-2.768790386331154,0.4386397150178216,-10.155030610053926
6.876105670548441,0.41822387563554325,7.882210515790849,-2.870340692431693,0.7756244624082806,-10.358931976720397
6.880287909304796,0.42598012025962606,7.853507108866532,-2.973930012198897,1.122567937979138,-10.581614228938028
6.884547710507392,0.4372057996394174,7.8237678087445435,-3.0797461544882774,1.4779576506456387,-10.822415432303027
6.888919768503786,0.4519853761458738,7.7929703471996605,-3.1879703088113076,1.8396198427289312,-11.079985227408269
6.893439622265245,0.4703815745731631,7.7610906441115475,-3.29877016108539,2.2044873745240445,-11.351994482790078
6.898143438010977,0.49242644831840354,7.728102942500693,-3.412290105913291,2.568295020606034,-11.634746370994385
6.903067702494161,0.5181093985244639,7.69398004144156,-3.528637569623235,2.9251844182669795,-11.92266326770166
6.9082487964794055,0.5473612427071337,7.658693665745328,-3.6478642023002514,3.267200909570989,-12.20762291833177
6.913722408906477,0.5800332518028436,7.622215023722325,-3.769940431483569,3.5836690493300747,-12.478122116324462
6.919522741424505,0.6158699422961443,7.584515619407489,-3.8947216526468136,3.8604469789261633,-12.718262552796837
6.925681440847466,0.654474412085406,7.545568402881021,-4.021904278174782,4.079089148468218,-12.906590975435039
6.93222618496832,0.6952653035700882,7.505349360099274,-4.150970187929133,4.216001971777452,-13.014898019704393
6.939178838004021,0.7374253232878627,7.463839658219983,-4.281119168126176,4.241769839551595,-13.007203668614375
6.9465530912369,0.7798430216833786,7.421028466538721,-4.4111912048123205,4.12096849773763,-12.839345337520736
6.9543515214537335,0.8210527066607549,7.376916554490598,-4.539584658187528,3.8129626925512854,-12.45982967072414
6.962562048520341,0.8591823335862677,7.331520707908723,-4.66418295489477,3.274359385152914,-11.812850680550353
6.971153871856203,0.8919259274377969,7.284878878359775,-4.7823114617002735,2.4638386642939927,-10.844455726137555
6.980073131130581,0.9165643140807368,7.237055763742772,-4.890756018961649,1.349802293702644,-9.512472413117855
6.989238774271389,0.9300623370177632,7.188148203553156,-4.985880743092827,-0.07958245646473579,-7.799656092603576
6.998539397641566,0.9292665124531159,7.138289396122228,-5.063877304018863,-1.805886570420193,-5.727470375494813
7.007832062766097,0.911207646748914,7.087650623082039,-5.121152007773811,-3.773148229661381,-3.365575166262067
7.016944139233586,0.8734761644523001,7.036439103004301,-5.154807759436432,-5.888273616085627,-0.8310741798226727
7.025678900878109,0.8145934282914439,6.984891025409937,-5.163118501234659,-8.031940015854527,1.7262082931519545
7.033824835161024,0.7342740281328985,6.93325984039759,-5.145856418303139,-10.078577547113463,4.150377424669804
7.041167575442353,0.6334882526617639,6.881801276214559,-5.104352644056441,-11.91920357298531,6.309551960184472
7.047502457968971,0.5142962169319107,6.830757749773995,-5.041257124454596,-13.478969903897655,8.11844123985095
7.05264542013829,0.3795065178929342,6.7803451785294495,-4.960072712056086,-14.723956928750104,9.54625965610819
7.05644048531722,0.23226694860543318,6.7307444514088886,-4.8646101154950045,-15.657088158161065,10.610118703546942
7.058763154803274,0.07569606702382253,6.682098350253939,-4.758508928459535,-16.307313898715403,11.359736485728238
7.0595201154735125,-0.0873770719633315,6.634513260969343,-4.644911563602252,-16.71727846694239,11.860568466867967
