th1 (rad),w1 (rad/s),th2 (rad),w2 (rad/s)
5.857730463594443,0.8829455710737255,4.337207657906495,0.6920407173190406
5.86655991930518,0.9185602851369142,4.344128065079685,0.7892203103616221
5.875745522156549,0.9527340184765334,4.352020268183302,0.8874253956339572
5.885272862341314,0.9852994411062266,4.360894522139642,0.98666519278155
5.895125856752377,1.0160851246848888,4.370761174067457,1.0869425927973002
5.905286707999226,1.04491558351747,4.381630599995431,1.1882542261934688
5.9157358638344,1.0716113775470884,4.3935131422573654,1.2905906428538307
5.926451977609871,1.095989280667169,4.406419048685904,1.3939366181433508
5.937411870416543,1.117862516483835,4.420358414867337,1.4982716001777803
5.9485904955813815,1.137041062148496,4.435341130869115,1.6035703133037789
5.959960906202866,1.1533320190350105,4.4513768340021524,1.7098035327878969
5.971494226393216,1.16654004683845,4.468474869330032,1.8169390454426917
5.9831596268616005,1.1764678551164727,4.486644259784459,1.9249428104218127
5.994924305412765,1.1829167433852177,4.505893687888677,2.0337803336956495
6.006753472846618,1.185687177640964,4.526231491225634,2.143418268791136
6.018610344623028,1.184579387647435,4.547665673913545,2.2538262552745634
6.030456138499502,1.1793939655710577,4.5702039364662905,2.3649790052211173
6.042250078155212,1.169932442655503,4.5938537265185015,2.4768586466092493
6.053949402581767,1.1559978167295577,4.618622312984594,2.5894573312701596
6.065509380749063,1.1373949996082109,4.644516886297295,2.7027801137790854
6.0768833307451455,1.113931150099068,4.6715446874350866,2.8168481065423308
6.088022642246136,1.0854158556596447,4.69971316850051,2.93170191530943
6.098876800802732,1.051661124159957,4.729030187653604,3.0474053583249723
6.109393412044332,1.0124811472274184,4.759504241236853,3.1640494710627083
6.119518223516606,0.9676917990414364,4.791144735947481,3.2817567964089966
6.1291951415070205,0.9171098402880407,4.82396230391157,3.4006859562853498
6.138366239909901,0.8605518078789611,4.857969163474424,3.5210364933066574
6.146971757988691,0.7978325893875641,4.89317952840749,3.6430539573230796
6.154950083882567,0.7287637106207691,4.929610067980721,3.7670351869886236
6.162237720988775,0.6531514109772686,4.967280419850607,3.89333369348424
6.168769235098547,0.5707946529876861,5.00621375678545,4.022364980543866
6.174477181628424,0.481483323288709,5.046437406590889,4.154611513622945
6.179292014861311,0.3849970533767378,5.087983521727119,4.2906268526000835
6.183141985395078,0.281105352535427,5.13088979025312,4.431038141848222
6.185953038920433,0.16957015264549602,5.175200171671602,4.576545639200739
6.187648740446888,0.05015249152530796,5.220965628063609,4.727917154714454
6.188150265362141,-0.0773739786664186,5.268244799610753,4.885974001591493
6.187376525575477,-0.21319851698367678,5.317104539626667,5.051563104762232
6.18524454040564,-0.3574315491157493,5.367620170674289,5.225506956738547
6.181670224914483,-0.51003623526892,5.419875240241675,5.408518792351151
6.176569862561794,-0.6707197095009476,5.473960428165186,5.601064398392878
6.169862665466785,-0.8387652537852395,5.529971072149115,5.803144615045397
6.161475012928933,-1.012782109412427,5.588002518299569,6.013965613462512
6.151347191834809,-1.1903498013900426,5.648142174434194,6.231463026142067
6.139443693820908,-1.3675485611671736,5.710456804695615,6.451664246714399
6.125768208209236,-1.5384152615610662,5.7749734471627585,6.667936216826099
6.1103840555936255,-1.6944708490694083,5.84165280933102,6.870309461627666
6.093439347102931,-1.8246413986389318,5.910355903947297,7.0453092598809155
6.075192933116542,-1.9160726830779524,5.980808996546106,7.176970570710309
6.056032206285762,-1.956284394595038,6.052578702253209,7.249646688712187
6.036469362339812,-1.9364912898629216,6.125075169140331,7.2523855440430705
6.017104449441183,-1.854785142845015,6.197599024580762,7.1831118694837865
5.998556598012732,-1.7172202548787916,6.269430143275599,7.049983174643381
5.9813843954639445,-1.5358731057629527,6.339929975022033,6.868706033703209
5.966025664406315,-1.3250600992978594,6.408617035359065,6.657463313829308
5.952775063413337,-1.0979035947601643,6.475191668497358,6.432414686071424
5.941796027465735,-0.8645416508507491,6.5395158153580715,6.205463682842465
5.933150610957227,-0.6318827172457506,6.601570452186496,5.984090484418556
5.9268317837847695,-0.40418073768565466,6.661411357030682,5.772237769344971
5.922789976407913,-0.1838128848108156,6.719133734724132,5.57141632587401
5.920951847559804,0.028045941899536714,6.7748478979828715,5.381634175914656
5.9212323069787995,0.23093424564907197,6.828664239742018,5.202055224392081
5.923541649435291,0.4247829216407307,6.880684791985939,5.031423480160906
5.927789478651698,0.6097177226524477,6.930999026787548,4.868319571814397
5.933886655878222,0.7859440275318217,6.9796822225056925,4.711308316458312
5.94174609615354,0.9536835237041829,7.026795305670276,4.559019441824632
5.951282931390582,1.1131425090739553,7.072385500088522,4.410188858797242
5.962414356481322,1.2644989390704222,7.116487388676495,4.2636773722448655
5.975059345872026,1.4079002744340754,7.1591241623989434,4.118476875400073
5.9891383486163665,1.5434672972584729,7.200308931152944,3.973709833011045
6.004573021588952,1.671300973962072,7.240046029483055,3.8286253085601714
6.0212860313285725,1.7914906010475962,7.278332282568656,3.682593290288161
6.039200937339048,1.9041221665688934,7.315158215471538,3.535098206394034
6.058242159004737,2.0092862814205037,7.350509197535478,3.385732036078011
6.078335021818942,2.1070852923835526,7.384366517896258,3.2341871652982164
6.099405874742778,2.1976393508061007,7.416708389549241,3.080249011292359
6.121382268250839,2.281091316786443,7.447510879662165,2.9237883922833205
6.144193181418704,2.3576104519710697,7.476748763584998,2.7647536146543223
6.167769285938414,2.4273949077377552,7.504396299731541,2.6031622686942972
6.192043235015792,2.4906730567930384,7.530427922418483,2.4390927530961672
6.216949965583722,2.547703748759789,7.554818849949445,2.272675579857846
6.24242700307132,2.5987755958735606,7.577545605748024,2.1040845402220594
6.268414759030056,2.644205414106078,7.598586451150244,1.9335278359097503
6.2948568131711164,2.6843359580656596,7.617921729509342,1.7612392966345833
6.321700172751773,2.719533094910714,7.635534122475687,1.5874698142124093
6.34889550370088,2.7501825633076273,7.651408820617811,1.412479125739856
6.376397329333956,2.776686458336491,7.66553361187521,1.2365280741477376
6.404164193917321,2.7994595724953633,7.677898892616687,1.0598714652493055
6.4321587896422745,2.81892570697291,7.68849760726918,0.8827516278892147
6.460348046712004,2.8355140465807613,7.6973251235480715,0.7053927699458598
6.488703187177811,2.8496556665347814,7.70437905124753,0.5279962099826863
6.517199743843159,2.8617802098578364,7.709659013347357,0.3507365547369226
6.545817545941738,2.87231274046586,7.7131663788947264,0.17375888905628953
6.574540673346396,2.8816707384903757,7.71490396778529,-0.0028229497001682757
6.6033573807313,2.8902611600126855,7.714875738288288,-0.17892692306792393
6.632259992331426,2.8984774313540367,7.713086469057609,-0.35450204510959354
6.661244766644967,2.9066961857579114,7.7095414486065135,-0.5295261602137065
6.690311728502546,2.915273474175948,7.704246187004377,-0.7040019866124818
6.7194644632443055,2.9245400875346164,7.697206167138252,-0.8779510548518761
6.748709864119651,2.934795510426277,7.6884266565897335,-1.0514050198312084
6.778057819223914,2.946299881211399,7.677912606391422,-1.2243936306516559
6.807520818036028,2.959263159198201,7.665668670084905,-1.3969284026324524
6.83711344962801,2.973830500849682,7.6516993860585805,-1.5689807582018105
6.866851754636507,2.99006264348197,7.636009578476562,-1.7404531159302405
6.896752381071327,3.0079099346189984,7.61860504731726,-1.9111411768599695
6.926831480417516,3.027178626455441,7.599493635548661,-2.080685621348172
6.957103266682071,3.047488358789784,7.578686779335179,-2.2485118391148515
6.987578150269969,3.0682206829001073,7.556201660944031,-2.4137575896226573
7.01826035709897,3.0884604851145094,7.5320640850478044,-2.575191255665111
7.049144961950115,3.1069358211569194,7.506312172491153,-2.7311283974740963
7.0802143201616845,3.1219674611009554,7.4790008885164125,-2.8793623129602617
7.111433994772694,3.13144726533537,7.45020726538681,-3.0171351037717886
7.142748467426048,3.132872702675112,7.420035914349092,-3.1411870036445437
7.174077194452799,3.1234689665853517,7.388624044312646,-3.2479272719874386
7.205311884118653,3.1004227274572376,7.3561447715927715,-3.3337593138230583
7.236316111393226,3.061224688992997,7.322807178454541,-3.395554921048726
7.266928358283156,3.0040711841353724,7.2888516292440535,-3.4312069664580793
7.29696907012451,2.928224287670295,7.254539559579473,-3.440119451859436
7.326251313001213,2.8342085445934257,7.220138365060879,-3.423465047284392
7.354593398447147,2.7237597924114105,7.185903714588035,-3.3840939638850336
7.381830996371261,2.5995313795973263,7.152062774949185,-3.3261046569994726
7.407826310167234,2.464655867551296,7.11880172837919,-3.254216557414835
7.432472868842747,2.3223002257261722,7.086259562805042,-3.173139620466431
7.4556958711000085,2.1753243708981964,7.054528166600377,-3.087094351616103
7.477449114808991,2.0260881031945313,7.023657223084216,-2.999543972470652
7.497709995840936,1.8763932223171604,6.993661783359509,-2.913118365607221
7.516473928064108,1.7275183112504582,6.964530599703437,-2.8296686562129945
7.533749111176612,1.5803011575829444,6.936233913141307,-2.7503883007413017
7.549552122752441,1.4352351259384084,6.908730030133894,-2.67595295975955
7.563904474011825,1.2925597406943574,6.8819705005362986,-2.606651332540296
7.576830071418769,1.1523367016671902,6.855903987210896,-2.542494695264839
7.5883534384354405,1.0145093373668104,6.830479040258248,-2.483302476778877
7.598498531809109,0.8789469118121553,6.805646015490459,-2.4287660096348507
7.60728800092723,0.7454764781704621,6.781358355394111,-2.3784943763017306
7.614742765708935,0.6139051168788234,6.7575734116310935,-2.3320464538129126
7.6208818168777235,0.48403504549046084,6.734252947092965,-2.288952748715054
7.625722167332628,0.35567358969589596,6.7113634196058145,-2.2487298988529867
7.629278903229587,0.2286395227176805,6.688876120617285,-2.21089002864217
7.631565298456764,0.10276687487303571,6.666767220330863,-2.1749465657201923
7.632592967205495,-0.022093001645723157,6.6450177546736615,-2.1404176750969257
7.632372037189038,-0.14607056468935248,6.623613577922693,-2.1068281289243544
7.630911331542144,-0.26927803510808646,6.602545296633449,-2.073710183731112
7.628218551191063,-0.3918099181964075,6.581808194796137,-2.040603860479
7.6243004520090984,-0.5137439277673713,6.561402156191347,-2.007056897547892
7.619163012731425,-0.6351422073459956,6.541331587215868,-1.9726245582321873
7.612811590657965,-0.7560527845028083,6.521605341633546,-1.9368694116826901
7.605251062812937,-0.8765112225301736,6.502236647516719,-1.8993611615558341
7.596485950587636,-0.9965424523973748,6.483243035901161,-1.8596765643005586
7.586520526063662,-1.1161627799614036,6.4646462702581555,-1.8173994550572596
7.5753588982640485,-1.2353820706953405,6.446472275707583,-1.7721208808163675
7.563005077557095,-1.3542061180853777,6.428751066899419,-1.7234393259216518
7.549463016376242,-1.4726392033002806,6.411516673640203,-1.670961002983555
7.534736624343239,-1.5906868534340313,6.394807063610368,-1.6143001720465466
7.518829755808898,-1.7083588040462496,6.378664061889903,-1.5530794420558756
7.501746167768436,-1.8256721692082845,6.363133267469344,-1.4869300012203641
7.483489446076353,-1.9426548190068877,6.34826396745714,-1.4154917169696533
7.464062897886285,-2.0593489605230006,6.334109050287444,-1.3384130423357545
7.443469408281055,-2.1758149135700466,6.3207249198640865,-1.2553506645506831
7.421711259145354,-2.292135066562177,6.30817141321858,-1.165968834659615
7.398789908479732,-2.4084179900089078,6.2965117248719835,-1.0699383257956554
7.374705728579643,-2.5248026739074882,6.285812341614027,-0.9669349850885163
7.349457701840569,-2.641462838392216,6.276142991763142,-0.8566378739047793
7.323043073456647,-2.758611240608023,6.267576613024094,-0.7387270391213998
7.295456961050567,-2.876503858870101,6.26018934263288,-0.6128810333192234
7.266691922461866,-2.995443768279052,6.254060532299688,-0.478774417719762
7.236737484779075,-3.1157844153509777,6.24927278812249,-0.336075659129999
7.205579640625565,-3.237931830173152,6.245912031531191,-0.18444610283171642
7.173200322323834,-3.3623450483796513,6.244067570502874,-0.02354111551626531
7.139576871840037,-3.4895335994277668,6.243832159347711,0.1469848813284546
7.10468153584576,-3.6200502745991683,6.245302008160996,0.32746681942860334
7.0684810330997685,-3.7544764064765603,6.248576676355282,0.5182067424850827
7.030936269035003,-3.8933954204047305,6.253758743780133,0.7194347213462298
6.992002314830955,-4.037348274728475,6.2609530909935955,0.9312436995927168
6.951628832083671,-4.186761424020608,6.2702655279895225,1.1534848685829888
6.909761217843465,-4.341834119815428,6.281800376675353,1.3856048882308412
6.8663428766453105,-4.502367758528712,6.295656425557661,1.6264007123535573
6.8213191990600235,-4.667517533247296,6.311920432681196,1.873664763223553
6.774644023727551,-4.835450726690127,6.330657080313432,2.123699737775886
6.72628951646065,-5.002916657706462,6.351894077691191,2.370712755160464
6.676260349883585,-5.164787035618839,6.375601205242796,2.6061762034192806
6.624612479527397,-5.313729217506749,6.401662967276988,2.8183912356144045
6.57147518735233,-5.440319802736856,6.429846879633132,2.992696153737499
6.517071989324961,-5.534002331361054,6.459773841170507,3.1128971669242915
6.46173196601135,-5.585130526813642,6.4909028128397495,3.1642636438041536
6.405880660743214,-5.587721544849848,6.522545449277791,3.1375451416334847
6.350003445294715,-5.5417021869002925,6.553920900694126,3.032261418108205
6.294586423425712,-5.453228816047692,6.584243514875208,2.857221108356712
6.240054135265235,-5.332727492495957,6.612815725958775,2.6277416998312377
6.186726860340276,-5.191819335448738,6.639093142957088,2.361220503452689
6.134808666985788,-5.04075382322025,6.662705347991615,2.073383691532339
6.084401128753585,-4.887163719149906,6.683439184906939,1.7764049500260983
6.0355294915620865,-4.735973178491198,6.7012032344072,1.4786824314000564
5.988169759777175,-4.589901062257871,6.7159900587212,1.1854916956662973
5.942270749154596,-4.450104037541465,6.727844975677863,0.8998643663011495
5.897769708779181,-4.316733640612917,6.736843619340875,0.6233630742197912
5.854602372373052,-4.189345081126233,6.743077250083073,0.3566560093482626
5.81270892156179,-4.067170862793843,6.746643810176556,0.09990374202204672
5.772037212933852,-3.949293588163724,6.747642847596777,-0.14699639558726565
5.732544277052215,-3.83475066059059,6.746172883640904,-0.3842636929759624
5.694196770446309,-3.722595537040973,6.742330246711145,-0.6121508914269961
5.6569708150758995,-3.6119322566906513,6.736208737796875,-0.8309007745401086
5.620851492508993,-3.501933948844665,6.727899730051473,-1.0407270441241192
5.585832153020546,-3.3918519182028772,6.717492459610233,-1.2418096648897303
5.5519136338385175,-3.281019259061938,6.705074362961335,-1.4342985443968832
5.519103441247898,-3.1688513000929888,6.690731377517366,-1.6183217395757756
5.487414928246968,-3.054844176568254,6.674548160121608,-1.793995825827102
5.456866486481286,-2.938572228307948,6.656608201863337,-1.9614369576902027
5.427480764198207,-2.8196845748600534,6.636993832286435,-2.1207717042950582
5.399283918449607,-2.697901027408957,6.615786115243484,-2.2721470918807256
5.372304908175517,-2.573007399181762,6.593064644324677,-2.4157395116046314
5.346574834183699,-2.4448502350694623,6.568907249208631,-2.551762303172598
5.3221263318330045,-2.313330973255269,6.543389626176905,-2.680471932757415
5.2989930221004515,-2.178399561959332,6.516584906849332,-2.802172764079432
5.277209026480858,-2.0400475734921804,6.488563179208537,-2.917220483651908
5.256808550745936,-1.8983008796653424,6.459390974372018,-3.0260242897264886
5.237825541949283,-1.7532119736114122,6.429130731474753,-3.1290479913498186
5.220293422213168,-1.6048520413393097,6.397840251561254,-3.2268101894473866
5.204244901799775,-1.4533029014527377,6.3655721496667805,-3.319883725200615
5.189711872785248,-1.2986489442855855,6.3323733124147745,-3.408894580533251
5.176725383342392,-1.1409692145538746,6.298284366609442,-3.494520398665174
5.165315691196853,-0.9803297984248822,6.26333916262279,-3.577488755436019
5.155512393212605,-0.8167767026841513,6.22756427506843,-3.6585752482914984
5.147344626185763,-0.6503294592996578,6.190978522585516,-3.738601369884277
5.140841331592767,-0.48097576600277814,6.153592508886673,-3.8184319822813073
5.136031573932739,-0.3086676011456487,6.11540818906386,-3.898971982857485
5.132944897921282,-0.1333194559267087,6.076418469235286,-3.9811614192942657
5.131611703362015,0.04519035244502834,6.036606855042343,-4.06596781700643
5.132063606886465,0.22701383303809894,5.995947176872279,-4.154373753328583
5.134333745216846,0.4123207531948666,5.954403439338993,-4.247356646591502
5.138456952748795,0.601276100319055,5.911929872873078,-4.3458561953853385
5.1444697137519855,0.7940028346954107,5.868471310919224,-4.450722766417614
5.152409742098939,0.9905232343190922,5.823964083255048,-4.562637208780133
5.16231497444213,1.1906698241672824,5.778337711167247,-4.68198921687216
5.174221672683803,1.393954793308326,5.731517818998526,-4.808698232272445
5.188161220616887,1.5993864818728083,5.683430836675802,-4.941960083990834
5.204155085435614,1.8052263733906733,5.634011235835894,-5.0799088309660245
5.222207349169521,2.0086963285345427,5.5832121475262335,-5.219205339729102
5.242294312454867,2.2056825730978176,5.531020094128943,-5.354614711188337
5.2643511381858445,2.3905472661439027,5.477473947017059,-5.4787239497657625
5.2882566108472835,2.5562401834888866,5.422686707519402,-5.582065760672581
5.313819012682172,2.6949479957706193,5.366866049912676,-5.6539794102390175
5.340768492639879,2.799416414119725,5.310326255810286,-5.684401836827635
5.368762656781076,2.864737563821406,5.253482237442009,-5.666310554312178
5.39741003241929,2.889926372695686,5.196819131898887,-5.597892055959797
5.426309296146247,2.878436586454874,5.140840211339289,-5.483267905671738
5.455093662010795,2.8372487990579094,5.086007532282571,-5.331272886274398
5.483466150001374,2.775012301123849,5.032694803419827,-5.152946935164663
5.511216273012613,2.700177119469972,4.98116533406818,-4.9590224644323175
5.538218044207312,2.6197922150519597,4.931575109423857,-4.758324987552367
5.564415966357831,2.5390851513280364,4.883991859548334,-4.557234835564538
5.5898068178711116,2.461577525578418,4.838419511192688,-4.359867837521262
5.614422593126895,2.389435015635549,4.794820832817476,-4.168563068693366
5.638316943283251,2.3238495978659097,4.753135202130542,-3.984404457044802
5.66155543926191,2.265361732781825,4.713291157560094,-3.8076545069656857
5.6842090565897285,2.214099820056591,4.675214612490437,-3.6380725298085586
5.706350054790295,2.169945453579802,4.638833887192351,-3.4751312026925785
5.728049509326093,2.1326419935748735,4.604082575165425,-3.318156535757404
5.749375929261841,2.1018632703601545,4.570901009807851,-3.1664147034572707
5.770394561965443,2.0772555702805953,4.5392368627732775,-3.019163817387535
5.791167117668248,2.058462260477758,4.509045224599403,-2.8756833548109677
5.811751740273026,2.0451373740326915,4.4802883910512925,-2.7352897404883776
5.832203114013353,2.036952296565735,4.452935493646409,-2.5973435871077055
5.85257263697901,2.0335982139371254,4.426962057775332,-2.4612520876746196
5.872908619118381,2.034786005730696,4.402349536898585,-2.3264687419259573
5.8932564791756885,2.0402446398994427,4.379084849479326,-2.1924917601433656
5.9136589255746825,2.0497187229804057,4.357159931877892,-2.058861957641996
5.934156112804486,2.0629656074133877,4.336571312301473,-1.9251606206486287
5.9547857688786205,2.0797522997275775,4.317319706094986,-1.7910076165515043
