th1 (rad),w1 (rad/s),th2 (rad),w2 (rad/s)
4.251579058889616,0.8138624807372681,1.731235957680328,-1.1516562550238465
4.259717683696989,0.8828097226205165,1.7197193951300895,-1.188477734196601
4.268545780923194,0.9524914675015631,1.7078346177881236,-1.2235341853804556
4.27807069559821,1.0230435963206996,1.695599275934319,-1.2566567340499744
4.288301131561417,1.094609187471962,1.6830327085938193,-1.2876751188980926
4.2992472234361365,1.1673372268293853,1.6701559574048384,-1.3164196167742186
4.31092059570443,1.2413806858741314,1.6569917612370961,-1.342723863464722
4.323334402563171,1.3168938289691727,1.643564522602449,-1.3664287835054407
4.336503340852863,1.3940286011221357,1.6299002347673945,-1.3873878593256013
4.3504436268640845,1.4729299478378834,1.6160263561741386,-1.4054739731955113
4.3651729263424635,1.5537299350092568,1.6019716164421836,-1.4205880357163354
4.380710225692556,1.6365405768443484,1.5877657360850201,-1.4326695606413702
4.397075631460999,1.7214453522415365,1.5734390404786065,-1.4417092446011461
4.414290084983414,1.8084895033990853,1.559021948032595,-1.4477634485569943
4.432374980017405,1.8976693713359019,1.5445443135470251,-1.4509702449145148
4.451351673730764,1.9889212328901285,1.53003461109788,-1.4515663866506736
4.4712408860596655,2.082110355146858,1.5155189472313733,-1.4499041819677683
4.492061989611134,2.177021255383446,1.5010199054116955,-1.4464668488070391
4.513832202164968,2.273350410219619,1.486555236923625,-1.4418805318673338
4.536565706267164,2.3707028424224195,1.4721364316049517,-1.4369208707572123
4.560272734691388,2.468594061094632,1.4577672228973795,-1.4325119120854624
4.584958675302334,2.5664586732808394,1.4434421037765248,-1.4297153652357015
4.610623262035142,2.6636665723412287,1.4291449501241678,-1.4297087929213506
4.637259927758555,2.759546930231557,1.4148478621949543,-1.4337523285655016
4.664855397060871,2.8534193251676756,1.4005103389092992,-1.443144861175961
4.693389590312547,2.944630337349283,1.3860788902975396,-1.459172161002012
4.72283589368604,3.032593012622537,1.3714871686875194,-1.4830508838036267
4.753161823812265,3.1168259187910197,1.3566566598494831,-1.5158734936307832
4.784330083000175,3.196988268725752,1.3414979249131753,-1.5585596177364647
4.816299965687433,3.272907852929567,1.3259123287358108,-1.6118190310152587
4.849029044216729,3.3445993016075706,1.3097941384256582,-1.6761303586112895
4.882475037232805,3.41227136385065,1.2930328348395452,-1.7517378536086685
4.916597750871311,3.476323248697025,1.2755154563034585,-1.8386665581087627
4.951360983358281,3.5373313862555977,1.257128790722371,-1.9367541595766142
4.9867342972208375,3.596029026361117,1.2377612491266048,-2.0456962538118972
5.022694587484449,3.6532817558131945,1.2173042865884858,-2.165100763555567
5.059227405042581,3.710062234643767,1.1956532789529302,-2.2945470354513238
5.096328027389019,3.7674272705450313,1.1727078085984168,-2.433645599729536
5.134002300094469,3.826499881689773,1.1483713526011214,-2.582095567189935
5.1722672989113665,3.8884583904281036,1.122550396929222,-2.7397379421353527
5.211151882815647,3.954533993537796,1.0951530175078685,-2.9066045365407684
5.250697222751025,4.02601779355346,1.0660869721424608,-3.0829635179137553
5.29095740068656,4.104278036715074,1.0352573369633233,-3.2693638230313904
5.3320001810537105,4.190788333978068,1.0025636987330095,-3.466681710969819
5.373908064393492,4.287167958607154,0.9678968816233113,-3.6761736628778765
5.416779743979563,4.3952359097800295,0.9311351449945325,-3.8995407490172234
5.460732103077364,4.517081272744997,0.8921397375043603,-4.139010555160603
5.505902915804814,4.655153401294938,0.8507496319527542,-4.397443790650854
5.5524544498177635,4.812376350850429,0.8067751940462456,-4.678473556892743
5.600578213326267,4.992292142631547,0.7599904584773183,-4.986685112967923
5.650501134752583,5.199235140319192,0.710123607347639,-5.327840540953355
5.702493486155775,5.438530773341566,0.6568452019381055,-5.709140070985189
5.75687879388919,5.716685345430966,0.5997538012282536,-6.139475133901937
5.8140456473435,6.041463369127588,0.5383590498892342,-6.629530775344965
5.874460281034776,6.421571068659891,0.47206374213578456,-7.191347952410978
5.938675991721375,6.865232868601755,0.40015026261167475,-7.836354306124047
6.007328320407392,7.375969714942208,0.32178671955043425,-8.569504995220383
6.081088017556814,7.9420376849646654,0.2360916695982304,-9.374581025420332
6.1605083944064605,8.514337860436605,0.1423458593440271,-10.183365273870791
6.2456517730108265,8.975013594215786,0.04051220660531919,-10.831744358414255
6.335401908952984,9.139413216331425,-0.06780523697882336,-11.062415375009525
6.426796041116298,8.88048375799525,-0.1784293907289186,-10.698696457846626
6.515600878696251,8.295487703432087,-0.28541635530738485,-9.876777307672166
6.598555755730572,7.6144017565827165,-0.38418412838410654,-8.916759861307817
6.674699773296399,6.987735597970683,-0.4733517269971847,-8.027234542650177
6.744577129276106,6.458833931926693,-0.5536240724236865,-7.267849757498142
6.809165468595372,6.023125532374791,-0.626302569998668,-6.632064054752016
6.86939672391912,5.66432464167019,-0.6926232105461881,-6.097333073147508
6.926039970335822,5.366526800534734,-0.7535965412776632,-5.641770897564087
6.979705238341169,5.1168704543810515,-0.8100142502533041,-5.247776466767416
7.03087394288498,4.905482240040722,-0.8624920149209783,-4.901937246340623
7.079928765285387,4.724854804117346,-0.9115113873843845,-4.59417066507849
7.12717731332656,4.569237011445158,-0.9574530940351694,-4.316895391523149
7.172869683441012,4.434153679027229,-1.0006220479504009,-4.064388879099673
7.217211220231284,4.316050365707324,-1.0412659367413977,-3.832321951224827
7.2603717238883565,4.212034965237803,-1.079589156253646,-3.617429314410519
7.302492073540734,4.119689584961742,-1.115763449397751,-3.417277378014223
7.343688969390352,4.036932852330948,-1.1499362231778933,-3.2300995242680743
7.384058297913661,3.9619190250136676,-1.182237218420574,-3.054676838974142
7.423677488163798,3.8929650675190697,-1.2127839868103154,-2.8902480584193144
7.4626071388389885,3.8285002758433397,-1.2416864673945085,-2.73643643666053
7.500892141597422,3.7670353280748876,-1.2690508317611138,-2.5931840144019906
7.538562494878171,3.707148995407325,-1.2949826719051336,-2.4606859763128446
7.575633984832244,3.6474912626043055,-1.319589531668262,-2.3393199128252142
7.612108897458287,3.5868013425763148,-1.342982730796514,-2.2295672038782643
7.647976910884051,3.5239381263984146,-1.3652784028352967,-2.131926563263863
7.6832162921480345,3.4579191943063914,-1.3865976684679353,-2.0468229096393995
7.7177954840910985,3.3879629760347507,-1.4070658975643293,-1.974517763309451
7.751675113851446,3.3135274632470395,-1.426811075197424,-1.9150296748678621
7.784810388483916,3.234338538536652,-1.4459613719461024,-1.868074075447483
7.817153773869283,3.150401855286459,-1.4646421127005773,-1.8330308873146017
7.848657792422148,3.0619943463340347,-1.4829724215737232,-1.8089451750749401
7.879277735885488,2.969634543471597,-1.5010618733244727,-1.7945615520495604
7.908974081320204,2.8740343120546212,-1.5190074888449683,-1.7883879819161153
7.93771442444075,2.776037559963669,-1.5368913686641295,-1.78878024389292
7.965474800040386,2.6765532927748477,-1.5547791711030587,-1.7940356941828253
7.992240332968135,2.57649070875426,-1.572719528044887,-1.8024845813681158
8.018005240055677,2.476702926699666,-1.590744373858568,-1.8125689395573321
8.042772269322674,2.3779438391962096,-1.6088700632541413,-1.8229023313801764
8.066551707714636,2.2808400856364703,-1.627099086567943,-1.8323075191824552
8.089360108571,2.1858778222846755,-1.6454221617597677,-1.8398326307836452
8.111218886793846,2.093402234234934,-1.6638204880676042,-1.8447489576713059
8.132152909136195,2.0036267538513823,-1.6822679776443172,-1.8465349440246845
8.152189176674709,1.9166486799069884,-1.7007333270845642,-1.8448512767746477
8.17135566347378,1.8324681564051282,-1.7191818398523107,-1.8395115467252263
8.18968034503783,1.7510080493815314,-1.737576955319563,-1.8304520568479279
8.207190425531646,1.6721329537227745,-1.7558814758880423,-1.8177033069881663
8.223911755068874,1.5956662254329073,-1.774058508957924,-1.8013646976755973
8.239868417323203,1.5214044854630184,-1.79207215593468,-1.7815831873953596
8.255082462177834,1.4491294488926292,-1.8098879878086336,-1.7585360475755418
8.26957375666676,1.3786172026180656,-1.827473348284389,-1.7324174765279388
8.283359928692942,1.3096452089872208,-1.8447975230496685,-1.703428620317005
8.296456380782814,1.241997381412937,-1.8618318092528385,-1.671770459849716
8.308876354596944,1.175467588880038,-1.8785495138513357,-1.637639017303251
8.320631030485744,1.1098619223834523,-1.8949259040243682,-1.601222377387463
8.33172964970958,1.0450000146418668,-1.910938127798243,-1.5626990851823583
8.342179649855998,0.9807156563547894,-1.9265651186500665,-1.522237556012046
8.351986806419546,0.9168569048345523,-1.941787494210187,-1.4799962041635457
8.361155375467892,0.8532858378717553,-1.9565874562518224,-1.436124061052783
8.36968823384661,0.7898780688625445,-1.9709486968623502,-1.3907617075834753
8.377587014535235,0.7265221088948425,-1.984856313938185,-1.3440423897063705
8.384852235624184,0.6631186372733028,-1.9982967378352487,-1.296093221350196
8.391483421996917,0.5995797231195452,-2.011257670048751,-1.2470364062047743
8.397479219228112,0.5358280263582286,-2.0237280341107984,-1.1969904306566446
8.402837499491694,0.4717959957515133,-2.035697938417365,-1.146071195809735
8.40755545944921,0.4074250739202841,-2.0471586503754624,-1.0943930681158918
8.411629710188413,0.34266491384717873,-2.0581025810566214,-1.0420698366547785
8.415056359326885,0.2774726076647428,-2.068523279423169,-0.9892155713182351
8.417831085403533,0.21181192616681477,-2.078415435136351,-0.9359453806824899
8.419949204665201,0.14565256610697974,-2.087774888943176,-0.8823760716619269
8.42140573032627,0.07896940170286106,-2.096598649659795,-0.8286267154820859
8.422195424343299,0.011741736646551884,-2.104884916814616,-0.774819126344251
8.422312841709765,-0.05604744682650098,-2.1126331080780587,-0.7210782605619198
8.4217523672415,-0.12441224475538347,-2.119843890683678,-0.6675325450554095
8.420508244793945,-0.19336459644278725,-2.126519216134232,-0.6143141449755123
8.418574598829517,-0.26291505915095037,-2.132662357583987,-0.5615591809378632
8.415945448238007,-0.3330735932567591,-2.1382779493933657,-0.5094079069092474
8.41261471230544,-0.4038503578396017,-2.143372028462458,-0.45800486020003595
8.408576208727043,-0.47525651592909274,-2.1479520770644585,-0.4074989952747841
8.403823643567751,-0.5473050479426028,-2.1520270670172064,-0.35804381317774997
8.398350593088326,-0.6200115712018612,-2.155607505148984,-0.30979749825670944
8.392150477376306,-0.6933951628313698,-2.158705480131551,-0.262923073526536
8.385216525747992,-0.7674791827968116,-2.161334710866816,-0.21758858540831086
8.377541733920024,-0.8422920933167051,-2.1635105967208994,-0.17396732766998937
8.369118812986857,-0.9178682703421199,-2.1652502699975993,-0.13223811313467496
8.359940130283436,-0.9942488022026993,-2.166572651128946,-0.09258560005856778
8.349997642261409,-1.071482269805619,-2.1674985071295314,-0.05520067794900424
8.339282819563353,-1.1496255018774795,-2.1680505139090216,-0.020280914917241044
8.327786564544578,-1.2287442975737073,-2.168253323058194,0.011968934651760285
8.315499121568841,-1.3089141072477943,-2.1681336337116766,0.041336367391512405
8.302409980496364,-1.3902206601611289,-2.1677202700377616,0.06760052343243861
8.288507773894752,-1.4727605252969067,-2.167044264803437,0.0905315502815282
8.273780168641784,-1.5566415880799456,-2.166138949300622,0.10988996154285652
8.258213752760984,-1.6419834215504938,-2.165040049685193,0.12542602259251817
8.24179391854548,-1.7289175252434335,-2.163785789459268,0.13687920568156256
8.224504743293044,-1.8175873985400977,-2.1624169974024525,0.14397776923469138
8.206328869307644,-1.908148407464794,-2.1609772197101056,0.14643853058056333
8.187247385232995,-2.0007673947114637,-2.1595128344042998,0.1439669181921819
8.16723971128588,-2.0956219721012177,-2.158073165222378,0.13625740884742063
8.146283491564867,-2.1928994227991714,-2.1567105911339035,0.12299447690112793
8.124354497336876,-2.292795127743172,-2.155480646364892,0.10385420680609805
8.101426546059445,-2.3955104173876425,-2.154442104296831,0.07850674547740552
8.077471441885569,-2.50124973690554,-2.153657036842057,0.04661979689017908
8.052458944516514,-2.610217001713504,-2.1531908388731553,0.007863385562704626
8.02635677449938,-2.722611012412154,-2.1531122050175284,-0.03808386446122986
7.999130664375259,-2.8386197963989854,-2.1534930436621407,-0.09152667669984085
7.970744466411269,-2.958413750596329,-2.154408310429139,-0.15274303834517963
7.9411603289053065,-3.082137479616663,-2.1559357408125908,-0.22197184922515908
7.91033895410914,-3.2099002603345923,-2.1581554593048424,-0.2993981151131215
7.878239951505794,-3.341765121313795,-2.1611494404559735,-0.385135579180626
7.844822300292656,-3.4777366072336884,-2.1650007962477797,-0.47920680969851326
7.810044934220319,-3.617747406112349,-2.169792864344765,-0.581520933874118
7.773867460159196,-3.7616441495883794,-2.175608073683506,-0.6918494285043255
7.736251018663312,-3.90917284843152,-2.1825265679685493,-0.809800643157126
7.6971592901789965,-4.059964586007304,-2.1906245744001205,-0.9347940274340755
7.656559644318923,-4.213522244839295,-2.199972514674461,-1.0660353367223605
7.61442442187053,-4.369209163515369,-2.2106328680416847,-1.2024943664537464
7.570732330235376,-4.526240687712936,-2.222657811706222,-1.3428869709277438
7.525469923358247,-4.683679566036638,-2.2360866814154994,-1.485663214496335
7.47863312769788,-4.840436031892733,-2.250943313560463,-1.6290034420394974
7.430228767378953,-4.995273203958062,-2.267233347980858,-1.7708238211036846
7.380276035339373,-5.146818146627351,-2.284941586191895,-1.908792506169035
7.328807853873099,-5.293578596340161,-2.304029511253585,-2.0403570460016986
7.275872067909697,-5.433965036030433,-2.324433081713602,-2.1627830692472303
7.221532417549393,-5.566317552144185,-2.3460609124060743,-2.2732037323563175
7.165869242027951,-5.688936793301372,-2.3687929497296376,-2.3686789871265237
7.1089798740949375,-5.800118398303736,-2.392479739600903,-2.4462634840746404
7.0509786901119,-5.898190465225527,-2.4169423744416494,-2.5030818808995425
6.991996785459644,-5.98155393573454,-2.4419731932506448,-2.5364104117890935
6.932181246102299,-6.048726065763037,-2.4673372973685357,-2.5437636630732565
6.871693985444669,-6.098387307328748,-2.4927749339992684,-2.5229854124311295
6.810710112371381,-6.129431788179935,-2.5180047881235796,-2.4723419277698846
6.749415794489582,-6.141021019767612,-2.5427282074012787,-2.390615134386884
6.688005584291906,-6.132639426922386,-2.5666343587451474,-2.2771914991554016
6.626679190022682,-6.104148820710195,-2.5894062737367016,-2.13214047877278
6.5656377018155805,-6.055837226167041,-2.6107276785244293,-1.9562742953341314
6.50507932955391,-5.988455896356432,-2.6302904214777705,-1.7511792325218252
6.445194770590345,-5.903237403039198,-2.6478022138029886,-1.5192083454202558
6.386162396559953,-5.801887942595326,-2.662994297257191,-1.263427175631041
6.328143517134,-5.68654884637189,-2.6756285690135018,-0.9875081782203607
6.271278028670282,-5.5597257962845,-2.6855036507957055,-0.6955758988340568
6.215680770707436,-5.424188961452796,-2.692459409784046,-0.39201249513645936
6.161438881092908,-5.282852217466284,-2.696379534735411,-0.0812402964746341
6.108610358918246,-5.1386435336766825,-2.697191937700157,0.23249717557158978
6.057223923581479,-4.994380401410215,-2.694866965944441,0.5453334189880179
6.007280119567377,-4.8526632832650165,-2.6894136317545607,0.8539374755425311
5.958753486734727,-4.715796745741939,-2.6808742569991355,1.1556206647068878
5.9115955192773075,-4.585743147456771,-2.6693180503520666,1.4483878689908183
5.86573808780274,-4.464108764789232,-2.6548341716621584,1.7309377002227682
5.821097000154848,-4.352158174919552,-2.6375247946599307,2.0026217619975606
5.777575418405652,-4.250850240705197,-2.6174985770399553,2.2633762342606176
5.7350669159986,-4.160888254960751,-2.594864814697349,2.5136392674129855
5.693458033448993,-4.082777378223935,-2.569728422023219,2.7542659218001195
5.652630259666753,-4.016883917060085,-2.542185762805218,2.9864495760592398
5.612461420496152,-3.963492716863543,-2.5123212670446256,3.2116556994680785
5.572826493327517,-3.9228605884939194,-2.4802047100499447,3.4315712075811557
5.5335978874425775,-3.8952650161413875,-2.445888997974133,3.648070561023481
5.494645237281164,-3.881048297918436,-2.4094082923638984,3.863198337956938
5.455834754301979,-3.8806577117082623,-2.370776308984329,4.079167047716222
5.417028177184897,-3.8946822320057017,-2.3299846385071667,4.298368160964481
5.3780813548648405,-3.923885615048759,-2.287000956897522,4.523393271049747
5.338842498714353,-3.969233984606106,-2.2417670241870247,4.757060290508113
5.299150158868292,-4.031912672798169,-2.1941964212819434,5.002435472778563
5.25883103214031,-4.1133205837652165,-2.144172066554158,5.262833765047672
5.217697826302658,-4.215018088229542,-2.091543728903681,5.541763780448886
5.175547645420362,-4.338581653029079,-2.036126091099192,5.842752840460264
5.132161828890071,-4.485277244257222,-1.9776985626945893,6.1689310983629655
5.087309056447499,-4.655394733400196,-1.9160092517109597,6.522157111132468
5.040755109113498,-4.846982909189255,-1.850787680599635,6.901323863315895
4.992285280021605,-5.0536279669705575,-1.781774441966476,7.299346634089078
4.9417490003519,-5.261019587643044,-1.7087809756255852,7.698467534193761
4.889138804475469,-5.44290545943715,-1.6317963002836475,8.064690822445591
4.834709749881098,-5.559543149706284,-1.5511493920591917,8.345637495551712
4.7791143183840346,-5.565310934174067,-1.4676930171036746,8.481035225756724
4.723461209042294,-5.429923806481196,-1.3828826648461074,8.431952497920305
4.669161970977482,-5.160899111450872,-1.2985631398669044,8.211529542307519
4.617552979862974,-4.80163712615981,-1.2164478444438291,7.881750966458281
4.569536608601376,-4.40429630930149,-1.1376303347792462,7.515622189110055
4.5254936455083605,-4.006604365188518,-1.0624741128881456,7.165393604206131
4.485427601856475,-3.627476559123117,-0.9908201768460844,6.8570379063547415
4.449152836265244,-3.272860196999841,-0.9222497977825369,6.5986920181401985
4.4164242342952456,-2.9420831069091324,-0.856262877601135,6.389561530440541
4.387003403226155,-2.631794634967435,-0.7923672622967295,6.225367866917704
4.36068545687648,-2.3379121993515706,-0.7301135836275524,6.100994230538594
4.337306334882964,-2.0564503959127025,-0.6691036413221665,6.01158008839367
4.316741830923837,-1.7838171274063357,-0.6089878404382298,5.952882831047097
4.298903659649773,-1.516880082805967,-0.5494590121277588,5.92132634528506
4.283734858821713,-1.2529452457411798,-0.4902457486749082,5.913929908228304
4.2712054063643015,-0.9897096545634847,-0.4311064495926252,5.928200683388075
4.261308309818666,-0.7252141501049555,-0.37182444275874443,5.9620231123653635
4.254056168317617,-0.4578057201297369,-0.3122042116350908,6.013556817740022
4.24947811111632,-0.1861121369992209,-0.2520686434576906,6.0811457405433735
4.247616989746327,0.0909712921460864,-0.19125718605225686,6.163237997884892
4.248526702667788,0.3742842363184715,-0.12962480607340793,6.258315173516215
4.252269545030972,0.6643950492020221,-0.06704165433824577,6.364830040134483
4.258913495522993,0.9615880060732842,-0.0033933539369009474,6.481152437801058
4.268529375583726,1.2658468083569658,0.06141817044110964,6.605523911941752
4.281187843667295,1.5768375563155632,0.12747340956052716,6.7360225859814715
4.2969562192304505,1.8938948553814765,0.19483363542034188,6.870540475858037
4.315895167784265,2.2160150776329512,0.26353904017892227,7.006775903470184
4.338055318560595,2.541860888013593,0.33360679921362413,7.14224367329522
4.36347392744073,2.8697807857511948,0.40502923594657636,7.274305084506274
4.392171735298242,3.1978464468652605,0.4777722867916391,7.400218552104306
