th1 (rad),w1 (rad/s),th2 (rad),w2 (rad/s)
3.0532853000011984,1.5481751571591895,5.450394015505109,-1.9670134194607822
3.0687670515727903,1.582652883530543,5.430723881310501,-1.8853964457547046
3.0845935804080957,1.6165694050421735,5.411869916852955,-1.8051007765665892
3.1007592744585173,1.6498973424820036,5.393818909087289,-1.7262436967736425
3.1172582478833375,1.6826381713681438,5.376556472119552,-1.6489099932651652
3.134084629597019,1.714816577729073,5.360067372186901,-1.5731593226094391
3.15123279537431,1.746475684054119,5.344335778960806,-1.4990325080344369
3.168697552214851,1.7776730720296772,5.329345453880462,-1.4265568539170652
3.186474282935148,1.8084775136091211,5.315079885341292,-1.3557505855435787
3.204559058071239,1.8389663179095292,5.301522379485856,-1.2866265276659108
3.2229487212503343,1.8692232043293966,5.288656114209197,-1.2191951324371308
3.2416409532936283,1.8993366192174728,5.276464162884826,-1.1534669593304918
3.260634319485803,1.9293984223817675,5.264929493291522,-1.0894546991543501
3.279928303709621,1.9595028793871307,5.254034946299979,-1.0271748229301247
3.299523332503492,1.9897459051283681,5.243763198070678,-0.9666489252376681
3.3194207915547755,2.020224513113068,5.234096708818301,-0.9079048212510022
3.3396230366859063,2.0510364330101587,5.225017660605791,-0.8509774473932167
3.3601334010160078,2.0822798662358304,5.216507886131859,-0.7959096074492373
3.380956199678366,2.114053355671418,5.208548790057367,-0.7427525990901285
3.4020967332350804,2.1464557511060063,5.201121264066465,-0.691566750017837
3.4235612907461404,2.1795862567655324,5.194205596566287,-0.6424218882374123
3.445357153313796,2.2135445514366405,5.187781377683913,-0.5953977671958478
3.467492598828162,2.248430975324822,5.181827400011954,-0.5505844635852177
3.4899769085814105,2.2843467810048343,5.176321555376102,-0.508082763393796
3.512820376391459,2.3213944487214926,5.171240727742164,-0.46800455021550674
3.5360343208786738,2.3596780689661463,5.166560682240009,-0.43047320882172846
3.559631101568335,2.3993037977646794,5.162255950151792,-0.39562405649895876
3.583624139545982,2.4403803925337706,5.158299709586802,-0.3636048146103767
3.6080279434713196,2.4830198387512548,5.154663661440698,-0.3345761332052025
3.632858141858832,2.527338080091577,5.151317900108646,-0.30871218223542196
3.6581315226597475,2.573455867134347,5.148230778286292,-0.28620132399848114
3.683866081331091,2.621499742282617,5.145368765046308,-0.2672468827453462
3.710081078753917,2.671603181123936,5.142696296218854,-0.2520680288837734
3.7367971105651563,2.7239079130919017,5.1401756159300165,-0.24090079672126896
3.7640361896960752,2.7785654468429968,5.137766607962804,-0.2339992559974053
3.791821844164505,2.8357388280685445,5.13542661540283,-0.23163685817604643
3.8201792324451906,2.8956046591899147,5.13311024682107,-0.2341079780071808
3.84913527903709,2.9583554109902304,5.130769167040998,-0.24172966828018222
3.878718833146992,3.024202054821661,5.128351870358196,-0.2548436394890279
3.9089608536952087,3.093377039147138,5.125803433963306,-0.2738184639888148
3.93989462408668,3.1661376235164034,5.1230652493234174,-0.299051982512168
3.971556000321844,3.2427695629669,5.120074729498295,-0.3309738539832292
4.003983695951513,3.3235911004784127,5.116764990958463,-0.37004812863297887
4.037219606956297,3.4089571653655826,5.1130645096721326,-0.4167756258522165
4.071309178609953,3.4992635770517935,5.10889675341361,-0.471695740909583
4.106301814380471,3.5949508942096164,5.104179796004514,-0.5353870560420895
4.142251323322567,3.6965072942188404,5.0988259254440935,-0.6084657415547091
4.1792163962647555,3.8044694643858046,5.092741268028546,-0.6915801256851031
4.217261090908614,3.9194198548862915,5.085825466771695,-0.7853988752374699
4.2564552894574765,4.041977668019195,5.07797147801932,-0.8905887993430367
4.296875066137669,4.172779478752081,5.06906559002589,-1.0077761432594206
4.33860286092519,4.312443197274237,5.058987828593295,-1.1374821041717973
4.381727292897932,4.461505998761994,5.047613007551577,-1.280018919424607
4.426342352885552,4.620322812623767,5.034812818357331,-1.4353272253229798
4.47254558101179,4.788907466547121,5.020459546104101,-1.6027292209071222
4.520434655677262,4.966695472504799,5.00443225389503,-1.7805682463618053
4.570101610402309,5.1522105247498,4.986626571431412,-1.965710697208737
4.6216237156498075,5.34263607251886,4.966969464459324,-2.152915195455645
4.675050076374996,5.533345307096652,4.9454403125047675,-2.33415021631022
4.730383529445962,5.717544462173557,4.922098810341665,-2.498088863449075
4.787558974067698,5.88632664459662,4.897117921707174,-2.630214923681547
4.8464222405136645,6.029528118973406,4.870815772470359,-2.714110196434778
4.906717521703398,6.137623503932183,4.843674670506012,-2.734268145517417
4.96809375674272,6.204310233429278,4.816331989050838,-2.679932966943618
5.030136859077013,6.228647047690024,4.789532659381401,-2.5483246105411537
5.092423329553913,6.215433597338529,4.764049413275989,-2.3453363602793345
5.154577665527299,6.173499698932467,4.740596049673196,-2.0831852133593447
5.216312662516623,6.112945392189891,4.719764197539603,-1.776476245655213
5.277442116438522,6.042787042849467,4.701999435083051,-1.4387741651676684
5.337869986867016,5.969756289958679,4.687611693431374,-1.0807917928965387
5.3975675497666025,5.898130947466565,4.6768037755024086,-0.7100637519609875
5.456548859241268,5.830119937506967,4.669703137982799,-0.33144290404653187
5.514850058616338,5.766399478910148,4.666388708942334,0.052155096676969825
5.572514053405439,5.706592863238105,4.666910259909104,0.43906489194994974
5.6295799820378205,5.649630567175504,4.671300908828603,0.8283436444476104
5.686076287709575,5.593996961563044,4.679584345273079,1.2194031159852958
5.742016257325206,5.5378916454398235,4.691778376432932,1.611769016208667
5.797395173779604,5.479333884686935,4.707896066595019,2.004932526925571
5.852188512626474,5.4162324399070885,4.727945391864274,2.3982663526210546
5.906350837025545,5.3464363129597645,4.751928055390485,2.790986165652924
5.959815200155142,5.267776455454722,4.779837917047014,3.1821450673948206
6.012492964709689,5.178104434840766,4.811659367720962,3.5706532709281693
6.064274009058097,5.075331136212403,4.847365900430243,3.955317989783028
6.115027320420221,4.957466447982262,4.886919080328074,4.3348999843964116
6.1646019849000435,4.822659288376094,4.930268080172038,4.708183806853397
6.212828577783805,4.6692361356472345,4.977349918240572,5.074058838618112
6.259520939140277,4.4957353724600555,5.028090506626753,5.4316080035693926
6.304478292864878,4.300934247940601,5.082406586662446,5.7802007691258686
6.347487635344284,4.083865139186008,5.140208594353705,6.119586877116461
6.388326286736144,3.8438181165488094,5.20140446312487,6.4499872647939975
6.4267644679016325,3.580327656945454,5.26590433577281,6.772178844706868
6.462567744471087,3.2931428097267967,5.3336261242198795,7.087570067205261
6.495499172568356,2.9821823857982923,5.404501824891932,7.398264117676851
6.525320996426339,2.647480199736357,5.478484466068701,7.707105440329286
6.5517957984237025,2.28913087022167,5.5555555204719935,8.017701587572796
6.57468710712592,1.9072558710538923,5.635732536347722,8.334403488954676
6.593759665836458,1.5020257491494244,5.719076571237268,8.6622081854377
6.608779923327953,1.0738038437107413,5.805698653091645,9.006510009309467
6.619517961765061,0.6235298450160144,5.89576375318474,9.372554130911697
6.6257532602152205,0.15355237027911922,5.989489294493857,9.764319189102222
6.6272887839180115,-0.3307441997533005,6.087132486384879,10.182359546526055
6.623981341920478,-0.8180406346787448,6.188956081850139,10.619931665558402
6.615800935573691,-1.2865631516703222,6.295155398505723,11.056856708906611
6.602935304056987,-1.698769928818102,6.405723965594789,11.452098142540102
6.585947604768806,-1.9995980985375728,6.52024494702019,11.740770882449267
6.56595162378343,-2.127642549033627,6.637652655844683,11.84814935827929
6.544675198293094,-2.0450242307326127,6.756134149427475,11.7284853880536
6.524224955985767,-1.766999192172593,6.873419003308011,11.403235120193578
6.506554964064041,-1.3557417480396003,6.987451354509947,10.951572551951257
6.492997546583646,-0.881948019932141,7.09696708002946,10.4595614148075
6.484178066384325,-0.395940011299965,7.201562694177535,9.983881583204045
6.480218666271325,0.07580016724827354,7.301401510009575,9.549509152669575
6.480976667943808,0.522476444584048,7.396896601536271,9.161706618018483
6.486201432389648,0.9411803210818883,7.4885136677164565,8.81658565381774
6.495613235600467,1.3322739172652533,7.576679524254634,8.507045671840348
6.508935974773119,1.6971488520403617,7.661749980973037,8.225493587959207
6.525907463293523,2.0372694785883905,7.74400491685263,7.9649143944301635
6.546280158079407,2.35382677860305,7.823654060796931,7.719207685492121
6.569818425865437,2.6476630556407503,7.900846137651852,7.483229492218093
6.5962950564218445,2.919308998872025,7.975678432574033,7.252731383034935
6.625488146410564,3.169061743123969,8.048205746404383,7.02427450514997
6.657178763841804,3.3970722466240484,8.118448491455883,6.795146420053578
6.691149486308045,3.6034280009750885,8.18639995565642,6.563287890602975
6.727183766317796,3.7882249200445948,8.25203283456245,6.327228862444739
6.765066015518242,3.951625782769308,8.315305123186896,6.086030478977175
6.804582273345935,4.093904314417532,8.376165427976668,5.839229877829302
6.84552131649011,4.215474961551905,8.43455772675496,5.586785320829865
6.887676066105629,4.316909088533492,8.490425579963258,5.329020267429145
6.930845156990964,4.398938852080178,8.54371578263755,5.066566015327774
6.974834545511766,4.462450428210984,8.594381442790828,4.800303362966384
7.019459049793876,4.5084685638106805,8.642384476420492,4.531304339684714
7.064543735431982,4.538134588830124,8.68769751981734,4.260775391344917
7.1099250813202834,4.5526800507757885,8.730305273730789,3.99000352228031
7.155451881828041,4.5533980305683475,8.770205308953592,3.720306816925264
7.200985862133725,4.541613989842264,8.807408377122846,3.452990543977431
7.246402002032148,4.518657713449907,8.84193828256262,3.1893097322740203
7.291588579166647,4.485837579044713,8.87383137988536,2.930438747699075
7.336446954957094,4.444418038504167,8.90313576736235,2.67744803509582
7.380891135342136,4.395600859860121,8.929910247713309,2.4312878508757008
7.424847143940737,4.340510373889742,8.954223126222066,2.1927785243428426
7.468252247679635,4.2801827108364465,8.976150911465496,1.9626065632586212
7.5110540747879995,4.215558807912462,8.995776977098082,1.7413257680761751
7.553209662867124,4.1474808197075435,9.013190234778843,1.529362438574817
7.594684471064199,4.0766914691561125,9.028483859164592,1.327023739593786
7.63545138575576,4.003835830562191,9.04175409656053,1.1345083284935595
7.675489744061382,3.9294650303464103,9.053099179845464,0.9519184229582198
7.714784394364846,3.8540413765751262,9.062618364075046,0.7792725903563821
7.753324808130598,3.777944475804623,9.07041108997861,0.6165186564925464
7.791104252888644,3.701477956886358,9.076576276543534,0.4635462513987165
7.828119032457508,3.6248764889257985,9.08121173905752,0.320198624386311
7.864367797346766,3.5483128488463636,9.084413725301383,0.18628346397838763
7.89985092583523,3.4719048587781827,9.086276559941167,0.06158254705499251
7.934569974423011,3.395722071953003,9.086892385411717,-0.05413988586093796
7.968527195142541,3.3197921362796827,9.086350986553107,-0.16113007553548914
8.001725116505337,3.2441068065119385,9.084739685797752,-0.2596390132271533
8.034166184570458,3.1686276087081566,9.08214329566548,-0.3499180080167724
8.065852460657538,3.0932911846750972,9.078644115585313,-0.4322155052295181
8.09678537250429,3.018014359587785,9.074321960533018,-0.5067750943156069
8.126965516100167,2.942698983315957,9.069254209589861,-0.5738346332292881
8.156392505933328,2.8672365954636594,9.063515863257567,-0.6336264054605403
8.185064871887963,2.791512956039058,9.057179599202962,-0.6863782129788255
8.212980001448354,2.715412468406556,9.050315817073175,-0.7323152915765794
8.24013412613242,2.6388224993803875,9.04299266415741,-0.7716629134085757
8.266522351126223,2.5616375741086617,9.035276035023324,-0.804649514949893
8.29213872686731,2.483763392553048,9.027229539873826,-0.8315101584996015
8.316976360792841,2.4051205825067226,9.01891443828883,-0.8524901045761727
8.341027566617909,2.325648074691922,9.010389537243068,-0.8678482453758936
8.364284047364828,2.2453059627203618,9.00171105478931,-0.8778601313473926
8.386737106992031,2.1640776990526946,8.992932453475836,-0.8828203198376755
8.408377883982558,2.0819714816375505,8.98410425027746,-0.8830437921702401
8.429197598798934,1.9990207074805273,8.975273812355757,-0.8788662271829601
8.44918780587374,1.9152834096942903,8.966485150083928,-0.8706429859603688
8.468340639970682,1.8308406515178537,8.957778720224324,-0.8587467510944784
8.48664904648586,1.7457939192610956,8.94919125271338,-0.8435638669488206
8.50410698567847,1.660261628446992,8.940755614043892,-0.8254895341625896
8.52070960196294,1.5743749244308844,8.932500718702267,-0.8049221091091544
8.536453351207248,1.4882730114322673,8.924451497611175,-0.7822568345870055
8.55133608132157,1.4020982750187785,8.916628929265304,-0.7578793717534872
8.565357064071758,1.3159914686834526,8.90905013554777,-0.7321595099790842
8.578516978758593,1.2300872152746138,8.901728540447978,-0.705445401335141
8.590817850911339,1.14451003250995,8.894674086434627,-0.6780586056658319
8.602262951236439,1.0593710353337562,8.887893500377968,-0.6502901504797469
8.612856661589776,0.9747654045687417,8.881390598873171,-0.622397718982572
8.622604315635463,0.8907706491333865,8.875166621683345,-0.5946039909030011
8.631512022126797,0.8074456345757928,8.869220581774314,-0.5670960836524812
8.639586478472555,0.7248303081485625,8.863549620937789,-0.540025981909828
8.646834781554041,0.6429460220480963,8.858149361118691,-0.5135118045664638
8.653264241774522,0.561796341569164,8.853014243073027,-0.48763973868210403
8.658882205190213,0.4813682220240926,8.848137845686205,-0.46246646803254565
8.663695887410455,0.40163344469346296,8.84351318100588,-0.43802193506867276
8.66771222185739,0.3225502148752606,8.839132961655194,-0.41431229535547254
8.670937724006142,0.2440648415219787,8.83498983870164,-0.39132294880873764
8.673378372421363,0.16611343569971765,8.831076609213552,-0.36902155896550637
8.67503950677836,0.08862358244898245,8.827386393623897,-0.34736099763386935
8.67592574260285,0.011515956430262472,8.823912783647557,-0.3262821759334009
8.676040902167152,-0.06529413464596626,8.820649961888224,-0.30571674304947355
8.675387960820693,-0.1418952836353744,8.81759279445773,-0.28558965063052827
8.67396900798434,-0.2183785907250284,8.814736897951423,-0.2658215936854964
8.671785222077089,-0.2948363330043366,8.812078682014569,-0.2463313483407542
8.668836858747046,-0.3713606821024393,8.809615368531162,-0.22703803324032906
8.66512325192602,-0.448042452571447,8.807344988198759,-0.2078633250705051
8.660642827400306,-0.5249698627293421,8.805266354948055,-0.18873365995188796
8.655393128773012,-0.6022272901900151,8.803379018348537,-0.1695824514640229
8.649370855871112,-0.6798940062367236,8.801683193833897,-0.150352352934931
8.642571915808745,-0.7580428765454601,8.800179670304548,-0.130997586318337
8.63499148704329,-0.8367390205996132,8.798869694441365,-0.11148635238512547
8.626624096837295,-0.9160384285529941,8.797754830917514,-0.09180332691122725
8.617463712551766,-0.9959865423871942,8.796836797648401,-0.07195223489238786
8.607503847127894,-1.0766168180104552,8.796117275299478,-0.051958479473348085
8.59673767894779,-1.157949296381289,8.795597690504744,-0.03187178433039374
8.585158185983977,-1.2399892245416821,8.79527897266144,-0.01176878805845626
8.57275829373856,-1.322725781069028,8.795161284780857,0.008244492543937932
8.559531035927868,-1.4061309740094838,8.795243729706296,0.028030435238977754
8.545469726187774,-1.490158791539508,8.795524034058687,0.04741794624321717
8.530568138272379,-1.5747446947056631,8.79599821352112,0.06620109624814455
8.514820691325323,-1.6598055455615164,8.7966602244836,0.08413840823722246
8.498222635869707,-1.7452400606337346,8.797501608565973,0.1009529448932757
8.48077023526337,-1.8309298668185028,8.798511138014906,0.11633332782367789
8.462460936595184,-1.9167412129944004,8.799674471293143,0.12993578919459253
8.44329352446524,-2.0025273553394003,8.80097382918509,0.1413873077632457
8.423268250911846,-2.088131588576626,8.802387702262722,0.15028981702164204
8.40238693502608,-2.1733908420195065,8.803890600432938,0.15622539720757908
8.380653026605884,-2.258139703119704,8.805452854405013,0.15876228209021712
8.358071629574686,-2.3422146785652975,8.807040477225915,0.15746143480472688
8.334649482789034,-2.4254584608988656,8.808615091573962,0.15188338488221692
8.310394898180046,-2.507723943763853,8.810133925422784,0.14159498079319555
8.285317658742407,-2.5888777261361695,8.811549875230716,0.12617570619145874
8.259428881481046,-2.6688028672567454,8.81281163229263,0.10522323691844801
8.23274085280848,-2.7474006979069223,8.813863864661815,0.07835797792825261
8.20526684582941,-2.8245915551498433,8.814647444441098,0.04522640778660654
8.177020930277912,-2.900314379049751,8.815099708518964,0.005503162513023484
8.148017786487415,-2.974525182302953,8.815154740144095,-0.041108102472665935
8.118272534664385,-3.0471944687000505,8.814743659119369,-0.09487493608431642
8.087800589977384,-3.118303727274098,8.813794909758526,-0.15603718685814777
8.056617552704642,-3.1878411620532887,8.812234537889944,-0.22480870351963175
8.02473914108411,-3.2557968317788655,8.809986450854748,-0.30137935014702844
7.992181172766322,-3.3221573717393245,8.806972657353278,-0.3859170467875983
7.958959599048929,-3.386900454918778,8.803113486885401,-0.4785695693417467
7.925090594499741,-3.449989126846545,8.798327791191983,-0.579465881007662
7.890590703231275,-3.511366122829116,8.792533132381907,-0.6887168155515099
7.855477042002985,-3.5709482519991025,8.785645964226392,-0.8064149849517221
7.819767559482994,-3.628620913170801,8.777581814376875,-0.932633836767889
7.783481350351286,-3.68423279503534,8.768255476009196,-1.0674258376676697
7.746639022400933,-3.737590808840739,8.75758121763252,-1.210819808086821
7.709263114312526,-3.788455305516109,8.745473019551651,-1.362817479261726
7.671378561257365,-3.8365356405881768,8.731844844759035,-1.5233893887959
7.633013204851483,-3.8814861679841246,8.716610950871075,-1.6924702756865369
7.594198343171642,-3.9229027662245617,8.69968624811421,-1.8699541813968252
7.554969315509396,-3.9603200254773068,8.680986706300242,-2.0556895107167996
7.515366115254623,-3.9932092489621516,8.660429811193074,-2.249474354714525
7.475434022765001,-4.020977444360998,8.637935067645929,-2.4510524270728755
7.435224248321392,-4.042967496886571,8.6134245433752,-2.660110012596304
7.394794573352526,-4.0584597218235015,8.586823443249235,-2.876274369731345
7.354209976134292,-4.066674986752175,8.558060699551922,-3.0991140637432664
7.31354322626677,-4.066779568329081,8.527069558914489,-3.32814172918725
7.272875430583479,-4.057891861747994,8.493788141622616,-3.562819764574051
7.232296511965999,-4.039090989928507,8.458159943976876,-3.8025694437886957
7.191905602066714,-4.00942726254011,8.420134249538988,-4.046783883639362
7.151811329441313,-3.9679343127815097,8.379666410702594,-4.294845231920483
7.112131986313497,-3.9136425960275436,8.336717958383389,-4.546146334462042
7.072995560353222,-3.845593776660862,8.291256495038768,-4.800117003949999
7.034539622586614,-3.7628553703316796,8.243255324999268,-5.056254851124908
6.996911068883297,-3.6645348675785043,8.19269277648802,-5.314160454661553
6.960265720207512,-3.549792468243749,8.139551171941404,-5.5735764423362095
6.924767795525074,-3.4178515421602444,8.083815407518042,-5.83442982862859
6.890589280103472,-3.2680060534714435,8.025471109231756,-6.096876681140841
6.857909219568758,-3.099624521992811,7.964502342420348,-6.361347813685627
6.82691297434883,-2.9121507667597606,7.900888864283491,-6.62859360538184
