th1 (rad),w1 (rad/s),th2 (rad),w2 (rad/s),a1 (rad/s^2),a2 (rad/s^2)
0.8333781616296125,2.5508660462052464,4.306659090132446,-3.077172036911871,-6.396261743082409,5.075667092100383
0.858886822091665,2.4869034287744225,4.2758873697633275,-3.026415365990867,-6.671916421627218,4.14249509457152
0.8837558563794092,2.4201842645581504,4.245623216103419,-2.984990415045152,-6.977899949283084,3.2221865784150157
0.9079576990249907,2.3504052650653193,4.215773311952967,-2.952768549261002,-7.293739813975073,2.3370124037099886
0.9314617516756438,2.277467866925569,4.186245626460357,-2.929398425223902,-7.5987565680127656,1.5102772487775855
0.9542364303448995,2.201480301245441,4.156951642208118,-2.914295652736126,-7.873808657990636,0.7637070028433997
0.9762512333573539,2.122742214665535,4.1278086856807565,-2.906658582707692,-8.102947781645687,0.1150044788348689
0.9974786555040092,2.0417127368490777,4.09874209985368,-2.9055085379193435,-8.274686111080918,-0.42400501922141653
1.0178957828725,1.9589658757382686,4.0696870144744866,-2.9097485881115577,-8.382662712628072,-0.848343039610318
1.0374854416298827,1.875139248611988,4.040589528593371,-2.918232018507661,-8.42563537920673,-1.1598685612820883
1.0562368341160024,1.7908828948199207,4.011407208408294,-2.929830704120482,-8.406870210561575,-1.3664059513365028
1.0741456630642017,1.706814192714305,3.9821089013670896,-2.943494763633847,-8.33311050358407,-1.48028067138247
1.0912138049913447,1.6234830876784643,3.952673953730751,-2.9582975703476717,-8.213353713078286,-1.5165963104728173
1.1074486358681292,1.5413495505476815,3.9230909780272745,-2.9734635334523998,-8.057650475663431,-1.491560239635481
1.122862131373606,1.4607730457910473,3.8933563426927504,-2.9883791358487546,-7.8760823625195995,-1.4210787487363665
1.1374698618315164,1.3820122221658513,3.863472551334263,-3.002589923336118,-7.678001729893064,-1.319735017472549
1.151289984053175,1.3052322048669207,3.8334466521009016,-3.0157872735108437,-7.471550373724826,-1.2001672574449553
1.164342306101844,1.2305167011296725,3.803288779365793,-3.0277889460852934,-7.263426499074029,-1.0727977738900278
1.1766474731131409,1.1578824361389322,3.77301088990494,-3.0385169238241936,-7.058844721594802,-0.9458300079654771
1.1882262974745301,1.0872939889229842,3.742625720666698,-3.0479752239038485,-6.861627696214759,-0.8254238070226354
1.19909923736376,1.0186777119608366,3.71214596842766,-3.0562294619740746,-6.674374037838211,-0.7159694965803363
1.2092860144833684,0.9519339715824544,3.681583673807919,-3.063389156939878,-6.498659159634259,-0.6203995734580393
1.218805354199193,0.8869473799861118,3.6509497822385204,-3.069593152674458,-6.3352388474586485,-0.5404963318708627
1.2276748279990541,0.8235949915115254,3.6202538507117756,-3.074998115993167,-6.18423708676847,-0.47717067345189573
1.2359107779141694,0.7617526206438406,3.589503869551844,-3.0797698227276857,-6.045308710809275,-0.4307002297631435
1.2435283041206078,0.7012995335357479,3.558706171324567,-3.084076825025317,-5.917773719583213,-0.4009236869039116
1.2505412994559653,0.6421217963399158,3.5278654030743137,-3.088086061894356,-5.800724029029091,-0.3873935140510481
1.2569625174193644,0.5841145560496249,3.4969845424553703,-3.0919599970348663,-5.693105530716931,-0.38949205354057087
1.2628036629798607,0.5271835007424556,3.4660649424850214,-3.095854917570272,-5.593779239655931,-0.4065169703868951
1.2680754979872852,0.47124570834589624,3.4351063933093187,-3.099920087274141,-5.501565443560022,-0.43774205727755666
1.2727879550707442,0.416230053910296,3.404107192436577,-3.1042975078469164,-5.415274479178325,-0.4824588312177403
1.276950255609847,0.36207730911851277,3.373064217358108,-3.1091220961590937,-5.333727276841239,-0.5400035589645668
1.2805710287010321,0.3087400363501004,3.341972996396517,-3.1145221317487395,-5.255768273251211,-0.6097735026896769
1.2836584290645332,0.2561823536175883,3.3108277750790296,-3.120619866775636,-5.180272773358037,-0.691235389405753
1.2862202526007092,0.20437962588400793,3.279621576411273,-3.1275322206696936,-5.106150383124377,-0.7839284252356532
1.2882640488595491,0.15331812205276416,3.2483462542045762,-3.13537150492205,-5.032345749663094,-0.8874636122621988
1.2897972300800769,0.10299466455613321,3.2169925391553558,-3.1442461410446723,-4.957837533305225,-1.0015206766226405
1.2908271767256383,0.053416289223080955,3.185550077744909,-3.1542613478108987,-4.881636290419697,-1.1258435681122683
1.2913613396178691,0.004599926318883986,3.1540074642667997,-3.1655197834920212,-4.802781756334399,-1.2602352272857342
1.291407338881058,-0.043427891244460004,3.1223522664318795,-3.1781221357648786,-4.720339874241302,-1.4045521195307735
1.2909730599686136,-0.09063128998687303,3.0905710450742307,-3.1921676569601862,-4.633399809096567,-1.5586988921752025
1.2900667470687448,-0.1369652880778387,3.058649368504629,-3.207754645881938,-4.54107110719416,-1.7226234079634366
1.2886970941879665,-0.1823759991497803,3.0265718220458098,-3.2249808799615725,-4.442481105706337,-1.8963123360709644
1.2868733341964687,-0.22680081020684367,2.994322013246194,-3.243944003322282,-4.33677265683756,-2.079787432133079
1.2846053260944001,-0.2701685367752193,2.961882573212971,-3.264741877643613,-4.223102204336147,-2.2731026051864935
1.281903640726648,-0.3123995588185808,2.929235154436535,-3.2874729036954777,-4.100638232991358,-2.476341846966936
1.278779645138462,-0.35340594114849433,2.89636042539958,-3.312236322165147,-3.9685601023224697,-2.6896180837149735
1.275245585726977,-0.39309154217171904,2.8632380621779285,-3.339132503002297,-3.8260572725896407,-2.913072999291015
1.27131467030526,-0.43135211489761544,2.8298467371479057,-3.368263232995207,-3.67232893382516,-3.1468778682199905
1.2670011491562838,-0.468075404235867,2.7961641048179535,-3.399732011677407,-3.506584056712907,-3.391235425706994
1.2623203951139252,-0.503141244802996,2.7621667847011793,-3.4336443659344766,-3.3280418983777134,-3.646382786059469
1.2572889826658953,-0.5364216637867731,2.7278303410418343,-3.4701081937950713,-3.1359330177332922,-3.912595398354243
1.2519247660280275,-0.5677809939641061,2.6931292591038836,-3.5092341477786135,-2.929500886079707,-4.190191994969468
1.2462469560883864,-0.5970760028249031,2.6580369176260974,-3.5511360677283084,-2.7080042223331198,-4.479540440055956
1.2402761960601374,-0.6241560450482343,2.622525556948814,-3.5959314721288678,-2.4707202432555135,-4.781064314822602
1.234034635609655,-0.6488632474807894,2.5865662422275255,-3.6437421152770937,-2.2169491039380023,-5.095249975970101
1.227546003134847,-0.6710327385201694,2.5501288210747544,-3.6946946150367945,-1.9460199218759726,-5.422653680660984
1.2208356757496455,-0.6904929377389292,2.5131818749243866,-3.7489211518434042,-1.6572989422595688,-5.763908169201578
1.2139307463722562,-0.7070659271615248,2.4756926634059524,-3.80656023353542,-1.3502006306967442,-6.11972781150987
1.206860087100641,-0.7205679334684922,2.4376270610705983,-3.867757511650519,-1.0242027976179002,-6.490911022343461
1.199654407765956,-0.7308099614446713,2.398949485954093,-3.9326666218739534,-0.6788673008191141,-6.878338086843347
1.1923463081515093,-0.7375986344528624,2.3596228197353533,-4.001450002742387,-0.31386848674696444,-7.282961747660134
1.1849703218069807,-0.740737319320332,2.3196083197079296,-4.074279620218988,0.07096761763720158,-7.705786798413135
1.1775629486137773,-0.7400276431439601,2.27886552350574,-4.1513374882031195,0.47560917443459216,-8.147833383088981
1.1701626721823377,-0.7352715513996142,2.2373521486237085,-4.232815822034009,0.8997436605895369,-8.61007655225196
1.1628099566683416,-0.7262741147937188,2.195023990403368,-4.3189165875565285,1.3426742368712814,-9.09335165782889
1.1555472155204045,-0.7128473724250061,2.151834824527803,-4.409850104134818,1.803176365807698,-9.598211105247644
1.1484187417961544,-0.694815608766929,2.1077363234864546,-4.5058322151872945,2.2792997243634123,-10.124712503441378
1.1414705857084853,-0.6720226115232949,2.062678001334582,-4.607079340221708,2.7680953292419694,-10.672111032462606
1.1347503595932522,-0.6443416582308752,2.0166072079323647,-4.7138004505463345,3.265241418002311,-11.238419666363603
1.1283069430109434,-0.6116892440508521,1.9694692034269012,-4.8261846472099705,3.764534244224335,-11.819789894484881
1.1221900505704347,-0.5740439016086087,1.9212073569548016,-4.944382546154819,4.257202511946021,-12.409653828089322
1.1164496115543487,-0.5314718764891485,1.8717635314932535,-5.068479084435713,4.73099915110512,-12.997559036315748
1.1111348927894573,-0.4841618849780973,1.8210787406488964,-5.19845467479887,5.169026821893042,-13.567626844582168
1.1062932739396762,-0.4324716167591669,1.7690941939009077,-5.334130943244691,5.548274226457572,-14.096586567610421
1.1019685577720846,-0.3769888744945912,1.7157528844684609,-5.475096808920796,5.837897243201242,-14.551406495780878
1.0981986690271386,-0.3186099020625788,1.6610019163792529,-5.620610873878604,5.997401098412006,-14.886696666802289
1.0950125700065128,-0.25863589107845875,1.604795807640467,-5.769477840546627,5.975106328958551,-15.042352456707606
1.0924262110957281,-0.19888482778887323,1.5471010292350007,-5.919901365113703,5.707648427572431,-14.942393919930241
1.0904373628178394,-0.14180834351314892,1.4879020155838636,-6.069325304313006,5.1217608505580055,-14.496628894859453
1.089019279382708,-0.09059073500756887,1.4272087625407335,-6.214291593261601,4.1400819141863,-13.6074459166125
1.0881133720326324,-0.04918991586570586,1.3650658466081174,-6.350366052427726,2.692801774617779,-12.184187053273043
1.0876214728739753,-0.02226189811952807,1.30156218608384,-6.4722079229604565,0.7358900105530355,-10.166172240288304
1.08739885389278,-0.014902998013997715,1.2368401068542354,-6.57386964536334,-1.726356384183951,-7.551496910084806
1.08724982391264,-0.032166561855837224,1.1711014104006021,-6.6493846144641875,-4.62144730233067,-4.422438353270789
1.0869281582940817,-0.07838103487914391,1.1046075642559603,-6.693608997996895,-7.802486173855199,-0.9530628679761136
1.0861443479452904,-0.15640589661769588,1.0376714742759914,-6.7031396266766565,-11.065074530993808,2.6132762312934643
1.0845802889791134,-0.26705664192763395,0.9706400780092248,-6.6770068643637215,-14.186938215338834,6.0156319824903735
1.081909722559837,-0.4089260240810223,0.9038700093655876,-6.616850544538818,-16.976218891474065,9.037365027809326
1.0778204623190268,-0.5786882129957629,0.8377015039201994,-6.526476894260725,-19.30787668855875,11.551119768953145
1.0720335801890692,-0.7717669798813505,0.7724367349775921,-6.410965696571194,-21.13484034872749,13.52994136216846
1.0643159103902557,-0.9831153833686254,0.7083270780118802,-6.275666282949509,-22.475343154539555,15.027509931801644
1.0544847565565696,-1.2078688149140209,0.6455704151823851,-6.125391183631493,-23.388264852354073,16.143859584113578
1.0424060684074294,-1.4417514634375617,0.5843165033460702,-5.963952587790357,-23.948841088603235,16.99297477777727
1.0279885537730538,-1.6812398743235941,0.5246769774681667,-5.794022840012584,-24.23150813167869,17.680749019792092
1.0111761550298177,-1.923554955640381,0.4667367490680408,-5.617215349814663,-24.300905289438703,18.294082536155287
0.9919406054734139,-2.166564008534768,0.41056459556989416,-5.4342745244531105,-24.20902554691435,18.898049954051444
0.9702749653880662,-2.4086542640039115,0.3562218503253631,-5.245294024912596,-23.99592006496085,19.537523321210042
0.9461884227480272,-2.6486134646535198,0.30376891007623713,-5.049918791700495,-23.69194668736567,20.24057776084426
0.919702288101492,-2.8855329315271767,0.25326972215923216,-4.847513014092053,-23.32035324747903,21.02215168032624
0.8908469587862202,-3.118736464001967,0.20479459201831163,-4.637291497288791,-22.89960297039893,21.887273292558394
0.8596595941462005,-3.3477324937059563,0.1584216770454237,-4.4184187643632065,-22.44521934833979,22.83364607065045
0.826182269209141,-3.5721846871893543,0.11423748940179164,-4.190082303656702,-21.9711121398573,23.853607288894075
0.7904604223372474,-3.7918958085879275,0.07233666636522462,-3.951546230767761,-21.49041867933055,24.935544107640794
0.7525414642513681,-4.006799995381233,0.032821204057547015,-3.702190789691353,-21.01590860411094,26.06484525079423
0.7124734642975558,-4.216959081422343,-0.004200703839366514,-3.4415423371834106,-20.559985613988093,27.22442465776552
0.6703038734833323,-4.422558937562224,-0.03861612721120062,-3.1692980906057553,-20.134290991142603,28.394795738621845
0.62607828410771,-4.6239018474736495,-0.07030910811725817,-2.8853501332195366,-19.74887484852255,29.55360760565588
0.5798392656329736,-4.821390595958875,-0.09916260944945354,-2.589814057162978,-19.410852383922272,30.674478738753
0.5316253596733849,-5.015499119798098,-0.12506075002108333,-2.283069269775448,-19.122403250753116,31.724879677624642
0.48147036847540386,-5.206723152305629,-0.1478914427188378,-1.9658204729992015,-18.877906760883214,32.66273249431589
0.42940313695234755,-5.395502219914461,-0.16754964744882983,-1.6391931480560427,-18.659952667519093,33.43133989478633
0.37544811475320294,-5.582101746589652,-0.18394157892939025,-1.3048797491081794,-18.43397846968541,33.952307227953995
0.3196270972873064,-5.766441531286506,-0.19699037642047204,-0.9653566768286395,-18.141477450012474,34.116447073197456
0.2619626819744414,-5.9478563057866305,-0.20664394318875845,-0.6241922060966649,-17.692327852531847,33.773588184984106
0.20248411891657508,-6.124779584311949,-0.2128858652497251,-0.2864563242468239,-16.958185351657107,32.72427367305178
0.1412363230734556,-6.29436143782852,-0.21575042849219334,0.04078641248369397,-15.77146109011601,30.720079236235083
0.0782927086951704,-6.452076048729681,-0.2153425643673564,0.3479872048460448,-13.938059242774607,27.48448988665591
0.013771948207873586,-6.591456641157427,-0.21186269231889596,0.6228321037126039,-11.274756571224259,22.769970092819793
-0.05214261820370068,-6.70420420686967,-0.20563437128176992,0.8505318046408018,-7.678155244051977,16.460766757804517
-0.11918466027239738,-6.780985759310189,-0.1971290532353619,1.015139472218847,-3.213337777681204,8.703351756009464
-0.18699451786549925,-6.813119137087002,-0.18697765851317344,1.1021729897789416,1.822850581874175,-0.0019103381226922766
-0.2551257092363693,-6.7948906312682595,-0.17595592861538403,1.1021538863977147,6.929070964145885,-8.843377239075426
-0.32307461554905187,-6.7255999216268005,-0.1649343897514069,1.0137201140069605,11.543857543721408,-16.914261897346133
-0.3903306147653199,-6.610161346189586,-0.1547971886113373,0.8445774950334992,15.240000834305606,-23.50482440822697
-0.45643222822721574,-6.45776133784653,-0.1463514136610023,0.6095292509512296,17.847432248041123,-28.29211208014491
-0.5210098416056811,-6.279287015366119,-0.14025612115149,0.32660813014978046,19.442191770091735,-31.332610465563466
-0.5838027117593423,-6.084865097665202,-0.1369900398499922,0.01328202549414581,20.244804637209093,-32.91754940490531
-0.6446513627359943,-5.882417051293111,-0.13685721959505073,-0.3158934685549073,20.51116350769493,-33.41168904252727
-0.7034755332489254,-5.677305416216162,-0.1400161542805998,-0.65001035898018,20.46426773673825,-33.14852145375238
-0.760248587411087,-5.472662738848779,-0.1465162578704016,-0.9814955735177038,20.269496811547693,-32.38857609479509
-0.8149752147995748,-5.269967770733302,-0.15633121360557864,-1.3053813344656546,20.036263955848924,-31.317381398786438
-0.8676748925069078,-5.069605131174813,-0.1693850269502352,-1.618555148453519,19.829892232611854,-30.059847052994265
-0.9183709438186559,-4.8713062088486945,-0.18557057843477037,-1.9191536189834617,19.684631497266146,-28.69751517401513
-0.9670840059071428,-4.674459893876033,-0.204762114624605,-2.206128770723613,19.614330194866664,-27.28314742143797
-1.013828604845903,-4.478316591927367,-0.22682340233184112,-2.478960244937993,19.62015738090671,-25.851399381643073
-1.0586117707651768,-4.2821150181183,-0.25161300478122106,-2.7374742387544235,19.695841534891077,-24.42602688817129
-1.1014329209463598,-4.0851566027693895,-0.2789877471687653,-2.9817345076361366,19.831105233721733,-23.02448915572248
-1.1422844869740536,-3.8868455504321724,-0.30880509224512664,-3.2119793991933614,20.013878620168686,-21.66074861405642
-1.1811529424783753,-3.6867067642304856,-0.34092488623706024,-3.4285868853339254,20.23171312220524,-20.346877241956218
-1.2180200101206802,-3.4843896330084334,-0.3752107550903995,-3.6320556577534875,20.47267483683753,-19.093896442762365
-1.2528639064507645,-3.279662884640058,-0.41153131166793433,-3.822994622181111,20.72589291443762,-17.912136312098525
-1.285660535297165,-3.072403955495682,-0.4497612578897454,-4.002115985302097,20.981868130744196,-16.811299650004536
-1.316384574852122,-2.8625852741882403,-0.4897824177427664,-4.170228981802142,21.232601447463473,-15.800346237318761
-1.3450104275940042,-2.6502592597136054,-0.5314847075607878,-4.328232444175329,21.471573230620173,-14.887263609403831
-1.3715130201911403,-2.4355435274074035,-0.5747670320025411,-4.477105080269368,21.69358439000723,-14.078753945793233
-1.3958684554652143,-2.218607683507331,-0.6195380828052348,-4.6178926197273,21.894456370634416,-13.379837187553807
-1.4180545323002876,-1.999663119800987,-0.6657170090025079,-4.751690991602838,22.070574525882577,-12.793344383587502
-1.4380511634982973,-1.7789573745421614,-0.7132339189185363,-4.879624435438713,22.21824710460646,-12.319250405678705
-1.455840737243719,-1.556774903496097,-0.7620301632729234,-5.0028169394955,22.33283956662286,-11.953771204811884
-1.47140848627868,-1.3334465078298683,-0.8120583326678784,-5.122354651543619,22.40763318744804,-11.688130239151574
-1.4847429513569788,-1.1093701759553878,-0.8632818791833146,-5.239235953935134,22.432353983982996,-11.506889467391305
-1.4958366531165326,-0.8850466361155578,-0.915674238722666,-5.354304848609047,22.39133617781731,-11.385760057090328
-1.504687119477688,-0.6611332743373847,-0.9692172872087564,-5.4681624491799505,22.261348926624123,-11.28889093462694
-1.511298452221062,-0.4385197850711434,-1.023898911700556,-5.58105135852622,22.009268000972813,-11.165837642133187
-1.5156836500717734,-0.21842710506141527,-1.0797094252858181,-5.6927097349475515,21.59007416026123,-10.948822233668224
-1.5178679211223876,-0.0025263634588029438,-1.1366365226352937,-5.802197957284234,20.94616195744451,-10.551587175291713
-1.5178931847569757,0.20693525611564215,-1.194658502208136,-5.907713829037151,20.009627460824564,-9.872104742114646
-1.5158238321958193,0.40703153072388776,-1.2537356404985074,-6.0064348764582975,18.709825214446663,-8.802302004263765
-1.5117535168885805,0.5941297828683544,-1.3137999892630903,-6.094457896500935,16.988361276145397,-7.247870956661573
-1.505812219059897,0.7640133956298083,-1.3747445682280997,-6.166936606067551,14.821669135585335,-5.158565402113617
-1.498172085103599,0.9122300869856617,-1.4364139342887752,-6.218522260088687,12.246487276007892,-2.5628546444835467
-1.4890497842337422,1.0346949597457407,-1.498599156889662,-6.244150806533522,9.3771266843017,0.40799438609252736
-1.478702834636285,1.1284662265887577,-1.5610406649549973,-6.240070862672597,6.40044691564696,3.5255039847413263
-1.4674181723703974,1.1924706957452273,-1.6234413735817232,-6.204815822825183,3.541507175161643,6.508897926455812
-1.4554934654129452,1.2278857674968437,-1.6854895318099752,-6.139726843560625,1.0097124934975819,9.096206121501938
-1.4432146077379768,1.2379828924318195,-1.7468868002455815,-6.048764782345606,-1.0503328261077205,11.1090167255696
-1.4308347788136586,1.2274795641707423,-1.8073744480690377,-5.93767461508991,-2.5812490472868204,12.481464035550543
-1.418559983171951,1.201667073697874,-1.8667511942199368,-5.812859974734405,-3.604082718163658,13.247791107764494
-1.4065433124349724,1.1656262465162375,-1.9248797939672808,-5.68038206365676,-4.190629517596631,13.505362266542473
-1.39488704996981,1.1237199513402711,-1.9816836146038483,-5.545328440991335,-4.433428262691038,13.375291068160996
-1.3836498504564074,1.0793856687133607,-2.0371368990137615,-5.411575530309725,-4.423744541115217,12.974183272424728
