th1 (rad),w1 (rad/s),th2 (rad),w2 (rad/s)
5.654460091036761,1.3716144832103394,2.7976707364697555,0.40996193318685153
5.668176235868864,1.453322613914593,2.801770355801624,0.4606207193240171
5.68270946200801,1.5339642590370073,2.8063765629948643,0.5113021286866969
5.69804910459838,1.6134070534483982,2.8114895842817313,0.5618957340628239
5.714183175132864,1.6915094137794533,2.8171085416223596,0.6122730865001513
5.7310982692706585,1.7681207447292446,2.823231272487361,0.6622878515972984
5.748779476717951,1.843081792576534,2.829854151003334,0.7117761860983924
5.767210294643717,1.9162251535207888,2.836971912864318,0.7605573720231098
5.786372546178924,1.9873759419364254,2.8445774865845492,0.80843472176987
5.806246305598289,2.056352620691084,2.852661833802248,0.8551967630107014
5.8268098318052,2.1229679924391363,2.861213801432355,0.9006187068473192
5.848039511729591,2.1870303473590242,2.870219988500828,0.9444641967575754
5.869909815203181,2.2483447592773453,2.8796646304684037,0.986487329505504
5.892393262795955,2.3067145186425457,2.889529503763459,1.0264349326212387
5.915460407982381,2.361942687505465,2.899793853089671,1.0640490765006412
5.939079834857435,2.413833758652496,2.9104343438546776,1.0990697928533644
5.96321817244396,2.4621953984214953,2.9214250417832113,1.13123796535607
5.987840126428175,2.5068402505868135,2.932737421436772,1.1602983531337072
6.012908528934043,2.5475877770729705,2.9443404049681092,1.1860027032493154
6.038384406704773,2.584266110158068,2.9562004320006023,1.2081129048411625
6.064227067806353,2.6167138902370324,2.968281561049014,1.2264041349677888
6.090394206708724,2.644782063082142,2.980545602398692,1.2406679446243662
6.116842027339545,2.6683356107945033,2.9929522818449357,1.2507152327571793
6.14352538344749,2.687255191205378,3.0054594341725074,1.2563790563792205
6.170397935359544,2.701438661281953,3.0180232247362997,1.2575172260174625
6.197412321972363,2.710802461052767,3.0305983969964743,1.2540146376409993
6.224520346582891,2.715282835651725,3.0431385433728844,1.245785294883294
6.251673174939409,2.7148368742764872,3.055596396321717,1.2327739787608691
6.278821543682174,2.7094433461933867,3.0679241361093257,1.2149575262155832
6.305915977144108,2.6991033154598445,3.0800737113714813,1.1923456837092714
6.332907010298706,2.6838405178706655,3.091997168208574,1.164981507842259
6.359745415477413,2.663701485882364,3.1036469832869966,1.1329412916241948
6.386382430336236,2.6387554100522923,3.1149763962032386,1.0963340026589112
6.412769984436759,2.6090937289583214,3.1259397362298276,1.0553002281417798
6.4388609217263415,2.5748294437208954,3.1364927385112455,1.010010631175775
6.46460921616355,2.5360961581629216,3.146592844823003,0.9606639333760789
6.48997017774518,2.493046851277829,3.156199484156764,0.9074844498382055
6.514900646257958,2.4458523949173485,3.165274328655146,0.8507192139698796
6.539359170207132,2.394699836260673,3.1737815207948445,0.7906347410083246
6.5633061685697385,2.3397904714103928,3.1816878682049277,0.7275134897535585
6.586704073283842,2.281337743039363,3.1889630031024634,0.6616500915828696
6.609517450714236,2.219565001008321,3.195579504018292,0.5933474235995236
6.631713100724319,2.1547031698998684,3.201512978254287,0.5229126082776386
6.653260132423318,2.086988371110391,3.2067421043370636,0.45065302475534463
6.674130016134422,2.0166595492101096,3.211248634584617,0.37687241670104565
6.694296611626523,1.9439561525192661,3.2150173587516275,0.30186717831278986
6.713736173151716,1.8691159161697806,3.2180360305347553,0.22592289358889023
6.732427332313414,1.792372792370575,3.220295259470644,0.14931119481231858
6.7503510602371195,1.7139550673442505,3.2217883714187674,0.07228699468997643
6.767490610910562,1.6340836977407842,3.2225112413656674,-0.004913866603451264
6.7838314478879695,1.552970891637743,3.222462102699633,-0.08207653239624768
6.799361156804347,1.470818950939365,3.2216413373756705,-0.15900858582079364
6.81406934631374,1.3878193835402588,3.2200512515174626,-0.23554105265853317
6.827947540149143,1.3041522854562566,3.2176958409908774,-0.3115289646925304
6.840989063003706,1.2199859856268744,3.214580551343952,-0.38685150860749073
6.8531889228599745,1.1354769395668647,3.210712036257877,-0.46141179450263464
6.864543692255643,1.0507698527034601,3.206097918312851,-0.535136284843878
6.875051390782678,0.9659980101998916,3.200746555464412,-0.6079739291236518
6.884711370884677,0.8812837873609757,3.1946668161731755,-0.679895051707021
6.893524208758286,0.7967393132882384,3.1878678656561052,-0.7508900405252794
6.901491601891169,0.7124672601803292,3.1803589652508526,-0.8209678827210379
6.908616274492973,0.6285617313933041,3.1721492864236422,-0.8901545903913672
6.914901891806906,0.5451092228913272,3.163247740519729,-0.9584915555772744
6.920352984035819,0.4621896348282348,3.153662824963956,-1.0260338689615356
6.924974880384101,0.37987731250584295,3.143402486274341,-1.092848631688071
6.92877365350916,0.2982420986734705,3.13247399995746,-1.15901328458826
6.931756074495895,0.21735038190604225,3.1208838671115773,-1.2246139741265718
6.933929578314955,0.1372661284941829,3.1086377273703114,-1.2897439697406823
6.9353022395998964,0.05805188779667145,3.0957402876729048,-1.3545021430798774
6.935882758477863,-0.020230236730802584,3.082195266242106,-1.418991516023675
6.935680456110555,-0.09751765665538321,3.0680053510818692,-1.4833178813340582
6.934705279544001,-0.1737464120282179,3.0531721722685288,-1.5475884973711311
6.932967815423719,-0.2488503320865551,3.0376962872948177,-1.611910856470216
6.930479312102854,-0.32276024513625606,3.0215771787301153,-1.676391525307652
6.927251709651491,-0.3954032389119651,3.004813263477039,-1.7411350548305509
6.923297677262371,-0.4667019723645187,2.9874019129287332,-1.806242957043848
6.918630657538726,-0.5365740397437221,2.969339483358295,-1.871812746084988
6.913264917141289,-0.6049313879976398,2.9506213558974452,-1.937937041521625
6.907215603261313,-0.6716797888630444,2.931241985482229,-2.004702732631959
6.900498805372682,-0.7367183675400211,2.9111949581559093,-2.0721902035248476
6.8931316216972816,-0.7999391904898053,2.890473056120661,-2.1404726202847106
6.885132229792384,-0.8612269156298141,2.869068329917814,-2.209615282844124
6.876519960636085,-0.9204585089822814,2.8469721770893726,-2.27967504595612
6.867315375546262,-0.9775030326186064,2.8241754266298114,-2.3506998154201857
6.857540345220076,-1.03222150948224,2.8006684284756096,-2.4227281275713777
6.8472181301252535,-1.084466871315749,2.776441147199896,-2.4957888219288593
6.836373461412096,-1.134083996404288,2.7514832589806075,-2.5699008187727395
6.825032621448053,-1.1809098441140164,2.7257842507928802,-2.6450730152254547
6.813223523006913,-1.224773693180206,2.6993335206406255,-2.721304315099515
6.800975786075111,-1.2654974903109237,2.6721204774896306,-2.798583809274743
6.788320811172002,-1.3028963148394503,2.644134639396883,-2.876891124617554
6.775291848023608,-1.3367789638014955,2.6153657281507074,-2.9561969603811953
6.761924058385593,-1.3669486598527747,2.5858037585468954,-3.036463831557617
6.748254571787065,-1.393203881805237,2.5554391202313194,-3.1176470387210506
6.734322532969013,-1.4153393141836585,2.524262649844109,-3.199695883452713
6.720169139827176,-1.433146908042903,2.4922656910095817,-3.282555147425223
6.705837670746747,-1.4464170403180747,2.4594401395353294,-3.366166851641124
6.691373500343566,-1.4549397532138268,2.4257784710189183,-3.4504723101866794
6.676824102811428,-1.4585060486209558,2.3912737479170514,-3.5354144902532356
6.6622390423252185,-1.4569092053658852,2.355919603014519,-3.6209406872278893
6.64766995027156,-1.4499460793840948,2.31971019614224,-3.7070055205685115
6.633170489477719,-1.4374183388383306,2.2826401409365547,-3.7935742532412493
6.618796306089335,-1.419133577991668,2.244704398404142,-3.8806264350833746
6.604604970309418,-1.3949062455379433,2.2058981340533084,-3.968159869019593
6.590655907854038,-1.3645583153446381,2.1662165353631124,-4.0561948991463455
6.577010324700591,-1.327919620426352,2.125654586371649,-4.144779021916205
6.563731128496328,-1.28482776466201,2.084206796152487,-4.233991826661523
6.550882850849708,-1.2351275214680606,2.0418668778858717,-4.323950280167983
6.538531575635027,-1.1786696244532517,1.9986273750841919,-4.414814382591703
6.5267448793904945,-1.1153088520620698,1.9544792312582748,-4.506793239263037
6.515591790869874,-1.0449013064009387,1.9094112988656444,-4.600151615204686
6.505142777805864,-0.9673007859530086,1.8634097827135976,-4.695217066544465
6.495469769946334,-0.8823541531213408,1.816457612048153,-4.79238777487666
6.486646228415121,-0.7898956015329651,1.7685337342993863,-4.892141245469078
6.478747272399791,-0.6897397370990533,1.7196123218446955,-4.995044064724407
6.4718498750288,-0.5816734056517125,1.6696618811974515,-5.101762940103122
6.466033140972283,-0.4654462375564784,1.6186442517964204,-5.213077254957165
6.461378678596718,-0.34075995265603914,1.5665134792468487,-5.329893339832701
6.457971079070158,-0.20725660732563123,1.5132145458485218,-5.453260551810138
6.455898512996902,-0.06450622311921761,1.4586819403304203,-5.584388994284552
6.45525345076571,0.08800529096469323,1.4028380503875748,-5.724668175518066
6.456133503675357,0.250886154049793,1.3455913686323941,-5.875684870206989
6.458642365215855,0.42484335966137476,1.2868345199303242,-6.039236512588618
6.462890798812468,0.6106759031855443,1.226442154804438,-6.217332900885974
6.4689975578443235,0.8092456941989522,1.1642688257955782,-6.412172589132646
6.477090014786313,1.0214067962821505,1.1001470999042517,-6.626068976029776
6.487304082749135,1.2478591756854998,1.033886410143954,-6.861281393778409
6.4997826745059895,1.4888693806886912,0.9652735962061699,-7.119673679466066
6.514671368312876,1.7437645006604736,0.8940768594115093,-7.4020721171949635
6.532109013319481,2.0100600975151135,0.8200561382395597,-7.707129037889561
6.552209614294632,2.282053305430913,0.7429848478606641,-8.029451552993391
6.575030147348941,2.5487898134950444,0.6626903323307302,-8.356849965785452
6.600518045483891,2.791720128022808,0.5791218326728756,-8.667102633782392
6.62843524676412,2.9834251737508897,0.4924508063350517,-8.926081146306023
6.658269498501629,3.0903961455748514,0.4031899948719915,-9.091283224507782
6.689173459957377,3.0829424559250196,0.31227716262691363,-9.124967128110866
6.720002884516628,2.949908683970674,0.22102749134580496,-9.013731494113335
6.7495019713563345,2.70694814068207,0.1308901764046716,-8.779257990954111
6.7765714527631555,2.3888817643685143,0.04309759649513048,-8.467587796430672
6.800460270406841,2.0328727670745943,-0.04157828146917625,-8.126450230628436
6.820788998077587,1.66670647760125,-0.12284278377546061,-7.790006145844546
6.837456062853599,1.306631124489492,-0.20074284523390606,-7.476598038422987
6.850522374098494,0.9602935131030981,-0.27550882561813594,-7.193132504014962
6.860125309229526,0.6302945511919779,-0.3474401506582856,-6.940026776132642
6.866428254741446,0.31671815396882236,-0.416840418419612,-6.714611034512638
6.869595436281134,0.01859381232443791,-0.48398652876473836,-6.513032953820321
6.869781374404378,-0.26534923189272747,-0.5491168583029415,-6.331200263797139
6.867127882085451,-0.5363270325568328,-0.612428860940913,-6.165198856619568
6.861764611759883,-0.7953534493820762,-0.6740808495071087,-6.011450103182292
6.853811077266062,-1.0431952330369916,-0.7341953505389316,-5.8667479583207305
6.843379124935693,-1.2803756878780783,-0.7928628301221389,-5.728246085047769
6.830575368056912,-1.5072000752997121,-0.8501452909726166,-5.593428408454097
6.815503367303915,-1.723789767012914,-0.9060795750571575,-5.460078058393602
6.798265469633786,-1.9301190136533097,-0.9606803556410936,-5.32625065355275
6.778964279497253,-2.1260514930569925,-1.013942862176621,-5.1902535873487485
6.757703764566683,-2.3113753255825205,-1.0658453980501086,-5.050631003373414
6.734590011310858,-2.48583589930503,-1.1163517080838428,-4.906153309745799
6.709731652317807,-2.6491660967721358,-1.1654132411813007,-4.755809799039394
6.683239991350086,-2.801113590876543,-1.2129713391716948,-4.598802933091622
6.655228855441321,-2.9414648973798454,-1.258959368502611,-4.434542984230186
6.625814206467522,-3.070065892008323,-1.3033047983449129,-4.262641929051132
6.595113547547439,-3.186838544493509,-1.3459312176354241,-4.0829057321276325
6.563245162102504,-3.291793696202228,-1.3867602749567005,-3.8953244131328044
6.530327225140482,-3.385039808111245,-1.4257135190880286,-3.7000595462220587
6.49647682705937,-3.4667877230141078,-1.4627141145502491,-3.497429082724776
6.461808949829229,-3.5373516094836805,-1.4976884053774968,-3.287889607165752
6.426435433734392,-3.597146375045543,-1.5305673014491543,-3.0720163245613015
6.390463969983936,-3.646681943535119,-1.5612874646947674,-2.850481228292418
6.353997150548585,-3.6865548800507844,-1.5897922769776915,-2.6240300093116713
6.317131601748077,-3.7174379117486556,-1.6160325770708082,-2.3934583376034193
6.279957222630591,-3.7400679313868497,-1.6399671604468424,-2.1595881759937536
6.242556543316723,-3.7552330821478668,-1.66156304220678,-1.9232447764324385
6.205004212495244,-3.763759507430613,-1.6807954899711044,-1.6852349630778303
6.167366617420938,-3.7664983098681257,-1.6976478396018826,-1.4463272297967305
6.129701634322257,-3.764313202790328,-1.71211111189985,-1.2072340785293258
6.092058502294353,-3.758069258676194,-1.7241834526851432,-0.9685969073541529
6.054477809707591,-3.7486230674790946,-1.7338694217586847,-0.7309736322219595
6.0169915790328,-3.7368145179785084,-1.7411791580809044,-0.4948291041457041
5.979623433853015,-3.723460312111741,-1.7461274491223615,-0.26052827423274294
5.942388830731898,-3.709349219163395,-1.748732731864689,-0.0283319720798777
5.905295338540264,-3.6952389755621837,-1.7490160515854878,0.2016048921038065
5.868342948784642,-3.6818546361167286,-1.7470000026644497,0.429232905934551
5.831524402423475,-3.6698880796789264,-1.7427076736051041,0.6546056830870068
5.794825521626685,-3.659998257973895,-1.736161616774234,0.8778754146853097
5.758225539046946,-3.6528116366631758,-1.7273828626273808,1.0992863452074226
5.721697422680315,-3.648922091476689,-1.7163899991753067,1.3191658034492773
5.685208201765548,-3.648889259113292,-1.7031983411408138,1.5379120154931019
5.648719309174415,-3.653233960547226,-1.6878192209858829,1.7559773404475085
5.612186969568943,-3.662428757625822,-1.6702594475814079,1.9738447316444416
5.575562681992684,-3.676880903603,-1.6505210002649635,2.1919940473828334
5.538793872956655,-3.6969038320371825,-1.6286010597911351,2.4108532207949342
5.501824834636283,-3.7226718513191743,-1.6044925275831858,2.6307271887821346
5.464598116123091,-3.7541509367865227,-1.5781852556953644,2.8516949636152904
5.427056606755226,-3.7909967894855816,-1.5496683060592116,3.073462794057832
5.38914663886037,-3.83241065812247,-1.5189336781186333,3.2951603909241483
5.350822532279145,-3.8769460668878244,-1.4859820742093919,3.515070837156102
5.312053071610267,-3.9222699295570322,-1.450831365837831,3.7302991475446374
5.272830372314696,-3.9649064671123897,-1.4135283743623845,3.936419098586163
5.233181307643572,-4.00003927712317,-1.374164183376523,4.127203183616609
5.1931809148723405,-4.021514831889657,-1.332892151540357,4.294634863196909
5.152965766553444,-4.022250423388012,-1.289945802908388,4.429484727117271
5.112743262319563,-3.9952225403422315,-1.2456509556372153,4.522692821776344
5.072791036916141,-3.9349931576890187,-1.2004240274194518,4.567492304504308
5.033441105339251,-3.8393213413345166,-1.1547491043744087,4.561636339261394
4.995047891925906,-3.710078856595591,-1.1091327409817948,4.508634938739512
4.95794710335995,-3.552869070614907,-1.0640463915943996,4.417169736235698
4.9224184126538,-3.3754801104455763,-1.0198746942320427,4.298884964798662
4.888663611549345,-3.18597807094495,-0.976885844584056,4.165694752574636
4.856803830839895,-2.991269232687812,-0.9352288970583097,4.027769098672225
4.826891138513017,-2.7964591610644494,-0.8949512060715874,3.892650465552502
4.798926546902372,-2.60485862533971,-0.8560247014160624,3.765281577990385
4.772877960648975,-2.4183198845297484,-0.8183718856361585,3.648494826375426
4.7486947618036774,-2.237651117459994,-0.7818869373724042,3.543607299490629
4.7263182506290775,-2.0629794141922484,-0.746450864377498,3.4509396211486547
4.705688456487155,-1.8940228096557852,-0.7119414681660114,3.370203901010907
4.686748228390597,-1.730276338023482,-0.6782394291559024,3.300768620724011
4.669445465010362,-1.5711316335324745,-0.6452317429486623,3.24182852343018
4.653734148675038,-1.4159501305268327,-0.6128134577143605,3.1925081215390843
4.639574647369769,-1.2641057854320623,-0.5808883764989696,3.1519214896587213
4.626933589515448,-1.1150086065212108,-0.5493691616023824,3.1192043982054947
4.615783503450236,-0.9681165079583343,-0.5181771176203274,3.09352948698329
4.606102338370652,-0.8229403048467557,-0.4872418227504945,3.074111349135301
4.597872935322185,-0.6790448535926488,-0.4565007092591415,3.0602058297513683
4.5910824867862585,-0.5360481693778277,-0.4258986509616278,3.0511061869120866
4.58572200509248,-0.3936196108685043,-0.39538758909250693,3.0461377189286796
4.581785808983795,-0.2514777598174441,-0.3649262119032201,3.0446518147775596
4.57927103138562,-0.10938833756380997,-0.3344796937554445,3.046019989975469
4.578177148009981,0.03283767486785669,-0.3040194938556898,3.049628232997693
4.5785055247586595,0.17534565348357464,-0.2735232115257129,3.0548718477422314
4.580258981293495,0.31823869054131215,-0.24297449304829058,3.061150897699399
4.583441368198908,0.4615787416813323,-0.21236298407129658,3.067866313746001
4.588057155615721,0.6053876304522243,-0.18168432093383657,3.074416705043441
4.594111031920243,0.7496479941371408,-0.15094015388340215,3.0801959020779335
4.601607511861615,0.8943042630247244,-0.12013819486262281,3.0845912565437814
4.610550554491862,1.0392637692793403,-0.089292282297185,3.0869827207556373
4.620943192184655,1.1843980823452487,-0.05842245508962862,3.0867427271218957
4.632787173008108,1.3295446657989425,-0.027555027818409666,3.0832368842998723
4.646082619666097,1.474508945849711,0.0032773410245890595,3.0758254999230865
4.660827709124594,1.619066874230238,0.034035596023819926,3.0638659295734807
4.677018377866896,1.7629680579236722,0.06467425531955473,3.0467157375979985
4.694648058446133,1.9059395149853668,0.09514141269553472,3.0237366373181205
4.713707453595987,2.0476900996732645,0.12537877906871592,2.9942991562485206
4.73418435459272,2.1879156213665185,0.15532177063120112,2.95778794642041
4.756063510806385,2.3263046606440283,0.1848996500954052,2.9136076312734733
4.779326557412825,2.462545062891582,0.21403572640813995,2.8611890494875842
4.803952008041741,2.596331065553896,0.24264761690301578,2.7999957233895274
4.82991531869728,2.727370990463175,0.27064757413691104,2.729530346178076
4.857189028601912,2.8553954085557924,0.2979428775986918,2.649341049329825
4.88574298268747,2.9801656619237673,0.32443628809199004,2.559027180538246
4.915544639306708,3.101482608940655,0.3500265598973725,2.4582442949615673
4.946559465396114,3.219195443781971,0.37460900284698817,2.3467080401609777
4.978751419833934,3.33321043388429,0.39807608324859795,2.2241965997776774
5.012083524172777,3.4434994198009514,0.4203180492463747,2.0905513546043397
5.046518518370786,3.5501079336638317,0.44122356279241814,1.945675423919268
5.082019597707425,3.65316281714245,0.46068031703161083,1.7895297659222784
5.118551225878849,3.752879259210439,0.4785756146908336,1.622126544120574
5.156080018470953,3.849567229408668,0.4947968801320393,1.4435195056168701
5.194575690765039,3.943637353928365,0.509232075188208,1.2537911650446358
5.234012064304323,4.035606368710375,0.5217699868386544,1.0530366405375948
5.274368127991426,4.126102383112031,0.5323003532440304,0.8413440408420634
5.315629151822547,4.215870294464535,0.540713793652451,0.6187713510256264
5.357787854767192,4.305777799700506,0.5469015071627072,0.3853198064561706
5.400845632764197,4.396822541715081,0.550754705227269,0.1409037859927528
5.444813858181348,4.490140982849897,0.5521637430871965,-0.1146826849922217
