th1 (rad),w1 (rad/s),th2 (rad),w2 (rad/s),a1 (rad/s^2),a2 (rad/s^2)
6.137853725777908,3.079341838650336,5.113437364787637,-1.0019584407704705,-3.998211868216814,19.201674894725382
6.168647144164411,3.039359719968168,5.103417780379932,-0.8099416918232166,-3.758811218336316,18.962747073510393
6.199040741364093,3.001771607784805,5.0953183634617,-0.6203142210881127,-3.567716881453266,18.742182447010226
6.2290584574419405,2.966094438970272,5.089115221250818,-0.4328923966180105,-3.425965389520086,18.537296929086597
6.258719401831644,2.9318347850750714,5.084786297284638,-0.24751942732714452,-3.333832276948823,18.344486650473225
6.2880377496823945,2.8984964623055833,5.082311103011366,-0.06407456082241225,-3.2911054083035847,18.1596838332101
6.31702271430545,2.8655854082225476,5.0816703574031425,0.11752227750968874,-3.297249173082802,17.97866977644835
6.345678568387675,2.8326129164917195,5.0828455801782395,0.2973089752741722,-3.3514961776939587,17.797293434939757
6.374004697552592,2.79909795471478,5.0858186699309815,0.47528190962356975,-3.4528917391401763,17.611628118426264
6.401995677099739,2.764569037323378,5.090571489027218,0.6513981908078323,-3.600308648847626,17.418087704103396
6.429641367472973,2.7285659508349016,5.097085470935296,0.8255790678488664,-3.7924443384400393,17.21351610338228
6.456927026981322,2.690641507450501,5.105341261613785,0.9977142288826891,-4.027808970958267,16.995258525744795
6.483833442055827,2.6503634177409183,5.115318403902612,1.1676668141401372,-4.304710538363563,16.761219588166412
6.510337076233236,2.6073163123572827,5.126995072044013,1.3352790100218013,-4.621241373552886,16.509911005701287
6.536410239356809,2.561103898621754,5.140347862144232,1.5003781200788142,-4.9752693109582395,16.24049010979753
6.5620212783430265,2.5113512055121716,5.1553516433450195,1.6627830211767896,-5.36443587104228,15.952789533302646
6.5871347903981485,2.4577068468017487,5.171979473556787,1.822310916509816,-5.786163179547916,15.647337910387003
6.611711858866166,2.3998452150062697,5.190202582721885,1.978784295613686,-6.237670784108418,15.325371252724818
6.635710311016229,2.3374685071651857,5.209990425678022,2.1320380081409342,-6.716003050435473,14.98883470061215
6.659084996087881,2.270308476660831,5.231310805759431,2.2819263551470557,-7.218067380076955,14.640374550901798
6.6817880808544885,2.198127802860061,5.254130069310902,2.4283301006560736,-7.740683078328233,14.28332078744601
6.703769358883089,2.1207209720767786,5.2784133703174625,2.571163308530534,-8.28064031087433,13.92166074656904
6.724976568603856,2.037914568968035,5.304125003402768,2.7103799159962243,-8.834768224362163,13.560005006238963
6.745355714293536,1.9495668867244136,5.33122880256273,2.845979966058614,-9.400010976485046,13.203547060495906
6.764851383160781,1.8555667769595632,5.359688602223317,2.978015436663573,-9.973510133654624,12.85801879664109
6.783407050930376,1.755831675623017,5.389468756589952,3.1065956246299837,-10.552691655386967,12.529644194769228
6.800965367686606,1.6503047590691473,5.420534712836252,3.231892066577676,-11.13535549467398,12.22509397468961
6.817468415277298,1.5389512041224076,5.452853633502029,3.354143006324572,-11.719765691999056,11.951444071777711
6.832857927318522,1.421753547202417,5.486395063565275,3.473657447042349,-12.30473869738622,11.716140762574495
6.847075462790547,1.2987061602285548,5.5211316380356985,3.590818854668094,-12.889727459954592,11.526974887939554
6.860062524392832,1.169808885629009,5.557039826582379,3.7060886035474896,-13.474898471446938,11.392066795483908
6.871760613249123,1.0350599009145396,5.594100712617854,3.820009271502329,-14.061198261194022,11.319862125069333
6.882111212258268,0.8944479183025994,5.632300805332877,3.933207892753022,-14.650404526206788,11.319136040322979
6.891055691441294,0.7479438730405314,5.671632884260407,4.046399253156252,-15.245154678889953,11.398999392277819
6.898535130171699,0.5954923262516318,5.7120968767919695,4.16038924707903,-15.848940367836112,11.568893646418076
6.904490053434215,0.4370029225732707,5.7537007692627595,4.27607818354321,-16.466049296233617,11.8385506637386
6.908860082659948,0.2723424296109346,5.796461551098192,4.394463690180596,-17.101423550034877,12.21787607050318
6.911583506956057,0.1013281941105858,5.840406187999998,4.516642450885628,-17.760383677691635,12.716686890658933
6.9125967888971624,-0.07627564266633055,5.885572612508854,4.643809319792218,-18.44813528087802,13.344188855513762
6.911834032470499,-0.2607569954751108,5.932010705706777,4.777251208347355,-19.16892280851,14.108006348249353
6.909226462515748,-0.4524462235602108,5.97978321779025,4.918331271829849,-19.924613434954882,15.012463723561353
6.904702000280146,-0.6516923579097597,6.028966530508549,5.068455909065462,-20.7123693983131,16.055641819527118
6.898185076701049,-0.8588160518928907,6.079651089599204,5.229012327260733,-21.52088815257423,17.22447956335262
6.88959691618212,-1.074024933418633,6.131941212871811,5.401257122894259,-22.324459918234417,18.486859520336054
6.878856666847933,-1.297269532600977,6.185953784100754,5.58612571809762,-23.07387229038907,19.779286543808563
6.8658839715219235,-1.5280082555048677,6.24181504128173,5.783918583535705,-23.683199428575097,20.988734731950128
6.850603888966875,-1.7648402497906188,6.299654227117087,5.993805930855206,-24.01233158874256,21.92829952383389
6.832955486468968,-2.0049635656780445,6.359592286425639,6.213088926093545,-23.847992648399007,22.310201165433543
6.812905850812188,-2.2434434921620348,6.421723175686575,6.43619093774788,-22.893013427343586,21.729321890781584
6.7904714158905675,-2.4723736264354708,6.486085085064054,6.653484156655696,-20.786185442064937,19.68786694609
6.765747679626212,-2.68023548085612,6.55261992663061,6.850362826116596,-17.187895127342287,15.70984947204843
6.738945324817651,-2.8521144321295426,6.621123554891776,7.007461320837081,-11.956816833550551,9.581014596977582
6.710424180496355,-2.9716826004650483,6.691198168100147,7.103271466806857,-5.371432803041131,1.6517088349692792
6.680707354491705,-3.0253969284954594,6.762230882768216,7.11978855515655,1.7733831688439199,-7.029991640214098
6.650453385206751,-3.00766309680702,6.833428768319781,7.049488638754409,8.38438671734727,-15.014773585617174
6.620376754238681,-2.9238192296335472,6.903923654707325,6.899340902898237,13.541236030190678,-21.092168012250475
6.591138561942345,-2.7884068693316406,6.972917063736307,6.688419222775732,16.86090679080691,-24.77983980180914
6.563254493249029,-2.6197978014235717,7.039801255964064,6.44062082475764,18.4941458467596,-26.309266713612185
6.537056515234793,-2.4348563429559755,7.10420746421164,6.177528157621518,18.868780793735564,-26.271638409929352
6.5127079518052335,-2.24616853501862,7.165982745787856,5.914811773522224,18.439504886000968,-25.279914152936804
6.490246266455047,-2.0617734861586103,7.225130863523078,5.662012631992856,17.56394111678034,-23.80637202917381
6.469628531593461,-1.8861340749908069,7.281750989843006,5.423948911701118,16.481173445424673,-22.159047442258466
6.450767190843553,-1.72132234053656,7.335990478960017,5.202358437278534,15.33481525977149,-20.516610833122805
6.433553967438188,-1.5679741879388451,7.388014063332802,4.997192328947306,14.203851428752287,-18.971898555464357
6.4178742255587995,-1.4259356736513222,7.437985986622275,4.807473343392663,13.127512215094368,-17.56614795212695
6.403614868822286,-1.2946605515003786,7.4860607200562015,4.631811863871393,12.122074701466351,-16.311685593694957
6.390668263307282,-1.173439804485715,7.532378838694916,4.468695007934444,11.191256562407737,-15.205694752954548
6.378933865262425,-1.0615272388616377,7.57706578877426,4.316638060404898,10.332325903059388,-14.238127345227648
6.368318592873809,-0.9582039798310438,7.620232169378309,4.174256786952622,9.539568261189443,-13.396064180379307
6.358736553075499,-0.8628082972191493,7.661974737247835,4.040296145148829,8.806192382432503,-12.666015235278907
6.350108470103307,-0.7747463733948243,7.7023776986993235,3.9136359927960394,8.125337686898392,-12.035060359500669
6.342361006369359,-0.6934929965258404,7.741514058627284,3.7932853892010328,7.4905747521620505,-11.491353806962298
6.3354260764041,-0.6185872490042199,7.779446912519294,3.6783718511314096,6.896125018659951,-11.02428999853523
6.329240203914058,-0.5496259988176204,7.816230631030608,3.568128951146057,6.336928761407601,-10.624496738522485
6.323743943925882,-0.4862567112035444,7.851911920542069,3.461883983760832,5.808634169593914,-10.283747305543518
6.318881376813846,-0.4281703695076053,7.886530760379677,3.359046510705397,5.3075481714176105,-9.994840657478504
6.31459967311877,-0.3750948877934292,7.920121225486731,3.259098104130612,4.830571301239148,-9.751475415835081
6.310848724240835,-0.3267891747810377,7.9527122065280365,3.161583349972261,4.375128521468144,-9.548130251646933
6.307580832493025,-0.2830378895663562,7.984328040027759,3.066102047455792,3.9391020777614307,-9.379956183154471
6.304750453597362,-0.24364686878874192,8.014989060502318,2.9723024856242475,3.5207692300625046,-9.242682509309263
6.302313984909475,-0.20843917648811688,8.04471208535856,2.879875660531155,3.1187459447027384,-9.132536169960082
6.300229593144594,-0.1772517170410895,8.073510841963872,2.788550298831554,2.731936712656132,-9.046173412400638
6.2984570759741825,-0.14993234991452817,8.101396344952187,2.6980885647075477,2.3594902080649214,-8.980622286811744
6.296957752475037,-0.12633744783387896,8.128377230599263,2.60828234183943,2.0007603083249776,-8.93323442754804
6.295694377996698,-0.10632984475062918,8.154460054017656,2.5189499975639498,1.6552719417251889,-8.901644657106733
6.294631079549192,-0.08977712533337728,8.179649553993295,2.4299335509928826,1.322691242439688,-8.883737094709161
6.293733308295859,-0.0765502129089804,8.203948889503224,2.341096180045791,1.0027995373131953,-8.877616618587343
6.292967806166769,-0.06652221753584844,8.227359851303682,2.2523200138599178,0.6954707435359605,-8.88158469795444
6.29230258399141,-0.05956751010048884,8.24988305144228,2.163504166880373,0.40065181020405144,-8.894118766422137
6.291706908890405,-0.05556099199844832,8.271518093111084,2.074562979216152,0.11834588487038539,-8.913854448735071
6.291151298970421,-0.054377533149744466,8.292263722903245,1.9854244347288013,-0.15140207330127184,-8.939570075844449
6.290607523638924,-0.05589155388275718,8.312117967250533,1.8960287339703568,-0.4085174793339341,-8.970173029912601
6.290048608100096,-0.059976728676096526,8.331078254590237,1.8063270036712307,-0.6529063267745135,-9.004687551961506
6.2894488408133356,-0.06650579194384167,8.34914152462695,1.7162801281516156,-0.8844636098769737,-9.04224372197412
6.288783782893897,-0.0753504280426114,8.366304325908466,1.6258576909318743,-1.1030801470769733,-9.08206738580973
6.288030278613471,-0.08638122951338113,8.382562902817785,1.535037017073777,-1.3086479765735657,-9.123470856737114
6.287166466318337,-0.09946770927911679,8.397913272988523,1.443802308506406,-1.5010644844056733,-9.165844263069433
6.286171789225546,-0.11447835412317352,8.412351296073588,1.3521438658757117,-1.6802354163518782,-9.208647448554931
6.285027005684314,-0.1312807082866923,8.425872734732344,1.2600573913901623,-1.8460769166588729,-9.25140235999948
6.283714198601447,-0.14974147745328104,8.438473308646246,1.1675433677901674,-1.99851672857578,-9.293685878149965
6.2822167838269145,-0.16972664473903884,8.450148742324147,1.0746065090086678,-2.1374946836644186,-9.335123064152905
6.280519517379524,-0.19110159157568302,8.460894807414235,0.9812552783671388,-2.262962598738758,-9.375380805848199
6.278608501463768,-0.2137312175630706,8.470707360197906,0.8875014703086568,-2.374883691038918,-9.414161856617747
6.276471189288137,-0.23748005447345977,8.479582374900993,0.7933598517424794,-2.4732316139299337,-9.451199265260604
6.274096388743403,-0.2622123706127591,8.487515973418418,0.6988478590898733,-2.5579892071497974,-9.486251199112228
6.271474265037275,-0.28779226268425706,8.494504452009316,0.6039853470987511,-2.6291470475632264,-9.519096164984044
6.268596342410433,-0.3140837331598893,8.500544305480304,0.5087943854489106,-2.6867018786639294,-9.549528634008853
6.265455505078834,-0.3409507519465286,8.505632249334793,0.4132990991088221,-2.7306549898557635,-9.577355077589495
6.262045997559369,-0.3682573018450862,8.509765240325882,0.3175255483329272,-2.7610106099568354,-9.602390422729762
6.258363424540918,-0.3958674079446546,8.512940495809211,0.22150164410562956,-2.7777743734981684,-9.624454936359989
6.254404750461472,-0.4236451516796363,8.515155512250267,0.12525709474202967,-2.78095191327664,-9.643371550053107
6.250168298944676,-0.4514546708124027,8.516408083197687,0.028823379241498595,-2.770547628266009,-9.658963638875646
6.245653752236551,-0.47916014709506277,8.516696316990101,-0.06776625714725787,-2.7465636723335334,-9.671053271067255
6.240862150765601,-0.5066257838183981,8.516018654418628,-0.1644767898579304,-2.7089992061402994,-9.679459948748136
6.235795892927417,-0.533715775879801,8.51437388652005,-0.2612713893454118,-2.657849951952182,-9.683999863796496
6.230458735168619,-0.5602942753993229,8.511761172626596,-0.3581113879833767,-2.5931080886320323,-9.684485697224531
6.224855792414625,-0.5862253562856432,8.508180058746762,-0.45495624495562204,-2.5147625215443594,-9.680726994548179
6.218993538851769,-0.6113729815010868,8.503630496297205,-0.5517635149011039,-2.4227995591567444,-9.672531153464202
6.212879809036758,-0.6356009770926542,8.498112861148194,-0.6484888264357459,-2.317204024398846,-9.659705063230987
6.206523799265831,-0.6587730173366426,8.491627972883837,-0.7450858770680557,-2.197960823940254,-9.642057437059705
6.199936069092464,-0.6807526255760452,8.484177114113157,-0.8415064514386528,-2.065056992051642,-9.619401879088395
6.193128542836704,-0.7014031954965616,8.47576204959877,-0.9377004702295367,-1.9184842171982566,-9.591560725642655
6.186114510881739,-0.7205880376685442,8.466385044896475,-1.0336160774859633,-1.7582418485773283,-9.558369696000192
6.178908630505053,-0.7381704561543174,8.456048884121616,-1.1291997744459652,-1.5843403660979596,-9.51968338032689
6.17152692594351,-0.754013859815297,8.444756886377156,-1.2243966082492341,-1.3968052805384057,-9.475381581470328
6.163986787345357,-0.767981912620681,8.432512920294664,-1.3191504240639373,-1.1956814106465952,-9.425376512634891
6.156306968219151,-0.779938726727147,8.419321416054025,-1.4134041891902862,-0.9810374607774158,-9.369620834546419
6.14850758095188,-0.7897491013349212,8.405187374162121,-1.5071003975357504,-0.7529707964899187,-9.308116493697527
6.140610089938531,-0.7972788092998203,8.390116370186764,-1.6001815624727258,-0.5116122868029488,-9.240924298086336
6.1326373018455325,-0.8023949321678499,8.374114554562036,-1.6925908054535892,-0.25713105124593016,-9.168174139298202
6.124613352523854,-0.8049662426803091,8.3571886465075,-1.7842725468465712,0.010261081548517762,-9.090075740988404
6.116563690097051,-0.804863631864824,8.339345921039035,-1.8751733042564553,0.29030562788154174,-9.006929785366593
6.108515053778403,-0.8019605755860086,8.32059418799647,-1.9652426021101213,0.582694268704699,-8.91913924313043
6.100495448022543,-0.7961336328989617,8.300941761975368,-2.0544339945414256,0.8870667131310936,-8.827220710793027
6.092534111693554,-0.7872629657676508,8.280397422029953,-2.142706201649356,1.2030099032166222,-8.731815545150562
6.0846614820358775,-0.7752328667354845,8.258970360013459,-2.2300243571008616,1.5300588692729276,-8.633700580597504
6.076909153368523,-0.7599322780427552,8.23667011644245,-2.3163613629068367,1.8676995475011575,-8.533798224020643
6.069309830588096,-0.7412552825677436,8.213506502813383,-2.401699345147043,2.215373863705414,-8.433185746861447
6.0618972777624185,-0.7191015439306895,8.189489509361913,-2.4860312026156577,2.572487367558218,-8.33310363706258
6.054706262323111,-0.6933766702551073,8.164629197335756,-2.5693622389862836,2.9384196714610558,-8.234962936899132
6.04777249562056,-0.6639924735404967,8.138935574945894,-2.651711868355275,3.312537907588221,-8.140351577298237
6.041132570885155,-0.6308670944646145,8.112418456262342,-2.7331153841282574,3.6942133684823424,-8.051039825466804
6.034823899940509,-0.5939249607797911,8.085087302421059,-2.8136257823829256,4.0828414440571,-7.968985089847056
6.028884650332711,-0.5530965463392201,8.056951044597229,-2.893315633281396,4.477864915711387,-7.896336473088806
6.023353684869319,-0.5083178971821063,8.028017888264415,-2.972278998012284,4.878800622168162,-7.835439627625337
6.0182705058974975,-0.4595298909604247,7.998295098284292,-3.0506333942885373,5.285269478101837,-7.788842646861551
6.013675206987894,-0.40667719617940634,7.967788764341407,-3.128521820757153,5.697029812499504,-7.759303915117307
6.0096084350261,-0.3497068980544113,7.936503546133835,-3.2061148599083262,6.114014005812214,-7.74980303878273
6.006111366045555,-0.28856675799628917,7.904442397534752,-3.2836128902961534,6.536368449387717,-7.763556187715213
6.0032256984655925,-0.223203073502412,7.8716062686317905,-3.3612484521733057,6.964496932064705,-7.804037388562299
6.000993667730568,-0.15355810418176497,7.837993784110058,-3.4392888260589287,7.399107679325821,-7.875007529713876
5.99945808668875,-0.07956702738850675,7.803600895849469,-3.5180389013560673,7.841264428380168,-7.980553059673207
5.998662416414865,-0.0011543831047050729,7.768420506835908,-3.5978444319527996,8.2924421103038,-8.12513658256339
5.998650872583818,0.08177003799833292,7.73244206251638,-3.6790957977784333,8.754587910668329,-8.31366176453585
5.999468572963801,0.1693159171050162,7.695651104538596,-3.762232415423792,9.230188659962518,-8.551555135446781
6.001161732134851,0.2616178037046414,7.658028780384359,-3.8477479667782597,9.722345605029117,-8.84486744298604
6.003777910171897,0.35884125975493253,7.6195513007165765,-3.93619664120812,10.234857527453288,-9.200397076062124
6.007366322769447,0.4611898350294654,7.580189334304495,-4.0282006119687415,10.772312719462434,-9.625837501716246
6.011978221119741,0.5689129622240898,7.539907328184808,-4.124458986985904,11.340189177781241,-10.129949250503726
6.0176673507419824,0.6823148540019023,7.498662738314948,-4.225758479490942,11.944959959955733,-10.722754002879132
6.024490499282002,0.8017644536014596,7.456405153520039,-4.332986019519733,12.594195958906436,-11.415742445697436
6.032508143818016,0.927706413190524,7.413075293324841,-4.4471434439767075,13.296649609853956,-12.22207639914369
6.041785207949921,1.0606729092890637,7.3686038588850735,-4.569364207968144,14.06228709704084,-13.156744989113035
6.052391937042812,1.2012957802594721,7.322910216805392,-4.700931657859274,14.902207891437673,-14.23659672311367
6.064404894845407,1.350317859173849,7.275900900226799,-4.843297625090411,15.828339056087966,-15.480100622704526
6.077908073437146,1.5086012497347285,7.227467923975895,-4.998098631317457,16.852700398284675,-16.906566064288388
6.092994085934493,1.6771282537175753,7.17748693766272,-5.167164291960341,17.985875414638574,-18.534331033801926
6.1097653684716695,1.8569870078639612,7.125815294743116,-5.35250760229836,19.234042547502398,-20.377042395690214
6.128335238550309,2.049327433338985,7.072290218720132,-5.556278026255262,20.593445397682256,-22.436491189371527
6.148828512883699,2.2552618873158075,7.01672743845758,-5.7806429381489774,22.040412109073994,-24.689389981155426
6.171381131756857,2.4756660084065474,6.95892100907609,-6.027536837960532,23.513917284272914,-27.06389740654847
6.196137791840923,2.7108051812492766,6.898645640696485,-6.298175812026017,24.886449574629154,-29.399908958869474
6.223245843653416,2.959669676995568,6.835663882576225,-6.592174901614712,25.918893750008603,-31.386893257006857
6.252842540423371,3.218858614495654,6.769742133560078,-6.90604383418478,26.200451215449885,-32.4801393830478
6.285031126568327,3.480863126650153,6.70068169521823,-7.230845228015259,25.09532750928957,-31.82461944100822
6.319839757834829,3.7318164017430484,6.6283732429380775,-7.549091422425341,21.768479047375852,-28.285560878033298
6.357157921852259,3.949501192216807,6.5528823287138245,-7.831947031205674,15.433741304201849,-20.783735549520546
