th1 (rad),w1 (rad/s),th2 (rad),w2 (rad/s)
3.486056074863274,-2.7135721245788083,0.6747182854404316,-1.7479140933175765
3.458920353617486,-2.6946082900101658,0.6572391445072557,-1.7673148738414417
3.4319742707173844,-2.679199782892964,0.6395659957688413,-1.7884513078526565
3.405182272888455,-2.6673021191225703,0.6216814826903148,-1.8112040940979819
3.378509251697229,-2.658869522279371,0.6035694417493349,-1.8354464251938818
3.351920556474435,-2.6538553556772797,0.585214977497396,-1.8610448952048426
3.3253820029176624,-2.65221240214078,0.5666045285453476,-1.88786016523994
3.2988598788962546,-2.6538930085407357,0.5477259268929482,-1.9157474150209868
3.2723209488108473,-2.6588491102195375,0.5285684527427383,-1.9445566054336816
3.245732457708652,-2.667032148600218,0.5091228866884016,-1.9741325742262656
3.21906213622265,-2.67839289354402,0.4893815609461389,-2.004314984343802
3.19227820728721,-2.6928811804283117,0.46933841110270086,-2.0349381419360877
3.165349395482927,-2.71044557048675,0.44898902968334,-2.0658306988956294
3.138244939778059,-2.7310329417075345,0.42833072269438366,-2.096815252903134
3.110934610360984,-2.7545880165438636,0.4073625701653523,-2.1277078564120506
3.083388730195545,-2.781052831875193,0.38608549160123184,-2.1583174448215696
3.055578201876793,-2.810366156094095,0.3645023171530162,-2.18844519330314
3.0274745403158523,-2.8424628579123863,0.3426178652199848,-2.217883811398903
2.9990499117367286,-2.877273231519634,0.32043902710599576,-2.2464167846486287
2.970277179421532,-2.9147222831331034,0.29797485925950945,-2.2738175731803207
2.941129956590201,-2.9547289848051532,0.27523668352770625,-2.299848778481863
2.9115826667421496,-2.9972055026648423,0.25223819574288764,-2.3242612915264047
2.881610611715501,-3.042056408635025,0.22899558282762358,-2.3467934381245428
2.8511900476291507,-3.089177887158924,0.20552764844637816,-2.3671701408904897
2.8202982687575613,-3.138456951665741,0.18185594703747326,-2.385102121593888
2.788913699240904,-3.1897706894714526,0.1580049258215344,-2.400285172955901
2.757015992346189,-3.2429855586007363,0.13400207409197537,-2.412399535128781
2.724586136760182,-3.297956765652391,0.10987807874068756,-2.4211094191008233
2.6916065691036577,-3.3545277602914365,0.08566698454967933,-2.426062726932788
2.6580612915007436,-3.412529889147762,0.061406357280351445,-2.426891026775948
2.623935992609266,-3.471782259654024,0.03713744701259196,-2.423209848607612
2.5892181700127255,-3.532091872366035,0.012905348526515838,-2.4146193739147765
2.553897251289065,-3.5932540881311885,-0.011240845212631929,-2.4007055982982077
2.517964710407753,-3.6550535034852296,-0.03524790119561401,-2.3810420490388764
2.4814141753729007,-3.717265313053846,-0.05905832168600277,-2.355192138681076
2.444241522242362,-3.7796572405082687,-0.08261024307281353,-2.3227122290103064
2.4064449498372795,-3.841992118597217,-0.1058373653629166,-2.283155465624775
2.3680250286513074,-3.9040311926641005,-0.12866892001916436,-2.236076419742936
2.3289847167246664,-3.965538209568794,-0.1510296842165937,-2.1810365392174638
2.2893293346289787,-4.026284333942494,-0.17284004960876836,-2.117610363612953
2.249066491289554,-4.0860539054800356,-0.1940161532448979,-2.045392398091227
2.2082059522347537,-4.1446510144603925,-0.21447007722581019,-1.9640044683483282
2.1667594420901497,-4.201906828815881,-0.23411012190929348,-1.873103296157776
2.1247403738019908,-4.257687557066217,-0.2528411548708712,-1.772387946307306
2.0821634982313286,-4.311902881027949,-0.2705650343339443,-1.6616067070435558
2.039044469421049,-4.364514645708911,-0.28718110140437986,-1.5405628856282347
1.9953993229639602,-4.415545557899979,-0.3025867302606622,-1.4091189376279754
1.9512438673849604,-4.4650876272903615,-0.3166779196369419,-1.2671983126856037
1.9065929911120567,-4.513310092175359,-0.32934990276379794,-1.1147843989719182
1.8614598901903032,-4.5604666127764055,-0.3404977467535171,-0.9519159882587617
1.8158552240625392,-4.606901593559281,-0.35001690663610474,-0.7786787633595591
1.7697862081269464,-4.653055613380368,-0.3578036942697003,-0.595192422555467
1.7232556519931428,-4.699470096914386,-0.363755618495255,-0.40159318700291285
1.676260951023999,-4.7467915473656195,-0.36777155036528414,-0.1980115652084978
1.6287930355503428,-4.7957758714006085,-0.36975166601736914,0.015454653985854133
1.5808352768363367,-4.8472935546326275,-0.3695971194775106,0.23877217228618935
1.5323623412900105,-4.902336683919132,-0.3672093977546487,0.4720087642422797
1.4833389744508192,-4.962029059665582,-0.3624893101122259,0.7153748915393054
1.4337186838541633,-5.027640901617226,-0.35533556119683285,0.9692708805479107
1.383442274837991,-5.100609934974954,-0.3456428523913537,1.2343406522834255
1.3324361754882414,-5.182570960588486,-0.33329944586851945,1.5115335923580804
1.2806104658823565,-5.275396362181085,-0.3181841099449386,1.8021768500534563
1.2278565022605457,-5.381250342711135,-0.30016234144440407,2.1080610557555897
1.1740439988334344,-5.502659861749483,-0.2790817308868482,2.431542885460137
1.1190174002159394,-5.642604861343697,-0.2547663020322468,2.7756674613014285
1.0625913516025025,-5.804628422295509,-0.22700962741923253,3.1443108091133074
1.0045450673795475,-5.992961629221544,-0.19556651932809946,3.5423341399212824
0.944615451087332,-6.2126426726004,-0.16014317792888663,3.9757198539419027
0.882489024361328,-6.469572544412622,-0.1203859793894676,4.451606234886074
0.8177932989172019,-6.7703623827939285,-0.07586991704060686,4.978014174107533
0.7500896750892626,-7.121629304694668,-0.026089775299531534,5.5627796524471185
0.678873382042316,-7.527971562308537,0.029538021224939655,6.210606407847408
0.6035936664192306,-7.987046492479751,0.09164408530341372,6.916020156420353
0.5237232014944331,-8.479141443367146,0.16080428686761727,7.648562920024036
0.43893178706076164,-8.949503006726793,0.23728991606785765,8.327829781431728
0.3494367569934937,-9.292526880048534,0.32056821388217493,8.801276907691836
0.25651148819300834,-9.375967734202224,0.4085809829590933,8.878727448069748
0.1627518108509861,-9.141538587768304,0.49736825743979074,8.474899765799162
0.07133642497330307,-8.683444059499971,0.5821172550977823,7.721013438302484
-0.015498015621696642,-8.162030095926264,0.6593273894808072,6.843661259588019
-0.09711831658095928,-7.681923036168681,0.7277640020766873,5.992544723403555
-0.17393754694264607,-7.278440861779897,0.7876894493107229,5.220110653061409
-0.24672195556044504,-6.9521607151619245,0.839890555841337,4.529496299623236
-0.3162435627120643,-6.692793370832845,0.8851855188375694,3.908026897583204
-0.3831714964203927,-6.48870461981205,0.9242657878134014,3.340766186192754
-0.4480585426185132,-6.329704033272176,0.957673449675329,2.8146367333931503
-0.511355582951235,-6.207471985419157,0.9858198170092605,2.3191964946260937
-0.5734303028054265,-6.115307129911864,1.0090117819555213,1.8464289929072804
-0.6345833741045451,-6.04775086509989,1.027476071884594,1.3903332933849781
-0.695060882755544,-6.000250137825269,1.041379404818444,0.9465438549561178
-0.7550633841337967,-5.968892465768065,1.050844843368005,0.5120283152716383
-0.8147523087914773,-5.9502100413523396,1.0559651265207215,0.08485679200248003
-0.8742544092050007,-5.941041689058585,1.0568136944407462,-0.3359764317291063
-0.9336648260955867,-5.938441667982266,1.0534539301234551,-0.7506977163611892
-0.9930492427754093,-5.939626163936703,1.0459469529598433,-1.158880392162727
-1.0524455044147762,-5.941949834375597,1.034358149038216,-1.5595630623914232
-1.1118650027585322,-5.942905587171524,1.0187625184143019,-1.951365925222451
-1.1712940586302474,-5.940141064077948,0.9992488591620774,-2.332607195182602
-1.2306954692710268,-5.931485397570193,0.9759227872102514,-2.7014184365878107
-1.2900103232467288,-5.91498005119561,0.9489086028443733,-3.055855291107105
-1.349160123758685,-5.888908179556907,0.9183500499333023,-3.3939988843274866
-1.4080492055542542,-5.851818045015899,0.8844100610900274,-3.714043188535968
-1.4665673860044133,-5.802537529743698,0.8472696292046678,-4.014364662187663
-1.5245927613018502,-5.740178476747122,0.8071259825827911,-4.2935722552098845
-1.5819945460693214,-5.664131210808592,0.7641902600306922,-4.550537923585697
-1.6386358581774074,-5.574050876212249,0.7186848807948353,-4.7844096907260205
-1.69437636693953,-5.469838013344792,0.6708407838875751,-4.994610678482215
-1.749074747072978,-5.351616028701788,0.6208946771027529,-5.180828220589737
-1.802590907359996,-5.219707952918498,0.5690863948968555,-5.342997152667176
-1.854787986889181,-5.07461426939247,0.5156564233701838,-5.4812807724252055
-1.9055341295831056,-4.916992807804779,0.46084361564593174,-5.596051990399052
-1.9547040576611534,-4.747640903469198,0.4048830957419412,-5.687876076318189
-2.0021804666958456,-4.567479362745487,0.3480043349787593,-5.757495355265044
-2.0478552603233005,-4.377537336722209,0.29042938142610886,-5.805815374027022
-2.0916306336905226,-4.17893702899622,0.23237122768583862,-5.833891530373412
-2.133420003980485,-3.972877241014948,0.17403231238210448,-5.842914962486426
-2.1731487763906343,-3.760615044639317,0.11560316275724022,-5.834196604656447
-2.2107549268370277,-3.5434452945047883,0.057261196710675755,-5.809148660099694
-2.246189379782076,-3.3226781674057078,-0.0008302898903211897,-5.769263228737013
-2.279416161456133,-3.0996153580375307,-0.05852292217769132,-5.716088354992138
-2.310412315036508,-2.8755258995328403,-0.11568380572761269,-5.651202234073026
-2.3391675740318365,-2.6516227668242047,-0.17219582806834297,-5.576186662381641
-2.3656838017000785,-2.4290414438252848,-0.22795769469215937,-5.492600996814547
-2.3899742161383313,-2.2088215035726306,-0.2828837046603048,-5.4019578901819845
-2.4120624311740575,-1.9918919988247967,-0.3369032835621247,-5.305701916816703
-2.4319813511623054,-1.7790611379114853,-0.3899603027302917,-5.2051919357592835
-2.44977196254142,-1.5710103787139251,-0.44201222208788454,-5.101687710842085
-2.4654820663285593,-1.3682927581859832,-0.4930290991963054,-4.996340969004438
-2.4791649939104192,-1.1713350189602205,-0.5429925088863498,-4.890190772713635
-2.4908783441000213,-0.9804429164269366,-0.5918944166134861,-4.784162838182509
-2.5006827732642907,-0.7958089930152651,-0.6397360449953111,-4.679072262121027
-2.5086408631944432,-0.6175220837689483,-0.6865267676165214,-4.575629026986561
-2.5148160840321325,-0.4455778540643649,-0.732283057886387,-4.474445629505513
-2.519271862572776,-0.2798897487442142,-0.7770275141814421,-4.376046205437549
-2.522070760060218,-0.12029983452716,-0.8207879762358176,-4.280876588941896
-2.5232737584054896,0.033410870787229735,-0.8635967421252365,-4.189314831969354
-2.5229396496976175,0.18151287960885135,-0.90548989044493,-4.10168180468597
-2.521124520901529,0.3243197246525028,-0.9465067084917897,-4.018251591968771
-2.5178813236550037,0.4621805716470969,-0.9866892244114774,-3.939261486555467
-2.5132595179385326,0.5954739998818284,-1.0260818392770321,-3.864921452229255
-2.5073047779397144,0.724602942458378,-1.0647310537993246,-3.7954229882630712
-2.5000587485151304,0.8499907378351309,-1.1026852836819554,-3.73094736831829
-2.4915588411367793,0.9720782138848441,-1.1399947573651383,-3.6716732527417557
-2.4818380589979308,1.091321701380591,-1.176711489892556,-3.6177836822593563
-2.4709248419841248,1.2081918510751595,-1.2128893267151495,-3.569472452156014
-2.458842923473373,1.32317310205004,-1.2485840512367097,-3.5269498363935847
-2.4456111924528727,1.4367636123017749,-1.2838535496006456,-3.4904475756700295
-2.431243556329855,1.5494754073015167,-1.3187580253573459,-3.4602229537606077
-2.41574880225684,1.6618344174647668,-1.353360254894952,-3.4365616495773037
-2.399130458082192,1.7743799461338337,-1.387725871390725,-3.4197788489644294
-2.381386658620854,1.8876629155514622,-1.4219236598803693,-3.410217802960777
-2.3625100294653394,2.002241952664789,-1.456025837909977,-3.4082445910787875
-2.3424876099386913,2.1186759661635026,-1.4901082838207649,-3.414237242362157
-2.3213008502770562,2.2375112942640714,-1.5242506562443865,-3.4285665317541527
-2.2989257373344154,2.359260740369924,-1.5585363215619281,-3.4515646633551684
-2.2753331299307162,2.4843708672378004,-1.5930519681954798,-3.4834766841361198
-2.2504894212583384,2.613172891844053,-1.627886735036841,-3.5243879858426324
-2.2243576923398978,2.7458117279675065,-1.6631306148952671,-3.574120095127893
-2.1968995750602227,2.882147890096354,-1.6988718158465461,-3.6320871541510837
-2.168078096159259,3.0216295229792265,-1.735192687388057,-3.697109072059743
-2.1378618009294668,3.163139109596629,-1.7721637781086543,-3.767187621828655
-2.1062304098335005,3.304834481008834,-1.809835654326941,-3.8392730976166565
-2.073182065023412,3.4440286420244295,-1.8482283853031074,-3.9090844669050453
-2.0387417786031676,3.577184166896042,-1.887319229972158,-3.971090427738729
-2.0029699369342073,3.700119334982877,-1.9270301342495453,-4.018789652080718
-1.9659687435843785,3.8085021321116606,-1.9672180307703524,-4.045399667422335
-1.9278837222632619,3.8986107700645705,-2.007672027444576,-4.044927072145843
-1.8888976145626162,3.9681753820380896,-2.048121298166034,-4.013360432878964
-1.8492158607422353,4.016981713880448,-2.088254902494824,-3.949536930037743
-1.8090460436034308,4.046953411285956,-2.1277502717952013,-3.855281254419685
-1.7685765094905712,4.061667130566391,-2.166303084339398,-3.734747148690514
-1.7279598381849073,4.065533306167956,-2.2036505558263033,-3.5932835605749975
-1.6873045051232278,4.062985046086641,-2.239583391432053,-3.436303662575589
-1.6466746546623614,4.057915613540326,-2.2739464280578088,-3.2684947130017785
-1.6060954985269582,4.053422156811495,-2.3066313751878265,-3.0934521697685264
-1.5655612769588432,4.051785592284701,-2.3375658968855118,-2.9136427289211344
-1.5250434210359962,4.054580293120404,-2.366702324174723,-2.7305495865129865
-1.4844976181047922,4.062828104398267,-2.394007820039853,-2.544881631789694
-1.4438693370608096,4.077146997434552,-2.41945663635775,-2.3567777358876576
-1.403097867086464,4.09787328768693,-2.4430244137166266,-2.165976961986198
-1.3621191342095946,4.125153064671436,-2.4646841833364888,-1.9719487638764046
-1.3208676035628804,4.159006064279884,-2.4844036709752526,-1.773987825682854
-1.2792775429200816,4.199367532718151,-2.502143549232081,-1.5712814858978845
-1.2372838675929,4.246113502924614,-2.5178563640910596,-1.3629575772868292
-1.194822732563654,4.299073911455846,-2.531485939863928,-1.1481191856765647
-1.1518319934490955,4.358036870309214,-2.5429671317206934,-0.9258713069525779
-1.1082516247460032,4.422746460301565,-2.552225844790219,-0.6953430491048965
-1.0640241601429876,4.492895702711685,-2.559179275281268,-0.4557079731661906
-1.0190952031158709,4.568115881154936,-2.5637363550129297,-0.20620436285604216
-0.9734140443043215,4.647963088011816,-2.56579839864149,0.053843407669222076
-0.9269344134242034,4.731902719541969,-2.565259964564798,0.3250017405618559
-0.8796153862287837,4.819292606850033,-2.5620099471591793,0.6077026841524711
-0.8314224601602833,4.9093655172369655,-2.5559329203176544,0.9022169807245785
-0.7823288049879137,5.001211866160632,-2.5469107505104085,1.2086258624539639
-0.7323166863263073,5.093763618244971,-2.534824491885869,1.5267925532633382
-0.6813790501438576,5.185780499148213,-2.5195565663532355,1.856334800991289
-0.6295212451523755,5.275839759438963,-2.5009932183433228,2.19660008389382
-0.5767628475579859,5.362330797571525,-2.4790272175043846,2.5466453727797
-0.5231395395822707,5.443455935568304,-2.4535607637765877,2.9052234473445084
-0.46870498022658763,5.517238530171011,-2.4245085293031425,3.2707777314451922
-0.41353259492487754,5.581539388875967,-2.391800751988691,3.6414474124883136
-0.35771720103611787,5.634082154819753,-2.3553862778638077,4.015084254474221
-0.30137637948792034,5.672487951603575,-2.3152354353190656,4.389282039270776
-0.2446514999718846,5.694319171227759,-2.271342614926358,4.761419034672169
-0.187708308259607,5.697131874026856,-2.2237284245796363,5.128713355976078
-0.13073698951933843,5.678535860374867,-2.1724412910198754,5.488290611108698
-0.07395163091558976,5.636261054108056,-2.1175583849087882,5.837262812719105
-0.0175890203745092,5.568228363092257,-2.059185756781597,6.172817170293186
0.03809326325641337,5.472622594727242,-1.9974575850786653,6.492312963333303
0.0928194892036858,5.3479642596152495,-1.9325344554453323,6.793384148617546
0.14629913179983828,5.193176204543874,-1.8646006139591569,7.074044606907706
0.198230893845277,5.007640074503251,-1.7938601678900798,7.332792009171921
0.2483072945903095,4.79123681433963,-1.7205322477983607,7.568705328348076
0.2962196627337058,4.544365066263947,-1.6448451945148799,7.781530320645265
0.34166331339634526,4.267931695006435,-1.5670298913084273,7.971747214763313
0.3843426303464096,3.963309982456103,-1.4873124191607943,8.140615726001654
0.4239757301709706,3.632263283346598,-1.4059062619007778,8.29019455892523
0.4602983630044366,3.2768348599679853,-1.3230043163115255,8.423335728560563
0.49306671160411647,2.899207698802831,-1.23877095902592,8.543657975669836
0.5220587885921448,2.501540694042694,-1.1533343792692217,8.65550770303293
0.5470741955325717,2.0857890475510654,-1.0667793022388923,8.763919552457406
0.5679320860080824,1.6535167303391733,-0.9791401067143182,8.874591381033028
0.5844672533114742,1.2057074823282603,-0.8903941929039879,8.993889525164063
0.5965243281347568,0.7425788374854068,-0.8004552976523472,9.128899395197427
0.6039501165096108,0.26340272687401867,-0.7091663037003729,9.287532568910777
0.606584143778351,-0.2336602885096643,-0.6162909780112652,9.478691618373752
0.6042475408932544,-0.7516910564281671,-0.5215040618275277,9.712469739773995
0.5967306303289727,-1.2950415669392372,-0.42437936442978774,10.00030329350774
0.5837802146595803,-1.8690935431769857,-0.32437633149471035,10.354852141972746
0.5650892792278105,-2.479323530718798,-0.22082781007498287,10.789041862792418
0.5402960439206225,-3.1286893152403037,-0.11293739144705868,11.312928863877417
0.5090091507682194,-3.811234889544536,0.00019189719171548714,11.925489745821002
0.47089680187277405,-4.498287678899675,0.11944679464992551,12.596249020637313
0.4259139250837773,-5.114802522362368,0.24540928485629865,13.233060643072516
0.37476589986015363,-5.519880608954187,0.3777398912870238,13.654714260424827
0.31956709377061177,-5.549031629124456,0.5142870338912721,13.646814582331192
0.2640767774793672,-5.1591040522967235,0.650755179714584,13.156468794269449
0.21248573695639997,-4.5028840423904075,0.7823198676572785,12.38895840933878
0.1674568965324959,-3.7771329109086116,0.9062094517506663,11.599412762326512
0.12968556742340978,-3.088153878359738,1.0222035793739315,10.916834102299758
0.0988040286398124,-2.464552589365523,1.131371920396929,10.36767610880247
0.07415850274615716,-1.9028629020987045,1.2350486814849537,9.938902848174793
0.05512987372517012,-1.3914662820085066,1.3344377099667017,9.60936204278607
0.04121521090508505,-0.9187689548588924,1.4305313303945624,9.359698749434743
0.03202752135649613,-0.4752503981634358,1.5241283178889098,9.174309728918631
0.02727501737486177,-0.053611897410259735,1.6158714151780962,9.041017959929599
0.026738898400759173,0.35154341710293635,1.7062815947773922,8.950300174228335
0.030254332571788535,0.7440725099179037,1.7957845965196755,8.894571759002536
0.03769505767096757,1.1265917932865983,1.884730314109701,8.867629472388721
0.048960975603833556,1.5007050642316329,1.9734066088335882,8.864243524185309
0.06396802624614989,1.8671757230231472,2.062049044075441,8.879869461377744
0.08263978347638136,2.226062136378557,2.1508477386892184,8.910452597153933
0.10490040484016694,2.576832365908798,2.239952264660758,8.952304227097493
0.13066872849925493,2.9184705989994058,2.329475306931733,9.002034331698331
0.159853434489249,3.2495836353713754,2.419495650248716,9.056528831213614
0.19234927084296274,3.5685118825761384,2.5100609385608523,9.112960937685827
0.22803438966872414,3.8734455465463142,2.6011905479377107,9.168826308093514
0.2667688451341873,4.162543238451979,2.692878811018646,9.221991232658075
0.30839427751870707,4.4340473802254365,2.7850987233452265,9.2707427043335
