th1 (rad),w1 (rad/s),th2 (rad),w2 (rad/s)
5.295693381694358,1.252437087119293,5.4395678443329265,2.9545878864067543
5.308217752565551,1.356182612048862,5.469113723196994,2.9228764054324694
5.32177957868604,1.4619545153189166,5.4983424872513185,2.886778813729695
5.336399123839229,1.569507755376979,5.527210275388615,2.846401528788803
5.352094201392998,1.6785915774704163,5.555674290676503,2.801853461167456
5.368880117167703,1.7889511201729016,5.5836928252881775,2.7532475334889988
5.386769628369432,1.9003281754912442,5.611225300623067,2.700703615482343
5.405772910124345,2.012461139442676,5.63823233677789,2.644352768696442
5.425897521518771,2.125084196330976,5.664675864464855,2.5843426804127763
5.447148363482081,2.2379257759858096,5.690519291268983,2.52084416482015
5.469527621241939,2.350706314133338,5.715727732917185,2.454058613511128
5.4930346843832725,2.4631353372180564,5.740268319052296,2.384226279484943
5.517666037755453,2.574907889823132,5.764110581847145,2.311635271817242
5.5434151166536845,2.685700330829014,5.787226934565318,2.2366311146821927
5.570272119961975,2.795165549216617,5.80959324571214,2.1596266770737063
5.598223775454141,2.9029276976228124,5.831189512482877,2.081112200962281
5.627253052430369,3.008576616718827,5.8520006344925,2.0016650389516992
5.657338818597557,3.111662230270507,5.872017284882017,1.9219585530160495
5.688455440900262,3.2116893304509713,5.891236870412178,1.8427694234577756
5.720572334204772,3.3081133410899897,5.909664564646755,1.7649823802249993
5.753653467615672,3.4003378293563533,5.927314388449005,1.68959111930536
5.787656845909236,3.487714707008357,5.944210299642059,1.617693946691866
5.82253399297932,3.569548177642869,5.960387239108977,1.5504825668070454
5.858229474755749,3.645103486877236,5.975892064777048,1.4892224899961188
5.894680509624521,3.713621348784792,5.990784289677009,1.4352238767713759
5.9318167231123695,3.774338490962086,6.005136528444723,1.3898023560348998
5.96956010802199,3.8265140518875786,6.019034552005072,1.3542304910057614
6.007825248540866,3.8694606131783704,6.03257685691513,1.3296820608720503
6.046519854672649,3.902577584879734,6.04587367752385,1.317172979058813
6.085545630521446,3.9253837096516873,6.0590454073144375,1.3175041370736513
6.124799467617963,3.9375448947597738,6.072220448685174,1.3312123174411616
6.164174916565561,3.9388936744040173,6.085532571859586,1.3585351733492657
6.203563853309602,3.9294374682533793,6.099117923593079,1.3993949426867696
6.242858227992135,3.9093543355955593,6.113111873019947,1.4534031938248289
6.281951771348091,3.8789768054481533,6.127645904958195,1.5198859703024714
6.320741539402572,3.838766138425879,6.14284476466122,1.5979258931132907
6.359129200786831,3.7892806208768923,6.158824023592353,1.6864157419887211
6.3970220069956,3.7311419565186212,6.17568818101224,1.7841171654653627
6.434333426560786,3.665003501088358,6.193529352666894,1.8897184952181423
6.47098346157167,3.591523187380132,6.212426537619075,2.0018868760846327
6.506898693445471,3.511342821914733,6.232445406379922,2.1193116162613848
6.5420121216646185,3.425074297599103,6.253638522542536,2.2407373670177493
6.57626286464061,3.3332923633953726,6.276045896212714,2.3649871417676502
6.6095957882745635,3.236533009607692,6.29969576763039,2.490976134084252
6.641961118370641,3.135296256179198,6.324605528971233,2.617717791844046
6.673314080932433,3.030052104107059,6.350782706889674,2.7443237379510967
6.703614601973503,2.9212485401525523,6.378225944269184,2.8699990181848785
6.732827087375028,2.809320692552875,6.406925934451033,2.9940339189617604
6.760920294300557,2.69470045940593,6.436866273640651,3.1157933222783347
6.787867298894616,2.5778261315183824,6.468024206863434,3.23470431248165
6.8136455602098,2.459151684564941,6.50037124998825,3.3502425554724407
6.838237077055449,2.3391555098434464,6.533873675542974,3.4619178536565074
6.861628632153883,2.218348384034607,6.5684928540795395,3.569259247036743
6.883812115994228,2.09728044533218,6.604185446549907,3.671800084080259
6.90478492044755,1.9765468482285986,6.640903447390709,3.769063623111954
6.924550388929837,1.8567916186657238,6.678594083621829,3.860549938127699
6.943118305116494,1.738709039769723,6.717199583003106,3.9457251740406396
6.960505395514192,1.6230416939769947,6.756656834743513,4.024014489951904
6.976735812453962,1.5105741173458678,6.796896979643032,4.094800283739385
6.99184155362742,1.4021209567185429,6.8378449824804255,4.157427414024393
7.005862763194606,1.2985086511248503,6.879419256620669,4.211217004121495
7.018847849705854,1.2005500819401778,6.921531426661884,4.255489894276668
7.030853350525256,1.109012421956854,6.964086325604651,4.289599802460121
7.041943474744825,1.0245795574657444,7.006982323629252,4.31297475546199
7.052189270319482,0.9478118300151667,7.050112071183872,4.3251635223505085
7.061667388619633,0.8791071641643347,7.093363706407377,4.325881987142247
7.070458460261277,0.8186685140250112,7.136622526278799,4.315053165784495
7.078645145401526,0.7664825694137138,7.179773057936644,4.2928344471873
7.086309971095663,0.7223135743165422,7.222701402408517,4.259626945938804
7.093533106838829,0.6857140123558034,7.265297671867905,4.216064495940834
7.100390246962387,0.656051257668845,7.307458316827313,4.162983205548983
7.1069507595390755,0.6325467624543437,7.349088148882803,4.101375737719778
7.1132762271636185,0.6143226193329304,7.390101906260001,4.032336702781421
7.119419453356948,0.6004497830799969,7.430425273287815,3.957006254288029
7.125423951187748,0.5899928471517628,7.469995335830696,3.8765181840924323
7.1313238796592655,0.5820476939042771,7.50876051767162,3.7919569850545054
7.137144356598308,0.5757700732966226,7.546680087522165,3.704326141549107
7.142902057331274,0.5703947637652684,7.583723348937656,3.6145278990535874
7.148606004968927,0.5652461534412265,7.6198686279281915,3.5233533050024906
7.154258466503339,0.559741764829138,7.655102160978217,3.4314805021738084
7.15985588415163,0.5533904887330398,7.689416965999955,3.3394790083328907
7.165389789038961,0.5457872205408454,7.722811756083284,3.2478178606059434
7.170847661244369,0.5366053400698275,7.755289934689343,3.156875861648424
7.176213714645067,0.5255881554604731,7.7868586933058275,3.066952595508395
7.181469596199672,0.5125401153929211,7.817528219260911,2.9782792926881343
7.186594997353601,0.49731832149357597,7.8473110121877925,2.891028969485267
7.191568180568536,0.4798246586779635,7.876221301882645,2.805325531294103
7.196366427155316,0.4599987046725472,7.904274557195587,2.721251717046455
7.200966414202041,0.43781147289612127,7.931487074366051,2.6388558850774126
7.205344528931002,0.41325997459949193,7.957875633216825,2.558157714541265
7.209477128676998,0.3863625463272626,7.983457210362237,2.479152935158623
7.21334075414027,0.35715486864493107,8.008248739713824,2.4018172131277638
7.216912302826719,0.32568659488614554,8.032266911845102,2.3261093212655193
7.2201691687755805,0.29201850946377483,8.055528005057758,2.2519737131238244
7.223089353870218,0.25622014061017784,8.078047742188996,2.1793426082000114
7.22565155527632,0.21836775997958116,8.099841168270997,2.108137681148126
7.2278352328761155,0.17854270991071655,8.120922545082479,2.038271433754511
7.229620659975223,0.1368300074450008,8.141305259420024,1.969648315283292
7.230988960049673,0.09331718194733213,8.161001742572857,1.9021656450715205
7.231922131869146,0.04809331015516483,8.180023399023572,1.8357143811106602
7.232403064970698,0.0012482186121367395,8.198380542834679,1.7701797697697812
7.232415547156819,-0.04712817126091241,8.216082340532376,1.7054419046826108
7.23194426544421,-0.09694637568123765,8.233136759579201,1.641376216979561
7.230974801687398,-0.1481177749972103,8.249550521748997,1.5778539143289105
7.229493623937426,-0.2005549473219276,8.265329060892286,1.5147423824952804
7.2274880744642065,-0.25417191976133885,8.280476484717239,1.4519055601788695
7.224946355266593,-0.3088843454250256,8.294995540319027,1.3892042956333421
7.221857511812343,-0.36460961251816687,8.30888758327536,1.3264966918592844
7.218211415687161,-0.42126689024259767,8.322152550193954,1.2636384459360634
7.2139987467847355,-0.47877711493531233,8.334788934653314,1.2004831872047783
7.209210975635383,-0.5370629188047273,8.346793766525362,1.1368828184783946
7.203840346447335,-0.5960485027563579,8.358162594710146,1.072687864172034
7.197879861419771,-0.6556594541046015,8.368889473351867,1.0077478291647932
7.191323266878725,-0.7158225094260221,8.378966951643514,0.9419115722786698
7.184165041784465,-0.7764652624068366,8.388386067366302,0.8750276984490323
7.1764003891603965,-0.8375158162626262,8.397136344350791,0.8069449739264214
7.16802523099777,-0.8989023801551089,8.405205794090055,0.7375127691550801
7.159036207196219,-0.9605528089963792,8.412580921781606,0.6665815342839337
7.149430679106255,-1.0223940861161664,8.419246737124444,0.5940033125452041
7.139206738245094,-1.0843517484765695,8.425186770249896,0.5196322969480608
7.1283632207603285,-1.1463492544586733,8.430383093219376,0.4433254358419883
7.116899728215742,-1.2083072947265991,8.434816347577796,0.36494309286753296
7.104816655268476,-1.270143047309394,8.43846577850647,0.28434976658959255
7.092115224795382,-1.3317693788441418,8.441309276172367,0.20141487465750693
7.07879753100694,-1.3930939949101941,8.443323424918942,0.11601360661256098
7.0648665910578385,-1.4540185435699506,8.444483560985068,0.028027848422064405
7.050326405622139,-1.514437677630327,8.444763839469289,-0.06265281958481943
7.035182028845836,-1.5742380827621574,8.44413731127344,-0.15613005151378384
7.019439648018214,-1.6332974804686002,8.442576010758302,-0.2524955938229883
7.003106673213528,-1.6914836169772174,8.440051054820072,-0.35183007748145534
6.986191837043756,-1.7486532514329847,8.436532754045258,-0.45420175272064284
6.9687053045294265,-1.8046511592674976,8.43199073651805,-0.5596651784757067
6.950658792936752,-1.8593091692736403,8.426394084733294,-0.6682598828625169
6.932065701244015,-1.9124452556665394,8.419711485904669,-0.7800090157641318
6.91294124868735,-1.9638627091802818,8.411911395747028,-0.8949180197533115
6.893302621595547,-2.0133494139303663,8.402962215549495,-1.0129733510731107
6.873169127456243,-2.0606772592320737,8.392832482038765,-1.1341412881194624
6.852562354863922,-2.1056017176445883,8.38149106915757,-1.2583668706653321
6.831506337687476,-2.1478616220213547,8.368907400450917,-1.3855730187449056
6.810027721467263,-2.187179175073809,8.355051670263467,-1.5156598854501095
6.788155929716525,-2.223260224660222,8.339895071408966,-1.648504502617243
6.765923327469922,-2.2557948364388762,8.323410026382794,-1.7839607822057095
6.7433653791055335,-2.2844581924115803,8.305570418560736,-1.9218599387802007
6.720520797181417,-2.3089118389694203,8.286351819172934,-2.062011399580473
6.697431678791723,-2.328805301095697,8.26573170517713,-2.2042042678861473
6.674143625780766,-2.343778070176103,8.243689662498268,-2.348209402474749
6.650705845079004,-2.3534619612667274,8.220207568473521,-2.4937821707023997
6.627171225466337,-2.3574838216130933,8.195269746766497,-2.6406659249669344
6.603596387250206,-2.3554685557448787,8.168863087516828,-2.788596242021551
6.580041701692757,-2.3470424137754042,8.140977125096612,-2.937305951928456
6.556571277555003,-2.331836468960055,8.111604065577326,-3.086530968704489
6.533252912865402,-2.309490188646119,8.080738755890282,-3.236016918469061
6.510158010978941,-2.2796549802093007,8.048378586705592,-3.385526543965396
6.487361461176848,-2.241997571351407,8.014523321265939,-3.5348478477570584
6.464941485463334,-2.1962030633503438,7.979174842788368,-3.6838029215183226
6.442979454829831,-2.141977477790769,7.942336813573185,-3.832257397150989
6.4215596800519235,-2.079049603370816,7.904014239601675,-3.980130448580023
6.400769184018215,-2.0071719410785582,7.864212935115875,-4.127405272541797
6.3806974646074295,-1.9261205449495906,7.822938882390456,-4.274139983683838
6.361436259157934,-1.8356935634968612,7.780197482553618,-4.420478874319006
6.343079323522965,-1.735708305858248,7.735992693810427,-4.5666640113793076
6.3257222404643825,-1.6259966897013765,7.6903260536966345,-4.7130471694386635
6.309462273567369,-1.5063989797191926,7.643195582002248,-4.860102122426656
6.294398283770176,-1.376755804416092,7.594594560777981,-5.008437325185977
6.280630725726016,-1.2368985596185156,7.544510187526122,-5.158808986823695
6.26826174012983,-1.0866384962500546,7.4929220976578845,-5.312134431806603
6.25739535516733,-0.9257550944553488,7.439800753339819,-5.469505394744997
6.248137804222776,-0.7539848288170079,7.385105699392369,-5.632200385325656
6.240597955934606,-0.5710122739071619,7.328783695539113,-5.801694292446509
6.234887833195534,-0.37646693292889266,7.270766752614648,-5.9796616308594075
6.231123163866245,-0.16993161407655497,7.210970136306054,-6.167966689891554
6.22942384772548,0.049027674355885564,7.149290469407139,-6.368628352055065
6.229914124469039,0.2807933768741987,7.085604185886588,-6.583737942919074
6.232722058237781,0.5255612397023923,7.0197668064573975,-6.815292799388586
6.2379776706348045,0.7830921115206513,6.951613878463512,-7.064883311112857
6.245808591750011,1.052278890298585,6.880965045352383,-7.333134914526962
6.2563313806529965,1.3304275385401527,6.807633696207113,-7.618763542378411
6.269635656038398,1.6121393097319705,6.7314460607833295,-7.917081262745358
6.285757049135718,1.8877519316175644,6.652275248155876,-8.21787612288494
6.304634568451894,2.1415948347085862,6.570096486927026,-8.502984917011274
6.326050516798979,2.3510330069664716,6.485066637756914,-8.744852613020264
6.349560846868644,2.4883275090681662,6.397618111626711,-8.908817594387727
6.374444121959326,2.5275120257914754,6.3085299356828335,-8.962121279028583
6.39971924221724,2.4553390281998526,6.2189087228925475,-8.888380757906654
6.424272632499239,2.2793163429527317,6.130024915313481,-8.698091571293611
6.447065795928767,2.0249978913881304,6.0430439996005445,-8.42468511395438
6.467315774842648,1.7242304352171238,5.9587971484610005,-8.108704599876315
6.484558079194819,1.4041609060103473,5.877710102462237,-7.7834241698560644
6.498599688254923,1.0829466838167947,5.7998758607636764,-7.469662179066943
6.509429155093091,0.7706990233687873,5.725179238973007,-7.177499933594487
6.517136145326779,0.47211791722541047,5.653404239637062,-6.9100431080164375
6.521857324499033,0.18881714286832513,5.584303808556898,-6.666596124334193
6.523745495927716,-0.07914089975321204,5.517637847313556,-6.444691902495511
6.522954086930183,-0.33236433093171674,5.453190928288601,-6.241218433284113
6.5196304436208665,-0.5716689255570353,5.390778743955759,-6.052986999526747
6.513913754365296,-0.7978537752446012,5.330248873960492,-5.876992859809915
6.50593521661285,-1.0116050387143667,5.271478945362393,-5.71051816922805
6.495819166225707,-1.2134657076740631,5.214373763670112,-5.551158801434465
6.483684509148967,-1.4038380353184674,5.158862175655767,-5.396817297602835
6.469646128795782,-1.5830011431345263,5.104894002679739,-5.2456828527476915
6.453816117364437,-1.7511347801159,5.052437174152262,-5.096208148169137
6.436304769563278,-1.908344626083759,5.00147509267057,-4.947087203892188
6.41722132330244,-2.0546868060113783,4.952004220631648,-4.797235644503681
6.3966744552423265,-2.1901904414410907,4.904031864186611,-4.645773463152417
6.374772550827916,-2.314877652674279,4.857574129555087,-4.492009812821525
6.351623774301173,-2.4287807270860435,4.812654031426872,-4.335429179969128
6.327335967030313,-2.53195633282194,4.769299739627181,-4.175678311198729
6.302016403702094,-2.6244967583850047,4.727542956515194,-4.012553368530835
6.275771436118244,-2.706538233471549,4.687417422829886,-3.8459869298445577
6.248706053783529,-2.7782664505476173,4.6489575535314405,-3.6760345990869396
6.220923389278052,-2.839919465130616,4.6121972075405715,-3.502861129626085
6.192524194626746,-2.891788205492525,4.57716859624431,-3.3267260844730666
6.1636063125718215,-2.9342148674468027,4.543901335399579,-3.147969154137393
6.134264163897353,-2.967589504618007,4.512421643858206,-2.9669953245983667
6.104588268851173,-2.992345147283558,4.482751690612222,-2.7842601343118734
6.074664817378338,-3.0089517926195994,4.454909089269103,-2.6002552818796962
6.044575299452141,-3.01790960607109,4.428906536450306,-2.4154948476123996
6.01439620339143,-3.019741658568484,4.404751587974182,-2.23050237604799
5.984198786805746,-3.014986499067043,4.382446564213702,-2.045799036265369
5.954048921815075,-3.004190828467655,4.361988573851049,-1.8618930363975765
5.924007013530399,-2.987902501693147,4.3433696434870726,-1.6792704218651706
5.894127988513467,-2.9666640418873294,4.326576939268421,-1.4983873370303031
5.8644613480945935,-2.941006806617748,4.311593065898117,-1.319663780364917
5.835051280028416,-2.911445902624915,4.298396428094469,-1.1434788365194586
5.805936821002168,-2.8784759048015878,4.286961639729274,-0.9701673270320263
5.777152061954152,-2.842567398085451,4.277259966458954,-0.8000177864248306
5.7487263879732975,-2.8041643288055917,4.269259788594705,-0.6332716431083474
5.720684744685242,-2.763682125347494,4.262927072163621,-0.47012346530566074
5.693047923431767,-2.7215065270304484,4.258225837510564,-0.310722121061185
5.665832858161462,-2.677993044726546,4.255118616299953,-0.15517269781706378
5.6390529277141965,-2.6334669666095976,4.253566889321782,-0.003539030200551796
5.6127182580481,-2.5882238169037826,4.253531499019776,0.1441533064838281
5.586836019879063,-2.5425301738535326,4.254973032084615,0.28791366618591896
5.561410718140527,-2.496624754523447,4.257852168746473,0.4277827778632378
5.536444470595293,-2.4507196776040683,4.262129996525106,0.5638290604699236
5.511937273819252,-2.4050018203203765,4.2677682871298055,0.6961448803204585
5.487887255616048,-2.359634191058933,4.27472973593301,0.8248428031874013
5.464290913705459,-2.314757244789068,4.282978163964884,0.950051872801971
5.441143341257568,-2.270490073213158,4.292478682692904,1.071913927236486
5.418438440525437,-2.2269314054325067,4.303197821965269,1.1905799452148416
5.396169126471111,-2.1841603574959025,4.315103621417418,1.3062063958719219
5.374327522896152,-2.1422368704109696,4.3281656853761366,1.4189515479793773
5.352905154192043,-2.1012017761474695,4.3423552008559305,1.5289716783454013
5.331893136430568,-2.061076430206888,4.3576449176393846,1.6364171043338411
5.311282372128499,-2.021861848179246,4.3740090886827225,1.7414279529333538
5.291063753646706,-1.9835372835364773,4.391423368212056,1.8441295698020532
5.271228380811341,-1.9460581865565247,4.409864663910077,1.9446274683158953
5.251767798945776,-1.9093534924507847,4.429310938593236,2.0430017241325418
5.232674264021268,-1.8733222043416942,4.449740955834561,2.1393007399714405
5.213941041977852,-1.8378292689613944,4.4711339632342755,2.2335343449384073
5.1955627492882375,-1.802700796590257,4.49346930668366,2.325666261622585
5.177535741322335,-1.767718759927867,4.516725969299886,2.4156060830602373
5.159858553723057,-1.7326154278817705,4.540882030130488,2.5032010619324794
5.142532399444239,-1.6970679567890445,4.565914040749813,2.588228235574149
5.125561719876348,-1.6606937753100353,4.591796323105554,2.6703876951449117
5.108954782123248,-1.6230476510297849,4.618500200057003,2.7492981433253814
5.09272430561295,-1.583621588337324,4.645993181490256,2.824496233804925
5.076888089729576,-1.5418489219216682,4.674238143828306,2.8954414710674836
5.061469600510359,-1.497114047597381,4.70319255853898,2.961528547744218
5.046498460034385,-1.448769051547304,4.732807844016422,3.0221087458576195
5.032010769518912,-1.3961579336182617,4.763028931474999,3.0765212567330846
5.0180491901827295,-1.3386480877925022,4.793794144042329,3.124133873419126
5.004662709304805,-1.2756672398738995,4.825035482776521,3.164390533881348
4.991906036906066,-1.2067423756298492,4.856679388115334,3.1968609584573437
4.979838613149767,-1.1315357580741103,4.888647997699907,3.2212857305541043
4.968523255569027,-1.049872485982389,4.920860855005448,3.2376093728867774
4.958024530709203,-0.9617546510532201,4.9532369487343155,3.2459948952109365
4.94840698419867,-0.8673591193500169,4.985696897686425,3.246816062959367
