th1 (rad),w1 (rad/s),th2 (rad),w2 (rad/s),a1 (rad/s^2),a2 (rad/s^2)
3.040751996230288,1.459049646581247,3.619304228807423,-0.6390318075466555,-3.500751475874726,6.2724858649049855
3.0553424926961004,1.4240421318224998,3.6129139107319563,-0.5763069488976056,-3.420407735674004,6.279173308821552
3.069582914014325,1.3898380544657598,3.6071508412429805,-0.5135152158093901,-3.3310847852000025,6.271590993149701
3.083481294558983,1.3565272066137597,3.6020156890848867,-0.4507993058778931,-3.2333220807482976,6.250695856733879
3.0970465666251203,1.3241939858062768,3.5975076960261076,-0.3882923473105543,-3.127773825960614,6.217594686328055
3.110288506483183,1.2929162475466707,3.593624772553002,-0.32611640044727375,-3.01518305760896,6.1735100386609485
3.1232176689586497,1.2627644169705812,3.5903636085485293,-0.26438130006066424,-2.8963550590962264,6.1197447704697705
3.1358453131283555,1.233800866379619,3.5877197955479225,-0.20318385235596653,-2.772131342801045,6.057646960585826
3.1481833217921515,1.2060795529516084,3.585687957024363,-0.14260738275010826,-2.643365256350338,5.988576753359594
3.1602441173216675,1.179645900388105,3.584261883196862,-0.0827216152165123,-2.5109000310444682,5.913876323866758
3.1720405763255486,1.1545369000776604,3.583434667044697,-0.023582851977844724,-2.375549832698131,5.834843804095347
3.183585945326325,1.1307814017506792,3.5831988385249183,0.03476558606310875,-2.2380841223929724,5.7527116528370845
3.194893759343832,1.1084005605267495,3.5835464943855495,0.09229270259147959,-2.0992154074451217,5.668629629350044
3.2059777649490995,1.0874084064522982,3.5844694214114643,0.14897899888498004,-1.959590274647206,5.58365226135732
3.2168518490136226,1.0678125037058261,3.585959211400314,0.20481552149855323,-1.8197834550606076,5.498730491317836
3.227529974050681,1.0496146691552202,3.5880073666152996,0.2598028264117316,-1.6802945729695535,5.414707042614055
3.238026120742233,1.0328117234255247,3.5906053948794168,0.3139498968378721,-1.5415471773575842,5.332314964593516
3.2483542379764883,1.0173962516519488,3.5937448938477954,0.36727304648380726,-1.4038896359543314,5.252178783528868
3.2585282004930076,1.0033573552924056,3.5974176243126337,0.4197948343190959,-1.2675974817382398,5.174817694819244
3.268561774045932,0.9906813804750232,3.6016155726558248,0.47154301126728837,-1.132876831824101,5.100650269118284
3.278468587850682,0.9793526121567822,3.606331002768498,0.5225495139584713,-0.9998685416202819,5.030000201343789
3.28826211397225,0.9693539267405793,3.6115564979080825,0.5728495159719091,-0.8686528068407514,4.9631026980186075
3.2979556532396557,0.9606673986721718,3.6172849930678015,0.6224805429520952,-0.7392539775566211,4.900111168244192
3.3075623272263774,0.9532748588966056,3.6235097984973224,0.6714816546345371,-0.6116453984429873,4.8411039517724905
3.3170950758153435,0.9471584049121757,3.6302246150436677,0.7198926941522621,-0.48575413537692913,4.786090880727641
3.3265666598644654,0.9423008635584065,3.63742354198519,0.7677536029595385,-0.36146548921222293,4.735019527525635
3.3359896685000496,0.9386862086662843,3.6451010780147857,0.8151037982347948,-0.23862723229897273,4.687781039515742
3.3453765305867127,0.9362999363432946,3.6532521159971334,0.8619816086299522,-0.1170535320845357,4.644215500674015
3.3547395299501455,0.9351294010224492,3.6618719320834328,0.9084237636366923,0.0034714507545200524,4.604116792698337
3.3640908239603697,0.9351641155299945,3.6709561697198,0.9544649315636756,0.12319028420697999,4.567236952785701
3.37344246511567,0.9363960183720642,3.6805008190354367,1.0001373010915326,0.24236928789519568,4.533290044076077
3.3828064252993904,0.9388197112510162,3.690502192046352,1.0454702015322934,0.3612958284773459,4.501955568127286
3.3921946224119006,0.9424326695357896,3.700956894061675,1.0904897572135663,0.4802758523535403,4.472881457715216
3.4016189491072586,0.947235428059325,3.711861791633811,1.1352185717907184,0.5996316166870811,4.445686693529544
3.411091303387852,0.9532317442261958,3.723213977351718,1.1796754387260138,0.7196995780410504,4.419963590653138
3.420623620830114,0.9604287400066064,3.7350107317389782,1.223875074632545,0.8408283979629257,4.395279800664705
3.43022790823018,0.9688370239862356,3.7472494824853038,1.267827872639192,0.9633770263010535,4.3711800732794694
3.4399162784700423,0.9784707942492461,3.7599277612116957,1.3115396733719868,1.0877128256488058,4.347187818044658
3.4497009864125348,0.9893479225057341,3.773043157945416,1.3550115515524335,1.2142097038840927,4.322806502066885
3.459594465637592,1.001490019544575,3.78659327346094,1.3982396165731024,1.3432462261447742,4.297520914344773
3.469609365833038,1.0149224818060227,3.800575669626671,1.44121482571655,1.475203682624797,4.270798321255971
3.479758590651098,1.0296745186322707,3.814987817883836,1.4839228089291097,1.6104640941795898,4.242089531326653
3.490055335837421,1.0457791595740666,3.8298270459731274,1.5263437042423762,1.7494081437848232,4.210829880815807
3.5005131274331616,1.0632732410119148,3.845090483015551,1.5684520030505342,1.8924130282908203,4.1764401451049515
3.5111458598432805,1.082197371294823,3.860775003046056,1.6102164045015837,2.039850231535172,4.138327374643735
3.5219678335562286,1.1025958736101746,3.876877167091072,1.651599678248021,2.1920832265851113,4.09588564853192
3.5329937922923302,1.1245167058760257,3.893393163873552,1.69255853473334,2.3494651215297204,4.048496734010493
3.5442389593510906,1.1480113570913228,3.9103187492208855,1.733043502073445,2.5123362696680465,3.99553063650076
3.555719072922004,1.1731347197880033,3.92764918424162,1.7729988084384525,2.6810218709713562,3.936346022694545
3.567450420119884,1.1999449384977168,3.9453791723260045,1.812362268665398,2.8558295971622085,3.8702904988882096
3.579449869504861,1.228503234469339,3.9635027950126585,1.85106517365428,3.0370472774821646,3.7967007285847907
3.5917349018495544,1.2588737072441607,3.9820134467492014,1.889032180940128,3.2249406860595484,3.7149023776561227
3.604323638921996,1.291123114104756,4.000903768558603,1.9261812047166893,3.419751474607821,3.6242098823172224
3.6172348700630437,1.3253206288508343,4.020165580605769,1.9624233035398615,3.6216952958788395,3.5239260450305747
3.630488076351552,1.3615375818096227,4.039789813641168,1.9976625639901673,3.8309601637884914,3.4133414763881467
3.6441034521696483,1.3998471834475077,4.059766439281069,2.0317959787540487,4.047705095372394,3.291733917126619
3.6581019240041233,1.4403242344012317,4.0800843990686095,2.0647133179253148,4.272059077675325,3.158367493791878
3.6725051663481354,1.4830448251779849,4.100731532247862,2.0962969928632336,4.504120399276433,3.0124919842461417
3.6873356145999154,1.5280860291707492,4.121694502176495,2.126421912705695,4.7439563813038985,2.853342195294697
3.702616474891623,1.5755255929837881,4.142958721303552,2.1549553346586423,4.991603536306228,2.6801375843683135
3.7183717308214606,1.6254416283468505,4.164508274650139,2.1817567105023254,5.2470681748770716,2.4920822907541287
3.734626147104929,1.6779123100956213,4.186325841755162,2.206677533409867,5.510327468900787,2.2883657798879184
3.7514052702058853,1.7330155847846291,4.2083926170892605,2.229561191208746,5.781330965794396,2.068164347634272
3.768735426053732,1.7908288944425732,4.230688229001348,2.2502428346850887,6.060002528824705,1.8306437817230976
3.7866437149981573,1.8514289197308202,4.253190657348199,2.2685492725023195,6.346242652548573,1.5749635367085923
3.8051580041954653,1.914891346256306,4.2758761500732225,2.2842989078694056,6.639931066976958,1.3002828500085861
3.824306917658028,1.9812906569260755,4.298719139151917,2.2973017363694916,6.9409294955485334,1.0057693140043853
3.844119824227289,2.050699951881561,4.321692156515612,2.3073594295095354,7.249084365541589,0.6906105286111862
3.8646268237461046,2.123190795536977,4.344765750810707,2.314265534795647,7.56422917873717,0.35402959791928046
3.8858587317014743,2.1988330873243487,4.367908406158663,2.31780583077484,7.8861861266322855,-0.004694586303792195
3.9078470625747177,2.2776949485906717,4.391086464466412,2.317758884911802,8.214766367576319,-0.386201098936185
3.9306240120606244,2.359842612266435,4.41426405331553,2.3138968739224404,8.549768159273356,-0.7910132954024903
3.954222438183289,2.4453402938591684,4.437403022054754,2.3059867409684154,8.89097174216781,-1.2194958121192765
3.9786758411218806,2.5342500112808466,4.460462889464439,2.2937917828472227,9.238129476506364,-1.671799867612213
4.004018341234689,2.62663130604591,4.483400807292911,2.2770737841711006,9.590949223621271,-2.147793816753976
4.030284654295148,2.722540798282123,4.506171545134622,2.255595846003561,9.949068302205724,-2.6469750661440785
4.057510062277969,2.8220314813041805,4.5287275035946575,2.2291260953421204,10.312014513905215,-3.1683583983083334
4.085730377091011,2.9251516264432325,4.551018764548079,2.197442511359037,10.679149694122133,-3.7103344520856623
4.114981893355443,3.031943123384454,4.57299318966167,2.16033916683818,11.049589992109626,-4.27049056752921
4.145301324589288,3.14243902330555,4.594596581330052,2.117634261162888,11.422095640463109,-4.845384481744014
4.176725714822343,3.256659979710181,4.61577292394168,2.0691804163454477,11.79492142500707,-5.430259618427287
4.209292314619445,3.374609193960252,4.6364647281051345,2.014877820161175,12.165617620132666,-6.018689298301756
4.243038406559047,3.4962653701615785,4.656613506306746,1.9546909271781572,12.53077023017329,-6.602136779828092
4.278001060260663,3.6215730724633115,4.6761604155785275,1.8886695593798764,12.885669735918043,-7.169419802999371
4.314216790985296,3.750429769822492,4.695047111172326,1.8169753613498827,13.223900475265168,-7.706074213450549
4.3517210886835205,3.882668774575144,4.713216864785825,1.7399146192153772,13.536850322756397,-8.193624330427783
4.390547776429272,4.018037277802708,4.730616010977979,1.6579783759110993,13.813155440564955,-8.608792352138588
4.430728149207299,4.156168832208357,4.74719579473709,1.5718904523897135,14.038121422099508,-8.922720849789574
4.472289837529383,4.296550046429353,4.762914699260987,1.4826632438918177,14.193204283625146,-9.100347092838435
4.515255337993676,4.438482089265604,4.777741331699906,1.3916597729634335,14.25569501534787,-9.100158731024491
4.5596401588863325,4.581039039419083,4.79165792942954,1.3006581856531885,14.198826675282085,-8.874671729631485
4.6054505492805236,4.723027306171904,4.804664511286072,1.2119114683568737,13.99259773592759,-8.372079217988954
4.6526808223422425,4.86295328353118,4.816783625969641,1.1281906761769842,13.60564299156633,-7.539568728494103
4.701310355177554,4.999009713446843,4.828065532731411,1.0527949888920431,13.00842112930105,-6.328701602786398
4.751300452312023,5.129093924739854,4.838593482620331,0.9895079728641791,12.17774774407463,-4.702876206713789
4.802591391559422,5.2508714021806,4.848488562348972,0.9424792107970412,11.10223257047564,-2.6461805793162343
4.8551001055812275,5.361893727885357,4.857913354456943,0.9160174050038788,9.787534818794946,-0.17196259998124325
4.908719042860081,5.459769076073306,4.867073528506982,0.9142977790040664,8.259772137378718,2.6714348565732764
4.963316733620815,5.542366797447094,4.876216506297022,0.9410121275697991,6.56531829909453,5.800498498074318
5.018740401595285,5.608019980438039,4.88562662757272,0.9990171125505423,4.7659686776196875,9.103566771241733
5.074820601399666,5.655679667214236,4.895616798698225,1.0900527802629596,2.9299994627528814,12.45438598122197
5.131377398071808,5.684979661841765,4.906517326500855,1.2145966400751793,1.1213424385260222,15.728970403312527
5.188227194690226,5.696193086227025,4.9186632929016065,1.3718863441083047,-0.6100259148092504,18.821138103990638
5.245189125552496,5.690092827078932,4.9323821563426895,1.560097725148211,-2.2338968041079323,21.652745102236324
5.302090053823286,5.667753859037853,4.947983133594172,1.7766251761705742,-3.740852232051664,24.17693160481853
5.358767592413664,5.630345336717336,4.965749385355878,2.0183944922187598,-5.139231083408655,26.375255609348375
5.415071045780838,5.57895302588325,4.9859333302780655,2.2821470483122437,-6.449778467316729,28.251160369372503
5.47086057603967,5.514455241210082,5.008754800761188,2.564658652005969,-7.699785915279319,29.822422484469264
5.5260051284517715,5.437457382057289,5.034401387281248,2.8628828768506613,-8.917978257198017,31.11448566314091
5.580379702272344,5.348277599485309,5.0630302160497545,3.1740277334820703,-10.130703220267572,32.15557744934232
5.633862478267197,5.2469705672826334,5.094770493384575,3.4955835079754936,-11.35944426410624,32.97370053314085
5.686332183940023,5.133376124641571,5.12972632846433,3.825320513306902,-12.619393727663256,33.595136058899726
5.737665945186439,5.007182187364938,5.167979533597399,4.161271873895899,-13.91873958483881,34.043934942103334
5.787737767060088,4.86799479151655,5.209592252336358,4.501711223316932,-15.258342975982787,34.34188059625009
5.836417714975254,4.715411361756722,5.254609364569527,4.845130029279433,-16.63154018064889,34.50847681139187
5.883571828592821,4.549095959950233,5.303060664862321,5.190214797393352,-18.023848338371952,34.56058381231405
5.929062788192323,4.368857476566514,5.354962812836255,5.535820635516493,-19.412371424545668,34.511365103401
5.972751362957988,4.174733762321057,5.41032101919142,5.880934286550503,-20.764691213298963,34.368211867361616
6.014498700581198,3.967086850188067,5.469130362056925,6.224616405224119,-22.03699978919148,34.1292914291329
6.054169569083078,3.7467168522961525,5.531376526109166,6.565909319515448,-23.171215637063764,33.77835451841036
6.09163673760604,3.515004695925515,5.597035619304321,6.903692864699552,-24.09088703549156,33.27750803071406
6.126786784565295,3.2740958255705994,5.666072547951316,7.236467945006693,-24.695947539357146,32.55797274276943
6.159527742821001,3.027136350177028,5.738437227401383,7.562047672434387,-24.857068377400473,31.509690932445945
6.189799106322771,2.778565666403023,5.8140577041257275,7.877144581758847,-24.411777173120303,29.972476565749933
6.217584762986801,2.53444789467182,5.892829149943316,8.176869347416346,-23.16698220336216,27.734657885233652
6.24292924193352,2.302778072638198,5.97459784341748,8.454215926268683,-20.915809590699975,24.54960841768213
6.265957022659902,2.0936199767311985,6.0591400026801665,8.699712010445504,-17.478733714303303,20.183654879481274
6.286893222427214,1.9188326395881654,6.146137122784621,8.901548559240316,-12.774690397604893,14.503766084034769
6.306081548823095,1.7910857356121164,6.235152608377025,9.046586220080664,-6.91016372782997,7.590676715726065
6.323992406179216,1.7219840983338166,6.325618470577831,9.122492987237925,-0.2437343987478736,-0.17680779434618496
6.341212247162554,1.7195467543463379,6.416843400450211,9.120724909294463,6.636000604282413,-8.146399445991534
6.358407714706018,1.785906760389162,6.508050649543155,9.039260914834548,13.049391284227289,-15.564213414876683
6.3762667823099095,1.916400673231435,6.598443258691501,8.883618780685781,18.42678465733073,-21.821729232755064
6.395430789042224,2.100668519804742,6.6872794464983585,8.665401488358231,22.4566974914416,-26.629975141201562
6.416437474240271,2.3252354947191582,6.773933461381941,8.399101736946216,25.106386998560257,-30.02963366775621
6.439689829187463,2.5762993647047607,6.8579244787514035,8.098805400268654,26.538470078751708,-32.27421781359095
6.465452822834511,2.8416840654922777,6.93891253275409,7.776063222132745,26.9999917264901,-33.68731770665351
6.493869663489433,3.111683982757179,7.016673164975417,7.439190045066209,26.740269108624002,-34.56374979654025
6.524986503317005,3.379086673843419,7.091065065426079,7.093552547100807,25.970808050841338,-35.12720674707102
6.55877737005544,3.6387947543518324,7.162000590897088,6.742280479630097,24.855654882992614,-35.52627081411115
6.595165317598958,3.8873513031817586,7.229423395693389,6.387017771488985,23.51667335046157,-35.847696749685895
6.634038830630776,4.122518036686374,7.293293573408278,6.028540803992126,22.04327573029982,-36.133607476469095
6.6752640109976396,4.342950793989372,7.3535789814482,5.667204729227435,20.501595202454123,-36.396672376946974
6.718693518937533,4.5479667460139135,7.410251028740474,5.303238005457965,18.941456521248092,-36.63162483289954
6.764173186397672,4.737381311226394,7.4632834087950535,4.93692175712897,17.401057691255627,-36.82329531659854
6.811546999509936,4.91139188813895,7.512652626366343,4.568688803962985,15.909805537408293,-36.95185483358956
6.860660918391326,5.070489943513033,7.558339514405973,4.19917025562709,14.48982052312041,-36.99595423707511
6.911365817826456,5.215388148744237,7.600331216962244,3.8292107132563387,13.156536969189027,-36.93428575771773
6.963519699313899,5.346953518436128,7.638623324094808,3.4598678556791613,11.918702173939042,-36.745932778802995
7.0169892344982605,5.466140540175518,7.6732220026516,3.0924085278911315,10.777969821387,-36.409757596973144
7.071650639900016,5.5739202383893875,7.7041460879305115,2.7283109519214,9.728206520536187,-35.9030134889879
7.127389842283909,5.671202303594749,7.731429197449725,2.369280817031521,8.754595127172143,-35.19936073818537
7.184101865319857,5.758748254866471,7.7551220056200405,2.017287209649667,7.8326379586081005,-34.266529088949866
7.241689347868522,5.837074634452552,7.775294877716537,1.6746219187601683,6.927258024493627,-33.06402765372634
7.300060094213047,5.9063472146974885,7.792041096904139,1.343981642222905,5.992392816617924,-31.541592376650314
7.359123566360022,5.966271142863667,7.8054809133263685,1.0285657184564019,4.971787835790726,-29.639499731091156
7.418786277788659,6.015989021221575,7.815766570510933,0.7321707211454903,3.802087483792495,-27.292404828552552
7.478946168000874,6.0540098960595,7.823088277722388,0.4592466728599648,2.41961821518452,-24.438732447632614
7.539486266961469,6.078206078211346,7.827680744450987,0.21485934838363865,0.7720640195591149,-21.037285016188065
7.600268327743582,6.085926718406936,7.829829337934823,0.004486498221758006,-1.1650737107393185,-17.09074644972622
7.661127594927652,6.074275981299543,7.829874202917041,-0.16642096627550418,-3.370242915068457,-12.671487998972557
7.721870354740647,6.040573552148858,7.828209993254286,-0.29313584626522976,-5.762766327628942,-7.93939989630151
7.782276090262135,5.982945888872569,7.825278634791633,-0.37252984522824484,-8.204191084263401,-3.1381860653429166
7.842105549150861,5.900903978029936,7.821553336339351,-0.403911705881674,-10.520188723079553,1.4387107279861835
7.9011145889311605,5.79570209079914,7.817514219280534,-0.3895245986018122,-12.539273078414958,5.506875745452426
7.959071609839152,5.670309360014991,7.813618973294516,-0.33445584114728794,-14.13352141298496,8.852438573334608
8.015774703439302,5.528974145885141,7.810274414883043,-0.24593145541394185,-15.243673145596583,11.37022050053494
8.071064444898154,5.376537414429175,7.807815100328904,-0.13222925040859246,-15.879990414782599,13.065559307876336
8.124829819042445,5.217737510281349,7.806492807824818,-0.0015736573298290868,-16.103702764049853,14.026675314720336
8.177007194145258,5.056700482640851,7.8064770712515195,0.13869309581737427,-16.001320840767427,14.385677896025369
8.227574198971666,4.896687274233177,7.807864002209693,0.28254987477762794,-15.662558856753154,14.284329037936876
8.276541071713998,4.740061685665645,7.810689500957469,0.4253931651569967,-15.166603069689867,13.851967018691196
8.323941688570654,4.588395654968746,7.81494343260904,0.5639128353439087,-14.576350809454073,13.195385614717416
8.369825645120342,4.442632146874206,7.820582560962479,0.6958666914910828,-13.938010219735041,12.39700039973209
8.414251966589084,4.303252044676856,7.82754122787739,0.8198366954884038,-13.283399477593083,11.517404082096537
8.457284487035853,4.170418049900925,7.835739594832274,0.9350107363093692,-12.63310593253683,10.599535624085409
8.498988667534862,4.044086990575557,7.845089702195368,1.0410060925502231,-11.999518740509197,9.672916677408441
8.539429537440617,3.9240918031704646,7.8554997631208705,1.1377352593243075,-11.389337560132997,8.757283175678145
